{
  "AcquisitionMatrixPE": 104,
  "AcquisitionNumber": 1,
  "AcquisitionTime": "11:46:55.175000",
  "BandwidthPerPixelPhaseEncode": 17.17,
  "BaseResolution": 104,
  "BodyPartExamined": "BRAIN",
  "CoilString": "HC1-7;NC1_2",
  "ConsistencyInfo": "N4_VE11C_LATEST_20160120",
  "ConversionSoftware": "dcm2niix",
  "ConversionSoftwareVersion": "v1.0.20190720  (JP2:OpenJPEG) GCC7.3.0",
  "DerivedVendorReportedEchoSpacing": 0.000560011,
  "DeviceSerialNumber": "167006",
  "DwellTime": 2.1e-06,
  "EchoTime": 0.037,
  "EchoTrainLength": 104,
  "EffectiveEchoSpacing": 0.000560011,
  "FlipAngle": 52,
  "ImageComments": "Unaliased_MB4_PE3_LB",
  "ImageOrientationPatientDICOM": [0.99973, -0.0212706, 0.00932125, 0.0232108, 0.92835, -0.370982],
  "ImageType": [
    "ORIGINAL",
    "PRIMARY",
    "M",
    "MB",
    "ND",
    "MOSAIC"
],
  "ImagingFrequency": 123.259,
  "InPlanePhaseEncodingDirectionDICOM": "COL",
  "InstitutionAddress": "Chemin_Queen-Mary_4565_Montreal_District_CA_H3W_1W5",
  "InstitutionName": "IUGM",
  "InstitutionalDepartmentName": "Department",
  "MRAcquisitionType": "2D",
  "MagneticFieldStrength": 3,
  "Manufacturer": "Siemens",
  "ManufacturersModelName": "Prisma_fit",
  "Modality": "MR",
  "MultibandAccelerationFactor": 4,
  "PartialFourier": 1,
  "PatientPosition": "HFS",
  "PercentPhaseFOV": 100,
  "PhaseEncodingDirection": "j",
  "PhaseEncodingSteps": 104,
  "PhaseResolution": 1,
  "PixelBandwidth": 2290,
  "ProcedureStepDescription": "hcptrt_generic",
  "ProtocolName": "func_task-language_run-1",
  "PulseSequenceDetails": "%CustomerSeq%_cmrr_mbep2d_bold",
  "ReceiveCoilActiveElements": "HC1-7;NC1,2",
  "ReceiveCoilName": "HeadNeck_64",
  "ReconMatrixPE": 104,
  "RepetitionTime": 1.49,
  "SAR": 0.0379914,
  "ScanOptions": "FS",
  "ScanningSequence": "EP",
  "SequenceName": "epfid2d1_104",
  "SequenceVariant": "SK_SS",
  "SeriesDescription": "func_task-language_run-1",
  "SeriesNumber": 18,
  "ShimSetting": [613, -7274, -8858, 346, 38, -428, -1, 34],
  "SliceThickness": 2,
  "SliceTiming": [0, 0.785, 0.0975, 0.8825, 0.1975, 0.98, 0.295, 1.0775, 0.3925, 1.175, 0.49, 1.275, 0.5875, 1.3725, 0.685, 0, 0.785, 0.0975, 0.8825, 0.1975, 0.98, 0.295, 1.0775, 0.3925, 1.175, 0.49, 1.275, 0.5875, 1.3725, 0.685, 0, 0.785, 0.0975, 0.8825, 0.1975, 0.98, 0.295, 1.0775, 0.3925, 1.175, 0.49, 1.275, 0.5875, 1.3725, 0.685, 0, 0.785, 0.0975, 0.8825, 0.1975, 0.98, 0.295, 1.0775, 0.3925, 1.175, 0.49, 1.275, 0.5875, 1.3725, 0.685],
  "SoftwareVersions": "syngo_MR_E11",
  "SpacingBetweenSlices": 2,
  "StationName": "MRC35049",
  "TaskName": "language",
  "TotalReadoutTime": 0.0576811,
  "TxRefAmp": 243.739,
  "WipMemBlock": "ccbf8c9c-3638-4986-915b-06c0e422a7a3||Sequence: R016 ve11c/master r/e634e98; Dec 19 2017 11:00:25 by eja",
  "dcmmeta_affine": [
    [-1.9994605779647827, 0.046421684324741364, 0.0015247499104589224, 99.85623931884766],
    [0.04254120960831642, 1.8566999435424805, -0.7421965599060059, -68.29586029052734],
    [0.01864250935614109, 0.7419639825820923, 1.8571865558624268, -68.92554473876953],
    [0.0, 0.0, 0.0, 1.0]
],
  "dcmmeta_reorient_transform": [
    [0.0, -1.0, 0.0, 103.0],
    [1.0, 0.0, 0.0, 0.0],
    [0.0, 0.0, 1.0, 0.0],
    [0.0, 0.0, 0.0, 1.0]
],
  "dcmmeta_shape": [104, 104, 60, 159],
  "dcmmeta_slice_dim": 2,
  "dcmmeta_version": 0.6,
  "global": {
    "const": {
      "AcquisitionMatrix": [104, 0, 0, 104],
      "AngioFlag": "N",
      "BitsAllocated": 16,
      "BitsStored": 16,
      "BodyPartExamined": "BRAIN",
      "Columns": 832,
      "EchoNumbers": 1,
      "EchoTime": 37.0,
      "EchoTrainLength": 104,
      "FlipAngle": 52.0,
      "HighBit": 15,
      "ImageOrientationPatient": [0.99973030142385, -0.0212706048189, 0.00932125450873, 0.02321084228009, 0.92834994772255, -0.3709819825331],
      "ImagePositionPatient": [-849.33882268125, -783.29799211666, 270.78575129001],
      "ImageType": [
        "ORIGINAL",
        "PRIMARY",
        "M",
        "MB",
        "ND",
        "MOSAIC"
],
      "ImagedNucleus": "1H",
      "ImagingFrequency": 123.259269,
      "InPlanePhaseEncodingDirection": "COL",
      "MRAcquisitionType": "2D",
      "MagneticFieldStrength": 3.0,
      "Manufacturer": "SIEMENS",
      "ManufacturerModelName": "Prisma_fit",
      "Modality": "MR",
      "NumberOfAverages": 1.0,
      "NumberOfPhaseEncodingSteps": 104,
      "PercentPhaseFieldOfView": 100.0,
      "PercentSampling": 100.0,
      "PerformedProcedureStepStartTime": "110606.586000",
      "PhotometricInterpretation": "MONOCHROME2",
      "PixelBandwidth": 2290.0,
      "PixelRepresentation": 0,
      "PixelSpacing": [2.0, 2.0],
      "ProtocolName": "func_task-language_run-1",
      "RepetitionTime": 1490.0,
      "Rows": 832,
      "SAR": 0.03799135274363,
      "SamplesPerPixel": 1,
      "ScanOptions": "FS",
      "ScanningSequence": "EP",
      "SequenceName": "epfid2d1_104",
      "SequenceVariant": [
        "SK",
        "SS"
],
      "SeriesDescription": "func_task-language_run-1",
      "SeriesNumber": 18,
      "SeriesTime": "114821.276000",
      "SliceLocation": -38.583196146952,
      "SliceThickness": 2.0,
      "SmallestImagePixelValue": 0,
      "SoftwareVersions": "syngo MR E11",
      "SpacingBetweenSlices": 1.9999999731566,
      "SpecificCharacterSet": "ISO_IR 100",
      "StudyID": "1",
      "StudyTime": "110606.524000",
      "TransmitCoilName": "Body",
      "VariableFlipAngleFlag": "N",
      "WindowCenterWidthExplanation": "Algo1",
      "dBdt": 0.0},
    "slices": {}
  },
  "time": {
    "samples": {
      "AcquisitionNumber": [1, 2, 3, 4, 5, 6, 7, 8, 9, 10, 11, 12, 13, 14, 15, 16, 17, 18, 19, 20, 21, 22, 23, 24, 25, 26, 27, 28, 29, 30, 31, 32, 33, 34, 35, 36, 37, 38, 39, 40, 41, 42, 43, 44, 45, 46, 47, 48, 49, 50, 51, 52, 53, 54, 55, 56, 57, 58, 59, 60, 61, 62, 63, 64, 65, 66, 67, 68, 69, 70, 71, 72, 73, 74, 75, 76, 77, 78, 79, 80, 81, 82, 83, 84, 85, 86, 87, 88, 89, 90, 91, 92, 93, 94, 95, 96, 97, 98, 99, 100, 101, 102, 103, 104, 105, 106, 107, 108, 109, 110, 111, 112, 113, 114, 115, 116, 117, 118, 119, 120, 121, 122, 123, 124, 125, 126, 127, 128, 129, 130, 131, 132, 133, 134, 135, 136, 137, 138, 139, 140, 141, 142, 143, 144, 145, 146, 147, 148, 149, 150, 151, 152, 153, 154, 155, 156, 157, 158, 159],
      "AcquisitionTime": ["114655.175000", "114656.665000", "114658.155000", "114659.645000", "114701.135000", "114702.625000", "114704.115000", "114705.605000", "114707.095000", "114708.585000", "114710.075000", "114711.565000", "114713.055000", "114714.545000", "114716.035000", "114717.525000", "114719.015000", "114720.505000", "114721.995000", "114723.485000", "114724.975000", "114726.465000", "114727.955000", "114729.445000", "114730.935000", "114732.425000", "114733.915000", "114735.405000", "114736.895000", "114738.385000", "114739.875000", "114741.365000", "114742.855000", "114744.345000", "114745.835000", "114747.325000", "114748.815000", "114750.305000", "114751.795000", "114753.285000", "114754.775000", "114756.265000", "114757.755000", "114759.245000", "114800.735000", "114802.225000", "114803.715000", "114805.205000", "114806.695000", "114808.185000", "114809.675000", "114811.165000", "114812.655000", "114814.145000", "114815.635000", "114817.125000", "114818.615000", "114820.105000", "114821.595000", "114823.085000", "114824.575000", "114826.065000", "114827.555000", "114829.045000", "114830.535000", "114832.025000", "114833.515000", "114835.005000", "114836.495000", "114837.985000", "114839.475000", "114840.965000", "114842.455000", "114843.945000", "114845.435000", "114846.925000", "114848.415000", "114849.905000", "114851.395000", "114852.885000", "114854.375000", "114855.865000", "114857.355000", "114858.845000", "114900.335000", "114901.825000", "114903.315000", "114904.805000", "114906.295000", "114907.785000", "114909.275000", "114910.765000", "114912.255000", "114913.745000", "114915.235000", "114916.725000", "114918.215000", "114919.705000", "114921.195000", "114922.685000", "114924.175000", "114925.665000", "114927.155000", "114928.645000", "114930.135000", "114931.625000", "114933.115000", "114934.605000", "114936.095000", "114937.585000", "114939.075000", "114940.565000", "114942.055000", "114943.545000", "114945.035000", "114946.525000", "114948.015000", "114949.505000", "114950.995000", "114952.485000", "114953.975000", "114955.465000", "114956.955000", "114958.445000", "114959.935000", "115001.425000", "115002.915000", "115004.405000", "115005.895000", "115007.385000", "115008.875000", "115010.365000", "115011.855000", "115013.345000", "115014.835000", "115016.325000", "115017.815000", "115019.305000", "115020.795000", "115022.285000", "115023.775000", "115025.265000", "115026.755000", "115028.245000", "115029.735000", "115031.225000", "115032.715000", "115034.205000", "115035.695000", "115037.185000", "115038.675000", "115040.165000", "115041.655000", "115043.145000", "115044.635000", "115046.125000", "115047.615000", "115049.105000", "115050.595000"],
      "ContentTime": ["114821.279000", "114821.282000", "114821.285000", "114821.288000", "114821.291000", "114821.293000", "114821.296000", "114821.299000", "114821.302000", "114821.305000", "114821.308000", "114821.311000", "114821.313000", "114821.316000", "114821.319000", "114821.322000", "114821.325000", "114821.328000", "114821.337000", "114821.339000", "114821.342000", "114821.345000", "114821.348000", "114821.351000", "114821.354000", "114821.368000", "114821.371000", "114821.374000", "114821.376000", "114821.379000", "114821.382000", "114821.385000", "114841.249000", "114841.252000", "114841.255000", "114841.258000", "114841.261000", "114841.264000", "114841.267000", "114841.276000", "114841.279000", "114841.282000", "114841.284000", "114841.287000", "114841.290000", "114841.293000", "114841.296000", "114841.299000", "114841.302000", "114841.304000", "114841.307000", "114841.310000", "114901.249000", "114901.252000", "114901.255000", "114901.258000", "114901.261000", "114901.263000", "114901.268000", "114901.271000", "114901.274000", "114901.276000", "114901.279000", "114901.282000", "114901.285000", "114901.288000", "114901.291000", "114901.294000", "114901.297000", "114901.299000", "114901.302000", "114901.305000", "114921.249000", "114921.252000", "114921.255000", "114921.258000", "114921.261000", "114921.264000", "114921.266000", "114921.269000", "114921.272000", "114921.275000", "114921.278000", "114921.281000", "114921.283000", "114921.286000", "114921.289000", "114921.306000", "114921.309000", "114921.312000", "114921.315000", "114921.318000", "115001.248000", "115001.251000", "115001.254000", "115001.257000", "115001.260000", "115001.262000", "115001.265000", "115001.268000", "115001.271000", "115001.274000", "115001.277000", "115001.280000", "115001.283000", "115001.286000", "115001.289000", "115001.292000", "115001.294000", "115001.297000", "115001.300000", "115001.303000", "115001.306000", "115001.309000", "115001.312000", "115001.315000", "115001.318000", "115001.321000", "115001.323000", "115001.326000", "115001.329000", "115001.332000", "115001.335000", "115001.338000", "115041.249000", "115041.258000", "115041.261000", "115041.264000", "115041.267000", "115041.270000", "115041.273000", "115041.276000", "115041.279000", "115041.282000", "115041.284000", "115041.287000", "115041.290000", "115041.293000", "115041.296000", "115041.299000", "115041.302000", "115041.305000", "115041.308000", "115041.310000", "115041.313000", "115041.316000", "115041.319000", "115041.322000", "115041.325000", "115041.328000", "115041.331000", "115053.187000", "115053.191000", "115053.194000", "115053.197000", "115053.199000", "115053.202000", "115053.205000", "115053.208000"],
      "InstanceCreationTime": ["114821.279000", "114821.282000", "114821.285000", "114821.288000", "114821.291000", "114821.293000", "114821.296000", "114821.299000", "114821.302000", "114821.305000", "114821.308000", "114821.311000", "114821.313000", "114821.316000", "114821.319000", "114821.322000", "114821.325000", "114821.328000", "114821.337000", "114821.339000", "114821.342000", "114821.345000", "114821.348000", "114821.351000", "114821.354000", "114821.368000", "114821.371000", "114821.374000", "114821.376000", "114821.379000", "114821.382000", "114821.385000", "114841.249000", "114841.252000", "114841.255000", "114841.258000", "114841.261000", "114841.264000", "114841.267000", "114841.276000", "114841.279000", "114841.282000", "114841.284000", "114841.287000", "114841.290000", "114841.293000", "114841.296000", "114841.299000", "114841.302000", "114841.304000", "114841.307000", "114841.310000", "114901.249000", "114901.252000", "114901.255000", "114901.258000", "114901.261000", "114901.263000", "114901.268000", "114901.271000", "114901.274000", "114901.276000", "114901.279000", "114901.282000", "114901.285000", "114901.288000", "114901.291000", "114901.294000", "114901.297000", "114901.299000", "114901.302000", "114901.305000", "114921.249000", "114921.252000", "114921.255000", "114921.258000", "114921.261000", "114921.264000", "114921.266000", "114921.269000", "114921.272000", "114921.275000", "114921.278000", "114921.281000", "114921.283000", "114921.286000", "114921.289000", "114921.306000", "114921.309000", "114921.312000", "114921.315000", "114921.318000", "115001.248000", "115001.251000", "115001.254000", "115001.257000", "115001.260000", "115001.262000", "115001.265000", "115001.268000", "115001.271000", "115001.274000", "115001.277000", "115001.280000", "115001.283000", "115001.286000", "115001.289000", "115001.292000", "115001.294000", "115001.297000", "115001.300000", "115001.303000", "115001.306000", "115001.309000", "115001.312000", "115001.315000", "115001.318000", "115001.321000", "115001.323000", "115001.326000", "115001.329000", "115001.332000", "115001.335000", "115001.338000", "115041.249000", "115041.258000", "115041.261000", "115041.264000", "115041.267000", "115041.270000", "115041.273000", "115041.276000", "115041.279000", "115041.282000", "115041.284000", "115041.287000", "115041.290000", "115041.293000", "115041.296000", "115041.299000", "115041.302000", "115041.305000", "115041.308000", "115041.310000", "115041.313000", "115041.316000", "115041.319000", "115041.322000", "115041.325000", "115041.328000", "115041.331000", "115053.187000", "115053.191000", "115053.194000", "115053.197000", "115053.199000", "115053.202000", "115053.205000", "115053.208000"],
      "InstanceNumber": [1, 2, 3, 4, 5, 6, 7, 8, 9, 10, 11, 12, 13, 14, 15, 16, 17, 18, 19, 20, 21, 22, 23, 24, 25, 26, 27, 28, 29, 30, 31, 32, 33, 34, 35, 36, 37, 38, 39, 40, 41, 42, 43, 44, 45, 46, 47, 48, 49, 50, 51, 52, 53, 54, 55, 56, 57, 58, 59, 60, 61, 62, 63, 64, 65, 66, 67, 68, 69, 70, 71, 72, 73, 74, 75, 76, 77, 78, 79, 80, 81, 82, 83, 84, 85, 86, 87, 88, 89, 90, 91, 92, 93, 94, 95, 96, 97, 98, 99, 100, 101, 102, 103, 104, 105, 106, 107, 108, 109, 110, 111, 112, 113, 114, 115, 116, 117, 118, 119, 120, 121, 122, 123, 124, 125, 126, 127, 128, 129, 130, 131, 132, 133, 134, 135, 136, 137, 138, 139, 140, 141, 142, 143, 144, 145, 146, 147, 148, 149, 150, 151, 152, 153, 154, 155, 156, 157, 158, 159],
      "LargestImagePixelValue": [54561, 53121, 51809, 50173, 50895, 49796, 49908, 49371, 50260, 48733, 49510, 48550, 48982, 48479, 48654, 48495, 48854, 48608, 50036, 50017, 49226, 49084, 49523, 48877, 48661, 49895, 48836, 48713, 48853, 49107, 48567, 49116, 49268, 49153, 49165, 49073, 49368, 48602, 49271, 49259, 48816, 49744, 49398, 49487, 49759, 50061, 49790, 50019, 50599, 49851, 50475, 50032, 49857, 50202, 49564, 49932, 50718, 49757, 50445, 50030, 49990, 49836, 49714, 49649, 49745, 50457, 49085, 48898, 49485, 48992, 48998, 49073, 49592, 49371, 49242, 49154, 48707, 48986, 48925, 49001, 48991, 48661, 50398, 51483, 50792, 50649, 49046, 48408, 48735, 48517, 49011, 49606, 50223, 51285, 51154, 50398, 51367, 49957, 50425, 49848, 49778, 49454, 49297, 49858, 49788, 49811, 49857, 50875, 50733, 50481, 50302, 51070, 51503, 50779, 50720, 50582, 51301, 50664, 50980, 50932, 51060, 50936, 49846, 50251, 50904, 50014, 50188, 51198, 50603, 51171, 51423, 50832, 50322, 50796, 51340, 50692, 51184, 51047, 51189, 50820, 51091, 50980, 50902, 51385, 51216, 51593, 51820, 51728, 51087, 51717, 51313, 51544, 51680, 51336, 51626, 51610, 51433, 51376, 52038],
      "WindowCenter": [10216.0, 10128.0, 10092.0, 10073.0, 10085.0, 10071.0, 10059.0, 10052.0, 10063.0, 10057.0, 10079.0, 10085.0, 10103.0, 10105.0, 10107.0, 10112.0, 10118.0, 10105.0, 10125.0, 10125.0, 10122.0, 10113.0, 10110.0, 10080.0, 10071.0, 10096.0, 10102.0, 10098.0, 10105.0, 10104.0, 10094.0, 10101.0, 10108.0, 10110.0, 10117.0, 10118.0, 10119.0, 10110.0, 10110.0, 10103.0, 10096.0, 10100.0, 10094.0, 10100.0, 10106.0, 10107.0, 10115.0, 10131.0, 10139.0, 10123.0, 10114.0, 10098.0, 10097.0, 10109.0, 10114.0, 10123.0, 10128.0, 10107.0, 10110.0, 10112.0, 10123.0, 10124.0, 10116.0, 10105.0, 10095.0, 10091.0, 10073.0, 10072.0, 10089.0, 10089.0, 10082.0, 10073.0, 10077.0, 10081.0, 10091.0, 10098.0, 10086.0, 10082.0, 10070.0, 10069.0, 10070.0, 10067.0, 10087.0, 10118.0, 10113.0, 10095.0, 10063.0, 10027.0, 10006.0, 9987.0, 9976.0, 9980.0, 10001.0, 10025.0, 10052.0, 10069.0, 10103.0, 10101.0, 10107.0, 10093.0, 10091.0, 10092.0, 10097.0, 10108.0, 10110.0, 10101.0, 10093.0, 10080.0, 10061.0, 10043.0, 10042.0, 10064.0, 10097.0, 10103.0, 10099.0, 10106.0, 10129.0, 10124.0, 10117.0, 10097.0, 10088.0, 10087.0, 10089.0, 10091.0, 10104.0, 10099.0, 10082.0, 10076.0, 10066.0, 10079.0, 10091.0, 10099.0, 10088.0, 10101.0, 10125.0, 10130.0, 10133.0, 10127.0, 10120.0, 10094.0, 10084.0, 10067.0, 10050.0, 10059.0, 10071.0, 10098.0, 10114.0, 10109.0, 10091.0, 10065.0, 10046.0, 10042.0, 10057.0, 10069.0, 10103.0, 10125.0, 10127.0, 10111.0, 10105.0],
      "WindowWidth": [21997.0, 21758.0, 21663.0, 21609.0, 21627.0, 21593.0, 21556.0, 21541.0, 21561.0, 21561.0, 21609.0, 21627.0, 21669.0, 21671.0, 21671.0, 21676.0, 21688.0, 21660.0, 21712.0, 21709.0, 21702.0, 21685.0, 21676.0, 21614.0, 21594.0, 21643.0, 21660.0, 21656.0, 21670.0, 21667.0, 21642.0, 21656.0, 21672.0, 21678.0, 21688.0, 21692.0, 21693.0, 21676.0, 21676.0, 21664.0, 21649.0, 21652.0, 21643.0, 21652.0, 21663.0, 21664.0, 21684.0, 21718.0, 21734.0, 21699.0, 21677.0, 21645.0, 21643.0, 21666.0, 21681.0, 21700.0, 21709.0, 21666.0, 21669.0, 21674.0, 21700.0, 21700.0, 21683.0, 21657.0, 21639.0, 21631.0, 21594.0, 21590.0, 21627.0, 21626.0, 21609.0, 21589.0, 21596.0, 21608.0, 21631.0, 21646.0, 21620.0, 21608.0, 21584.0, 21579.0, 21579.0, 21574.0, 21615.0, 21680.0, 21673.0, 21631.0, 21564.0, 21489.0, 21442.0, 21399.0, 21374.0, 21379.0, 21418.0, 21470.0, 21530.0, 21575.0, 21646.0, 21649.0, 21655.0, 21628.0, 21621.0, 21627.0, 21641.0, 21663.0, 21667.0, 21648.0, 21629.0, 21601.0, 21557.0, 21520.0, 21515.0, 21559.0, 21630.0, 21647.0, 21640.0, 21654.0, 21704.0, 21696.0, 21679.0, 21638.0, 21615.0, 21612.0, 21617.0, 21621.0, 21648.0, 21640.0, 21603.0, 21584.0, 21562.0, 21589.0, 21619.0, 21635.0, 21616.0, 21641.0, 21694.0, 21708.0, 21714.0, 21698.0, 21681.0, 21627.0, 21603.0, 21567.0, 21528.0, 21542.0, 21572.0, 21630.0, 21664.0, 21656.0, 21616.0, 21561.0, 21519.0, 21510.0, 21539.0, 21568.0, 21640.0, 21689.0, 21695.0, 21661.0, 21645.0]
    },
    "slices": {}
  }
}