{
  "AcquisitionMatrixPE": 104,
  "AcquisitionNumber": 1,
  "AcquisitionTime": "12:03:4.387500",
  "BandwidthPerPixelPhaseEncode": 17.17,
  "BaseResolution": 104,
  "BodyPartExamined": "BRAIN",
  "CoilString": "HC1-7;NC1_2",
  "ConsistencyInfo": "N4_VE11C_LATEST_20160120",
  "ConversionSoftware": "dcm2niix",
  "ConversionSoftwareVersion": "v1.0.20190720  (JP2:OpenJPEG) GCC7.3.0",
  "DerivedVendorReportedEchoSpacing": 0.000560011,
  "DeviceSerialNumber": "167006",
  "DwellTime": 2.1e-06,
  "EchoTime": 0.037,
  "EchoTrainLength": 104,
  "EffectiveEchoSpacing": 0.000560011,
  "FlipAngle": 52,
  "ImageComments": "Unaliased_MB4_PE3_LB",
  "ImageOrientationPatientDICOM": [0.99973, -0.0212706, 0.00932125, 0.0232108, 0.92835, -0.370982],
  "ImageType": [
    "ORIGINAL",
    "PRIMARY",
    "M",
    "MB",
    "ND",
    "MOSAIC"
],
  "ImagingFrequency": 123.259,
  "InPlanePhaseEncodingDirectionDICOM": "COL",
  "InstitutionAddress": "Chemin_Queen-Mary_4565_Montreal_District_CA_H3W_1W5",
  "InstitutionName": "IUGM",
  "InstitutionalDepartmentName": "Department",
  "MRAcquisitionType": "2D",
  "MagneticFieldStrength": 3,
  "Manufacturer": "Siemens",
  "ManufacturersModelName": "Prisma_fit",
  "Modality": "MR",
  "MultibandAccelerationFactor": 4,
  "PartialFourier": 1,
  "PatientPosition": "HFS",
  "PercentPhaseFOV": 100,
  "PhaseEncodingDirection": "j",
  "PhaseEncodingSteps": 104,
  "PhaseResolution": 1,
  "PixelBandwidth": 2290,
  "ProcedureStepDescription": "hcptrt_generic",
  "ProtocolName": "func_task-relational_run-1",
  "PulseSequenceDetails": "%CustomerSeq%_cmrr_mbep2d_bold",
  "ReceiveCoilActiveElements": "HC1-7;NC1,2",
  "ReceiveCoilName": "HeadNeck_64",
  "ReconMatrixPE": 104,
  "RepetitionTime": 1.49,
  "SAR": 0.0378423,
  "ScanOptions": "FS",
  "ScanningSequence": "EP",
  "SequenceName": "epfid2d1_104",
  "SequenceVariant": "SK_SS",
  "SeriesDescription": "func_task-relational_run-1",
  "SeriesNumber": 24,
  "ShimSetting": [613, -7274, -8858, 346, 38, -428, -1, 34],
  "SliceThickness": 2,
  "SliceTiming": [0, 0.7825, 0.0975, 0.88, 0.195, 0.98, 0.2925, 1.0775, 0.39, 1.175, 0.49, 1.2725, 0.5875, 1.37, 0.685, 0, 0.7825, 0.0975, 0.88, 0.195, 0.98, 0.2925, 1.0775, 0.39, 1.175, 0.49, 1.2725, 0.5875, 1.37, 0.685, 0, 0.7825, 0.0975, 0.88, 0.195, 0.98, 0.2925, 1.0775, 0.39, 1.175, 0.49, 1.2725, 0.5875, 1.37, 0.685, 0, 0.7825, 0.0975, 0.88, 0.195, 0.98, 0.2925, 1.0775, 0.39, 1.175, 0.49, 1.2725, 0.5875, 1.37, 0.685],
  "SoftwareVersions": "syngo_MR_E11",
  "SpacingBetweenSlices": 2,
  "StationName": "MRC35049",
  "TaskName": "relational",
  "TotalReadoutTime": 0.0576811,
  "TxRefAmp": 243.739,
  "WipMemBlock": "b4417c3b-32eb-4aef-8e44-2785fc9e67ad||Sequence: R016 ve11c/master r/e634e98; Dec 19 2017 11:00:25 by eja",
  "dcmmeta_affine": [
    [-1.9994605779647827, 0.046421684324741364, 0.0015247499104589224, 99.85623931884766],
    [0.04254120960831642, 1.8566999435424805, -0.7421965599060059, -68.29586029052734],
    [0.01864250935614109, 0.7419639825820923, 1.8571865558624268, -68.92554473876953],
    [0.0, 0.0, 0.0, 1.0]
],
  "dcmmeta_reorient_transform": [
    [0.0, -1.0, 0.0, 103.0],
    [1.0, 0.0, 0.0, 0.0],
    [0.0, 0.0, 1.0, 0.0],
    [0.0, 0.0, 0.0, 1.0]
],
  "dcmmeta_shape": [104, 104, 60, 119],
  "dcmmeta_slice_dim": 2,
  "dcmmeta_version": 0.6,
  "global": {
    "const": {
      "AcquisitionMatrix": [104, 0, 0, 104],
      "AngioFlag": "N",
      "BitsAllocated": 16,
      "BitsStored": 16,
      "BodyPartExamined": "BRAIN",
      "Columns": 832,
      "EchoNumbers": 1,
      "EchoTime": 37.0,
      "EchoTrainLength": 104,
      "FlipAngle": 52.0,
      "HighBit": 15,
      "ImageOrientationPatient": [0.99973030142385, -0.0212706048189, 0.00932125450873, 0.02321084228009, 0.92834994772255, -0.3709819825331],
      "ImagePositionPatient": [-849.33882268125, -783.29799211666, 270.78575129001],
      "ImageType": [
        "ORIGINAL",
        "PRIMARY",
        "M",
        "MB",
        "ND",
        "MOSAIC"
],
      "ImagedNucleus": "1H",
      "ImagingFrequency": 123.259274,
      "InPlanePhaseEncodingDirection": "COL",
      "MRAcquisitionType": "2D",
      "MagneticFieldStrength": 3.0,
      "Manufacturer": "SIEMENS",
      "ManufacturerModelName": "Prisma_fit",
      "Modality": "MR",
      "NumberOfAverages": 1.0,
      "NumberOfPhaseEncodingSteps": 104,
      "PercentPhaseFieldOfView": 100.0,
      "PercentSampling": 100.0,
      "PerformedProcedureStepStartTime": "110606.586000",
      "PhotometricInterpretation": "MONOCHROME2",
      "PixelBandwidth": 2290.0,
      "PixelRepresentation": 0,
      "PixelSpacing": [2.0, 2.0],
      "ProtocolName": "func_task-relational_run-1",
      "RepetitionTime": 1490.0,
      "Rows": 832,
      "SAR": 0.0378423223883,
      "SamplesPerPixel": 1,
      "ScanOptions": "FS",
      "ScanningSequence": "EP",
      "SequenceName": "epfid2d1_104",
      "SequenceVariant": [
        "SK",
        "SS"
],
      "SeriesDescription": "func_task-relational_run-1",
      "SeriesNumber": 24,
      "SeriesTime": "120421.280000",
      "SliceLocation": -38.583196146952,
      "SliceThickness": 2.0,
      "SmallestImagePixelValue": 0,
      "SoftwareVersions": "syngo MR E11",
      "SpacingBetweenSlices": 1.9999999731566,
      "SpecificCharacterSet": "ISO_IR 100",
      "StudyID": "1",
      "StudyTime": "110606.524000",
      "TransmitCoilName": "Body",
      "VariableFlipAngleFlag": "N",
      "WindowCenterWidthExplanation": "Algo1",
      "dBdt": 0.0},
    "slices": {}
  },
  "time": {
    "samples": {
      "AcquisitionNumber": [1, 2, 3, 4, 5, 6, 7, 8, 9, 10, 11, 12, 13, 14, 15, 16, 17, 18, 19, 20, 21, 22, 23, 24, 25, 26, 27, 28, 29, 30, 31, 32, 33, 34, 35, 36, 37, 38, 39, 40, 41, 42, 43, 44, 45, 46, 47, 48, 49, 50, 51, 52, 53, 54, 55, 56, 57, 58, 59, 60, 61, 62, 63, 64, 65, 66, 67, 68, 69, 70, 71, 72, 73, 74, 75, 76, 77, 78, 79, 80, 81, 82, 83, 84, 85, 86, 87, 88, 89, 90, 91, 92, 93, 94, 95, 96, 97, 98, 99, 100, 101, 102, 103, 104, 105, 106, 107, 108, 109, 110, 111, 112, 113, 114, 115, 116, 117, 118, 119],
      "AcquisitionTime": ["120304.387500", "120305.877500", "120307.367500", "120308.857500", "120310.347500", "120311.837500", "120313.327500", "120314.817500", "120316.307500", "120317.797500", "120319.287500", "120320.777500", "120322.267500", "120323.757500", "120325.247500", "120326.737500", "120328.227500", "120329.717500", "120331.207500", "120332.697500", "120334.187500", "120335.677500", "120337.167500", "120338.657500", "120340.147500", "120341.637500", "120343.127500", "120344.617500", "120346.107500", "120347.597500", "120349.087500", "120350.577500", "120352.067500", "120353.557500", "120355.047500", "120356.537500", "120358.027500", "120359.517500", "120401.007500", "120402.497500", "120403.987500", "120405.477500", "120406.967500", "120408.457500", "120409.947500", "120411.437500", "120412.927500", "120414.417500", "120415.907500", "120417.397500", "120418.887500", "120420.377500", "120421.867500", "120423.357500", "120424.847500", "120426.337500", "120427.827500", "120429.317500", "120430.807500", "120432.297500", "120433.787500", "120435.277500", "120436.767500", "120438.257500", "120439.747500", "120441.237500", "120442.727500", "120444.217500", "120445.707500", "120447.197500", "120448.687500", "120450.177500", "120451.667500", "120453.157500", "120454.647500", "120456.137500", "120457.627500", "120459.117500", "120500.607500", "120502.097500", "120503.587500", "120505.077500", "120506.567500", "120508.057500", "120509.547500", "120511.037500", "120512.527500", "120514.017500", "120515.507500", "120516.997500", "120518.487500", "120519.977500", "120521.467500", "120522.957500", "120524.447500", "120525.937500", "120527.427500", "120528.917500", "120530.407500", "120531.897500", "120533.387500", "120534.877500", "120536.367500", "120537.857500", "120539.347500", "120540.837500", "120542.327500", "120543.817500", "120545.307500", "120546.797500", "120548.287500", "120549.777500", "120551.267500", "120552.757500", "120554.247500", "120555.737500", "120557.227500", "120558.717500", "120600.207500"],
      "ContentTime": ["120421.283000", "120421.291000", "120421.294000", "120421.297000", "120421.300000", "120421.303000", "120421.306000", "120421.309000", "120421.312000", "120421.315000", "120421.317000", "120421.320000", "120421.323000", "120421.326000", "120421.335000", "120421.338000", "120421.341000", "120421.344000", "120421.347000", "120421.349000", "120421.352000", "120421.355000", "120421.358000", "120421.361000", "120421.364000", "120441.249000", "120441.252000", "120441.255000", "120441.258000", "120441.261000", "120441.264000", "120441.267000", "120441.270000", "120441.273000", "120441.276000", "120441.278000", "120441.281000", "120441.284000", "120441.287000", "120441.290000", "120441.293000", "120441.297000", "120441.302000", "120441.305000", "120441.308000", "120501.249000", "120501.252000", "120501.255000", "120501.258000", "120501.261000", "120501.272000", "120501.275000", "120501.278000", "120501.281000", "120501.284000", "120501.287000", "120501.289000", "120501.292000", "120501.295000", "120501.298000", "120501.301000", "120501.304000", "120501.307000", "120501.310000", "120501.323000", "120521.249000", "120521.252000", "120521.255000", "120521.258000", "120521.261000", "120521.264000", "120521.267000", "120521.269000", "120521.272000", "120521.275000", "120521.278000", "120521.281000", "120521.284000", "120521.287000", "120521.290000", "120521.293000", "120521.296000", "120521.299000", "120521.301000", "120521.312000", "120541.248000", "120541.251000", "120541.254000", "120541.257000", "120541.260000", "120541.263000", "120541.266000", "120541.269000", "120541.272000", "120541.274000", "120541.277000", "120541.283000", "120541.286000", "120541.288000", "120541.291000", "120541.294000", "120541.297000", "120541.300000", "120541.303000", "120541.306000", "120601.963000", "120601.967000", "120601.976000", "120601.979000", "120601.982000", "120601.985000", "120601.989000", "120601.992000", "120601.995000", "120601.998000", "120602.003000", "120602.006000", "120602.009000", "120602.012000"],
      "InstanceCreationTime": ["120421.283000", "120421.291000", "120421.294000", "120421.297000", "120421.300000", "120421.303000", "120421.306000", "120421.309000", "120421.312000", "120421.315000", "120421.317000", "120421.320000", "120421.323000", "120421.326000", "120421.335000", "120421.338000", "120421.341000", "120421.344000", "120421.347000", "120421.349000", "120421.352000", "120421.355000", "120421.358000", "120421.361000", "120421.364000", "120441.249000", "120441.252000", "120441.255000", "120441.258000", "120441.261000", "120441.264000", "120441.267000", "120441.270000", "120441.273000", "120441.276000", "120441.278000", "120441.281000", "120441.284000", "120441.287000", "120441.290000", "120441.293000", "120441.297000", "120441.302000", "120441.305000", "120441.308000", "120501.249000", "120501.252000", "120501.255000", "120501.258000", "120501.261000", "120501.272000", "120501.275000", "120501.278000", "120501.281000", "120501.284000", "120501.287000", "120501.289000", "120501.292000", "120501.295000", "120501.298000", "120501.301000", "120501.304000", "120501.307000", "120501.310000", "120501.323000", "120521.249000", "120521.252000", "120521.255000", "120521.258000", "120521.261000", "120521.264000", "120521.267000", "120521.269000", "120521.272000", "120521.275000", "120521.278000", "120521.281000", "120521.284000", "120521.287000", "120521.290000", "120521.293000", "120521.296000", "120521.299000", "120521.301000", "120521.312000", "120541.248000", "120541.251000", "120541.254000", "120541.257000", "120541.260000", "120541.263000", "120541.266000", "120541.269000", "120541.272000", "120541.274000", "120541.277000", "120541.283000", "120541.286000", "120541.288000", "120541.291000", "120541.294000", "120541.297000", "120541.300000", "120541.303000", "120541.306000", "120601.963000", "120601.967000", "120601.976000", "120601.979000", "120601.982000", "120601.985000", "120601.989000", "120601.992000", "120601.995000", "120601.998000", "120602.003000", "120602.006000", "120602.009000", "120602.012000"],
      "InstanceNumber": [1, 2, 3, 4, 5, 6, 7, 8, 9, 10, 11, 12, 13, 14, 15, 16, 17, 18, 19, 20, 21, 22, 23, 24, 25, 26, 27, 28, 29, 30, 31, 32, 33, 34, 35, 36, 37, 38, 39, 40, 41, 42, 43, 44, 45, 46, 47, 48, 49, 50, 51, 52, 53, 54, 55, 56, 57, 58, 59, 60, 61, 62, 63, 64, 65, 66, 67, 68, 69, 70, 71, 72, 73, 74, 75, 76, 77, 78, 79, 80, 81, 82, 83, 84, 85, 86, 87, 88, 89, 90, 91, 92, 93, 94, 95, 96, 97, 98, 99, 100, 101, 102, 103, 104, 105, 106, 107, 108, 109, 110, 111, 112, 113, 114, 115, 116, 117, 118, 119],
      "LargestImagePixelValue": [57378, 55960, 54739, 54514, 53385, 54816, 53832, 53779, 53884, 53835, 53645, 53248, 53826, 53258, 53837, 53525, 53657, 53822, 53087, 53501, 52698, 53980, 53444, 54237, 53567, 54051, 53728, 53147, 53877, 53727, 53981, 54381, 53536, 53534, 53404, 53391, 53536, 55811, 54060, 53574, 52982, 53356, 52608, 52734, 52493, 52574, 52534, 52894, 53059, 52302, 52557, 52326, 52465, 51416, 52614, 52020, 51743, 52715, 52265, 52399, 52771, 51916, 52617, 52041, 52522, 51972, 51946, 51645, 52233, 51812, 52765, 52820, 52162, 52493, 52687, 51996, 52320, 51708, 51690, 52121, 51898, 51511, 51835, 51784, 51154, 51309, 51556, 51672, 51579, 51811, 51394, 51786, 51365, 51911, 51713, 51862, 52189, 52277, 52631, 51837, 52432, 51842, 52337, 51775, 51865, 52173, 52425, 51871, 52422, 51866, 51780, 51838, 51786, 51716, 51767, 51583, 52543, 52337, 51681],
      "WindowCenter": [10211.0, 10174.0, 10150.0, 10139.0, 10120.0, 10122.0, 10108.0, 10106.0, 10107.0, 10116.0, 10131.0, 10126.0, 10134.0, 10129.0, 10143.0, 10144.0, 10144.0, 10151.0, 10147.0, 10147.0, 10148.0, 10160.0, 10153.0, 10141.0, 10117.0, 10114.0, 10121.0, 10118.0, 10132.0, 10133.0, 10134.0, 10146.0, 10141.0, 10141.0, 10134.0, 10117.0, 10132.0, 10244.0, 10172.0, 10135.0, 10139.0, 10136.0, 10111.0, 10102.0, 10101.0, 10108.0, 10104.0, 10109.0, 10108.0, 10095.0, 10109.0, 10110.0, 10101.0, 10088.0, 10101.0, 10096.0, 10094.0, 10112.0, 10125.0, 10128.0, 10128.0, 10123.0, 10129.0, 10119.0, 10118.0, 10104.0, 10111.0, 10112.0, 10121.0, 10106.0, 10093.0, 10080.0, 10071.0, 10096.0, 10126.0, 10123.0, 10118.0, 10101.0, 10086.0, 10081.0, 10082.0, 10078.0, 10093.0, 10101.0, 10088.0, 10081.0, 10078.0, 10077.0, 10085.0, 10101.0, 10103.0, 10111.0, 10114.0, 10120.0, 10113.0, 10121.0, 10139.0, 10139.0, 10146.0, 10131.0, 10137.0, 10138.0, 10140.0, 10124.0, 10113.0, 10111.0, 10117.0, 10103.0, 10109.0, 10104.0, 10093.0, 10069.0, 10074.0, 10089.0, 10104.0, 10115.0, 10113.0, 10110.0, 10101.0],
      "WindowWidth": [21963.0, 21845.0, 21776.0, 21735.0, 21683.0, 21676.0, 21645.0, 21639.0, 21641.0, 21662.0, 21693.0, 21684.0, 21700.0, 21692.0, 21722.0, 21724.0, 21725.0, 21739.0, 21732.0, 21736.0, 21738.0, 21757.0, 21744.0, 21716.0, 21665.0, 21657.0, 21671.0, 21672.0, 21699.0, 21701.0, 21706.0, 21727.0, 21722.0, 21720.0, 21709.0, 21670.0, 21701.0, 21955.0, 21790.0, 21704.0, 21712.0, 21706.0, 21651.0, 21629.0, 21625.0, 21641.0, 21637.0, 21646.0, 21645.0, 21620.0, 21649.0, 21650.0, 21632.0, 21606.0, 21631.0, 21623.0, 21618.0, 21654.0, 21682.0, 21689.0, 21689.0, 21681.0, 21694.0, 21669.0, 21666.0, 21638.0, 21654.0, 21658.0, 21677.0, 21647.0, 21618.0, 21585.0, 21562.0, 21617.0, 21685.0, 21678.0, 21662.0, 21627.0, 21595.0, 21582.0, 21586.0, 21579.0, 21610.0, 21628.0, 21603.0, 21589.0, 21580.0, 21579.0, 21596.0, 21631.0, 21636.0, 21654.0, 21665.0, 21677.0, 21659.0, 21681.0, 21722.0, 21720.0, 21734.0, 21701.0, 21711.0, 21713.0, 21722.0, 21687.0, 21659.0, 21651.0, 21663.0, 21638.0, 21649.0, 21643.0, 21614.0, 21562.0, 21575.0, 21608.0, 21645.0, 21670.0, 21666.0, 21654.0, 21633.0]
    },
    "slices": {}
  }
}