{
  "AcquisitionMatrixPE": 104,
  "AcquisitionNumber": 1,
  "AcquisitionTime": "11:36:55.495000",
  "BandwidthPerPixelPhaseEncode": 17.17,
  "BaseResolution": 104,
  "BodyPartExamined": "BRAIN",
  "CoilString": "HC1-7;NC1_2",
  "ConsistencyInfo": "N4_VE11C_LATEST_20160120",
  "ConversionSoftware": "dcm2niix",
  "ConversionSoftwareVersion": "v1.0.20190720  (JP2:OpenJPEG) GCC7.3.0",
  "DerivedVendorReportedEchoSpacing": 0.000560011,
  "DeviceSerialNumber": "167006",
  "DwellTime": 2.1e-06,
  "EchoTime": 0.037,
  "EchoTrainLength": 104,
  "EffectiveEchoSpacing": 0.000560011,
  "FlipAngle": 52,
  "ImageComments": "Unaliased_MB4_PE3_LB",
  "ImageOrientationPatientDICOM": [0.99973, -0.0212706, 0.00932125, 0.0232108, 0.92835, -0.370982],
  "ImageType": [
    "ORIGINAL",
    "PRIMARY",
    "M",
    "MB",
    "ND",
    "MOSAIC"
],
  "ImagingFrequency": 123.259,
  "InPlanePhaseEncodingDirectionDICOM": "COL",
  "InstitutionAddress": "Chemin_Queen-Mary_4565_Montreal_District_CA_H3W_1W5",
  "InstitutionName": "IUGM",
  "InstitutionalDepartmentName": "Department",
  "MRAcquisitionType": "2D",
  "MagneticFieldStrength": 3,
  "Manufacturer": "Siemens",
  "ManufacturersModelName": "Prisma_fit",
  "Modality": "MR",
  "MultibandAccelerationFactor": 4,
  "PartialFourier": 1,
  "PatientPosition": "HFS",
  "PercentPhaseFOV": 100,
  "PhaseEncodingDirection": "j",
  "PhaseEncodingSteps": 104,
  "PhaseResolution": 1,
  "PixelBandwidth": 2290,
  "ProcedureStepDescription": "hcptrt_generic",
  "ProtocolName": "func_task-gambling_run-1",
  "PulseSequenceDetails": "%CustomerSeq%_cmrr_mbep2d_bold",
  "ReceiveCoilActiveElements": "HC1-7;NC1,2",
  "ReceiveCoilName": "HeadNeck_64",
  "ReconMatrixPE": 104,
  "RepetitionTime": 1.49,
  "SAR": 0.0378878,
  "ScanOptions": "FS",
  "ScanningSequence": "EP",
  "SequenceName": "epfid2d1_104",
  "SequenceVariant": "SK_SS",
  "SeriesDescription": "func_task-gambling_run-1",
  "SeriesNumber": 14,
  "ShimSetting": [613, -7274, -8858, 346, 38, -428, -1, 34],
  "SliceThickness": 2,
  "SliceTiming": [0, 0.7825, 0.0975, 0.8825, 0.195, 0.98, 0.2925, 1.0775, 0.3925, 1.175, 0.49, 1.2725, 0.5875, 1.3725, 0.685, 0, 0.7825, 0.0975, 0.8825, 0.195, 0.98, 0.2925, 1.0775, 0.3925, 1.175, 0.49, 1.2725, 0.5875, 1.3725, 0.685, 0, 0.7825, 0.0975, 0.8825, 0.195, 0.98, 0.2925, 1.0775, 0.3925, 1.175, 0.49, 1.2725, 0.5875, 1.3725, 0.685, 0, 0.7825, 0.0975, 0.8825, 0.195, 0.98, 0.2925, 1.0775, 0.3925, 1.175, 0.49, 1.2725, 0.5875, 1.3725, 0.685],
  "SoftwareVersions": "syngo_MR_E11",
  "SpacingBetweenSlices": 2,
  "StationName": "MRC35049",
  "TaskName": "gambling",
  "TotalReadoutTime": 0.0576811,
  "TxRefAmp": 243.739,
  "WipMemBlock": "f41837d0-89ca-4e7d-bf8f-f66c3f523b24||Sequence: R016 ve11c/master r/e634e98; Dec 19 2017 11:00:25 by eja",
  "dcmmeta_affine": [
    [-1.9994605779647827, 0.046421684324741364, 0.0015247499104589224, 99.85623931884766],
    [0.04254120960831642, 1.8566999435424805, -0.7421965599060059, -68.29586029052734],
    [0.01864250935614109, 0.7419639825820923, 1.8571865558624268, -68.92554473876953],
    [0.0, 0.0, 0.0, 1.0]
],
  "dcmmeta_reorient_transform": [
    [0.0, -1.0, 0.0, 103.0],
    [1.0, 0.0, 0.0, 0.0],
    [0.0, 0.0, 1.0, 0.0],
    [0.0, 0.0, 0.0, 1.0]
],
  "dcmmeta_shape": [104, 104, 60, 129],
  "dcmmeta_slice_dim": 2,
  "dcmmeta_version": 0.6,
  "global": {
    "const": {
      "AcquisitionMatrix": [104, 0, 0, 104],
      "AngioFlag": "N",
      "BitsAllocated": 16,
      "BitsStored": 16,
      "BodyPartExamined": "BRAIN",
      "Columns": 832,
      "EchoNumbers": 1,
      "EchoTime": 37.0,
      "EchoTrainLength": 104,
      "FlipAngle": 52.0,
      "HighBit": 15,
      "ImageOrientationPatient": [0.99973030142385, -0.0212706048189, 0.00932125450873, 0.02321084228009, 0.92834994772255, -0.3709819825331],
      "ImagePositionPatient": [-849.33882268125, -783.29799211666, 270.78575129001],
      "ImageType": [
        "ORIGINAL",
        "PRIMARY",
        "M",
        "MB",
        "ND",
        "MOSAIC"
],
      "ImagedNucleus": "1H",
      "ImagingFrequency": 123.259265,
      "InPlanePhaseEncodingDirection": "COL",
      "MRAcquisitionType": "2D",
      "MagneticFieldStrength": 3.0,
      "Manufacturer": "SIEMENS",
      "ManufacturerModelName": "Prisma_fit",
      "Modality": "MR",
      "NumberOfAverages": 1.0,
      "NumberOfPhaseEncodingSteps": 104,
      "PercentPhaseFieldOfView": 100.0,
      "PercentSampling": 100.0,
      "PerformedProcedureStepStartTime": "110606.586000",
      "PhotometricInterpretation": "MONOCHROME2",
      "PixelBandwidth": 2290.0,
      "PixelRepresentation": 0,
      "PixelSpacing": [2.0, 2.0],
      "ProtocolName": "func_task-gambling_run-1",
      "RepetitionTime": 1490.0,
      "Rows": 832,
      "SAR": 0.03788779852065,
      "SamplesPerPixel": 1,
      "ScanOptions": "FS",
      "ScanningSequence": "EP",
      "SequenceName": "epfid2d1_104",
      "SequenceVariant": [
        "SK",
        "SS"
],
      "SeriesDescription": "func_task-gambling_run-1",
      "SeriesNumber": 14,
      "SeriesTime": "113826.514000",
      "SliceLocation": -38.583196146952,
      "SliceThickness": 2.0,
      "SmallestImagePixelValue": 0,
      "SoftwareVersions": "syngo MR E11",
      "SpacingBetweenSlices": 1.9999999731566,
      "SpecificCharacterSet": "ISO_IR 100",
      "StudyID": "1",
      "StudyTime": "110606.524000",
      "TransmitCoilName": "Body",
      "VariableFlipAngleFlag": "N",
      "WindowCenterWidthExplanation": "Algo1",
      "dBdt": 0.0},
    "slices": {}
  },
  "time": {
    "samples": {
      "AcquisitionNumber": [1, 2, 3, 4, 5, 6, 7, 8, 9, 10, 11, 12, 13, 14, 15, 16, 17, 18, 19, 20, 21, 22, 23, 24, 25, 26, 27, 28, 29, 30, 31, 32, 33, 34, 35, 36, 37, 38, 39, 40, 41, 42, 43, 44, 45, 46, 47, 48, 49, 50, 51, 52, 53, 54, 55, 56, 57, 58, 59, 60, 61, 62, 63, 64, 65, 66, 67, 68, 69, 70, 71, 72, 73, 74, 75, 76, 77, 78, 79, 80, 81, 82, 83, 84, 85, 86, 87, 88, 89, 90, 91, 92, 93, 94, 95, 96, 97, 98, 99, 100, 101, 102, 103, 104, 105, 106, 107, 108, 109, 110, 111, 112, 113, 114, 115, 116, 117, 118, 119, 120, 121, 122, 123, 124, 125, 126, 127, 128, 129],
      "AcquisitionTime": ["113655.495000", "113656.985000", "113658.475000", "113659.965000", "113701.455000", "113702.945000", "113704.435000", "113705.925000", "113707.415000", "113708.905000", "113710.395000", "113711.885000", "113713.375000", "113714.865000", "113716.355000", "113717.845000", "113719.335000", "113720.825000", "113722.315000", "113723.805000", "113725.295000", "113726.785000", "113728.275000", "113729.765000", "113731.255000", "113732.745000", "113734.235000", "113735.725000", "113737.215000", "113738.705000", "113740.195000", "113741.685000", "113743.175000", "113744.665000", "113746.155000", "113747.645000", "113749.135000", "113750.625000", "113752.115000", "113753.605000", "113755.095000", "113756.585000", "113758.075000", "113759.565000", "113801.055000", "113802.545000", "113804.035000", "113805.525000", "113807.015000", "113808.505000", "113809.995000", "113811.485000", "113812.975000", "113814.465000", "113815.955000", "113817.445000", "113818.935000", "113820.425000", "113821.915000", "113823.405000", "113824.895000", "113826.385000", "113827.875000", "113829.365000", "113830.855000", "113832.345000", "113833.835000", "113835.325000", "113836.815000", "113838.305000", "113839.795000", "113841.285000", "113842.775000", "113844.265000", "113845.755000", "113847.245000", "113848.735000", "113850.225000", "113851.715000", "113853.205000", "113854.695000", "113856.185000", "113857.675000", "113859.165000", "113900.655000", "113902.145000", "113903.635000", "113905.125000", "113906.615000", "113908.105000", "113909.595000", "113911.085000", "113912.575000", "113914.065000", "113915.555000", "113917.045000", "113918.535000", "113920.025000", "113921.515000", "113923.005000", "113924.495000", "113925.985000", "113927.475000", "113928.965000", "113930.455000", "113931.945000", "113933.435000", "113934.925000", "113936.415000", "113937.905000", "113939.395000", "113940.885000", "113942.375000", "113943.865000", "113945.355000", "113946.845000", "113948.335000", "113949.825000", "113951.315000", "113952.805000", "113954.295000", "113955.785000", "113957.275000", "113958.765000", "114000.255000", "114001.745000", "114003.235000", "114004.725000", "114006.215000"],
      "ContentTime": ["113826.517000", "113826.520000", "113826.523000", "113826.526000", "113826.529000", "113826.532000", "113826.534000", "113826.537000", "113826.540000", "113826.543000", "113826.546000", "113826.549000", "113826.552000", "113826.555000", "113826.558000", "113826.561000", "113826.564000", "113826.567000", "113826.570000", "113826.573000", "113826.576000", "113826.579000", "113826.582000", "113826.585000", "113826.588000", "113826.591000", "113826.594000", "113826.597000", "113826.600000", "113826.602000", "113826.605000", "113826.608000", "113826.611000", "113826.614000", "113826.617000", "113826.619000", "113846.487000", "113846.490000", "113846.493000", "113846.496000", "113846.499000", "113846.502000", "113846.504000", "113846.507000", "113846.510000", "113846.513000", "113846.516000", "113846.519000", "113846.522000", "113846.525000", "113846.528000", "113846.531000", "113846.535000", "113846.538000", "113846.541000", "113846.544000", "113906.487000", "113906.490000", "113906.493000", "113906.496000", "113906.498000", "113906.501000", "113906.504000", "113906.507000", "113906.510000", "113906.513000", "113906.516000", "113906.518000", "113906.521000", "113906.524000", "113906.527000", "113906.530000", "113906.533000", "113906.536000", "113906.539000", "113906.542000", "113906.545000", "113926.487000", "113926.490000", "113926.493000", "113926.496000", "113926.499000", "113926.501000", "113926.504000", "113926.507000", "113926.510000", "113926.513000", "113926.516000", "113926.519000", "113926.521000", "113926.524000", "113926.527000", "113926.530000", "113926.533000", "113926.536000", "113926.539000", "113926.542000", "114006.487000", "114006.490000", "114006.493000", "114006.496000", "114006.499000", "114006.501000", "114006.504000", "114006.507000", "114006.510000", "114006.513000", "114006.516000", "114006.519000", "114006.522000", "114006.524000", "114006.527000", "114006.530000", "114006.533000", "114006.536000", "114006.539000", "114006.560000", "114006.564000", "114006.567000", "114006.570000", "114006.573000", "114006.575000", "114006.578000", "114006.581000", "114006.584000", "114006.587000", "114006.590000", "114008.231000", "114008.234000"],
      "InstanceCreationTime": ["113826.517000", "113826.520000", "113826.523000", "113826.526000", "113826.529000", "113826.532000", "113826.534000", "113826.537000", "113826.540000", "113826.543000", "113826.546000", "113826.549000", "113826.552000", "113826.555000", "113826.558000", "113826.561000", "113826.564000", "113826.567000", "113826.570000", "113826.573000", "113826.576000", "113826.579000", "113826.582000", "113826.585000", "113826.588000", "113826.591000", "113826.594000", "113826.597000", "113826.600000", "113826.602000", "113826.605000", "113826.608000", "113826.611000", "113826.614000", "113826.617000", "113826.619000", "113846.487000", "113846.490000", "113846.493000", "113846.496000", "113846.499000", "113846.502000", "113846.504000", "113846.507000", "113846.510000", "113846.513000", "113846.516000", "113846.519000", "113846.522000", "113846.525000", "113846.528000", "113846.531000", "113846.535000", "113846.538000", "113846.541000", "113846.544000", "113906.487000", "113906.490000", "113906.493000", "113906.496000", "113906.498000", "113906.501000", "113906.504000", "113906.507000", "113906.510000", "113906.513000", "113906.516000", "113906.518000", "113906.521000", "113906.524000", "113906.527000", "113906.530000", "113906.533000", "113906.536000", "113906.539000", "113906.542000", "113906.545000", "113926.487000", "113926.490000", "113926.493000", "113926.496000", "113926.499000", "113926.501000", "113926.504000", "113926.507000", "113926.510000", "113926.513000", "113926.516000", "113926.519000", "113926.521000", "113926.524000", "113926.527000", "113926.530000", "113926.533000", "113926.536000", "113926.539000", "113926.542000", "114006.487000", "114006.490000", "114006.493000", "114006.496000", "114006.499000", "114006.501000", "114006.504000", "114006.507000", "114006.510000", "114006.513000", "114006.516000", "114006.519000", "114006.522000", "114006.524000", "114006.527000", "114006.530000", "114006.533000", "114006.536000", "114006.539000", "114006.560000", "114006.564000", "114006.567000", "114006.570000", "114006.573000", "114006.575000", "114006.578000", "114006.581000", "114006.584000", "114006.587000", "114006.590000", "114008.231000", "114008.234000"],
      "InstanceNumber": [1, 2, 3, 4, 5, 6, 7, 8, 9, 10, 11, 12, 13, 14, 15, 16, 17, 18, 19, 20, 21, 22, 23, 24, 25, 26, 27, 28, 29, 30, 31, 32, 33, 34, 35, 36, 37, 38, 39, 40, 41, 42, 43, 44, 45, 46, 47, 48, 49, 50, 51, 52, 53, 54, 55, 56, 57, 58, 59, 60, 61, 62, 63, 64, 65, 66, 67, 68, 69, 70, 71, 72, 73, 74, 75, 76, 77, 78, 79, 80, 81, 82, 83, 84, 85, 86, 87, 88, 89, 90, 91, 92, 93, 94, 95, 96, 97, 98, 99, 100, 101, 102, 103, 104, 105, 106, 107, 108, 109, 110, 111, 112, 113, 114, 115, 116, 117, 118, 119, 120, 121, 122, 123, 124, 125, 126, 127, 128, 129],
      "LargestImagePixelValue": [53576, 51391, 50862, 50465, 50508, 50379, 50368, 49871, 50183, 49886, 49635, 50209, 49944, 49762, 49908, 50396, 50228, 50223, 50086, 50475, 49906, 50303, 50183, 50237, 50090, 50181, 50342, 50335, 50108, 50116, 50111, 49918, 49706, 49573, 49917, 49550, 49646, 49557, 49820, 49702, 50096, 49863, 49941, 50344, 49970, 50207, 50116, 49811, 49503, 49851, 49661, 50167, 50181, 50229, 49927, 49878, 50114, 50029, 49716, 50279, 50214, 49883, 49906, 49775, 50315, 50014, 50269, 49375, 50055, 49602, 49584, 50391, 50227, 50005, 50494, 50268, 50098, 49867, 50076, 50038, 50341, 49892, 49572, 50267, 49942, 49769, 50082, 50089, 50243, 50213, 50255, 49916, 50141, 50648, 50218, 49853, 50146, 49924, 50228, 49995, 50110, 50123, 50259, 49984, 49823, 49990, 50172, 50328, 50006, 50149, 50233, 49680, 49942, 50269, 49799, 49904, 50243, 49410, 49932, 49976, 50075, 50379, 50467, 50130, 50557, 50160, 49682, 49863, 49442],
      "WindowCenter": [10211.0, 10151.0, 10127.0, 10118.0, 10113.0, 10097.0, 10093.0, 10102.0, 10127.0, 10148.0, 10142.0, 10140.0, 10131.0, 10131.0, 10148.0, 10148.0, 10148.0, 10146.0, 10163.0, 10172.0, 10167.0, 10157.0, 10157.0, 10160.0, 10159.0, 10164.0, 10164.0, 10158.0, 10145.0, 10140.0, 10131.0, 10128.0, 10113.0, 10144.0, 10166.0, 10146.0, 10124.0, 10104.0, 10093.0, 10084.0, 10091.0, 10099.0, 10094.0, 10092.0, 10081.0, 10084.0, 10100.0, 10104.0, 10103.0, 10110.0, 10112.0, 10118.0, 10127.0, 10135.0, 10131.0, 10134.0, 10145.0, 10156.0, 10148.0, 10145.0, 10155.0, 10125.0, 10122.0, 10129.0, 10137.0, 10131.0, 10128.0, 10123.0, 10114.0, 10105.0, 10113.0, 10133.0, 10145.0, 10139.0, 10146.0, 10131.0, 10111.0, 10101.0, 10090.0, 10092.0, 10100.0, 10109.0, 10106.0, 10114.0, 10110.0, 10127.0, 10168.0, 10173.0, 10156.0, 10130.0, 10104.0, 10085.0, 10089.0, 10114.0, 10126.0, 10148.0, 10148.0, 10131.0, 10116.0, 10111.0, 10123.0, 10136.0, 10146.0, 10148.0, 10131.0, 10120.0, 10115.0, 10110.0, 10119.0, 10119.0, 10124.0, 10122.0, 10128.0, 10137.0, 10138.0, 10140.0, 10155.0, 10160.0, 10159.0, 10158.0, 10146.0, 10144.0, 10137.0, 10128.0, 10135.0, 10136.0, 10117.0, 10105.0, 10096.0],
      "WindowWidth": [21993.0, 21820.0, 21746.0, 21717.0, 21696.0, 21659.0, 21648.0, 21665.0, 21717.0, 21765.0, 21754.0, 21750.0, 21727.0, 21727.0, 21765.0, 21765.0, 21765.0, 21759.0, 21796.0, 21818.0, 21807.0, 21785.0, 21785.0, 21794.0, 21791.0, 21799.0, 21801.0, 21786.0, 21757.0, 21749.0, 21728.0, 21720.0, 21690.0, 21757.0, 21809.0, 21762.0, 21711.0, 21664.0, 21640.0, 21621.0, 21635.0, 21656.0, 21642.0, 21639.0, 21612.0, 21620.0, 21657.0, 21666.0, 21664.0, 21676.0, 21685.0, 21693.0, 21714.0, 21734.0, 21727.0, 21733.0, 21758.0, 21781.0, 21768.0, 21756.0, 21797.0, 21716.0, 21711.0, 21724.0, 21743.0, 21727.0, 21718.0, 21710.0, 21687.0, 21669.0, 21687.0, 21726.0, 21754.0, 21744.0, 21754.0, 21723.0, 21678.0, 21657.0, 21630.0, 21636.0, 21653.0, 21675.0, 21671.0, 21684.0, 21678.0, 21713.0, 21804.0, 21816.0, 21776.0, 21721.0, 21665.0, 21625.0, 21628.0, 21683.0, 21711.0, 21759.0, 21759.0, 21726.0, 21683.0, 21681.0, 21702.0, 21733.0, 21757.0, 21767.0, 21725.0, 21699.0, 21685.0, 21677.0, 21702.0, 21701.0, 21710.0, 21712.0, 21719.0, 21743.0, 21742.0, 21745.0, 21772.0, 21790.0, 21788.0, 21794.0, 21759.0, 21755.0, 21744.0, 21724.0, 21738.0, 21739.0, 21703.0, 21672.0, 21656.0]
    },
    "slices": {}
  }
}