{
  "AcquisitionMatrixPE": 104,
  "AcquisitionNumber": 1,
  "AcquisitionTime": "10:13:5.030000",
  "BandwidthPerPixelPhaseEncode": 17.17,
  "BaseResolution": 104,
  "BodyPartExamined": "BRAIN",
  "CoilString": "HC1-7;NC1_2",
  "ConsistencyInfo": "N4_VE11C_LATEST_20160120",
  "ConversionSoftware": "dcm2niix",
  "ConversionSoftwareVersion": "v1.0.20200427",
  "DerivedVendorReportedEchoSpacing": 0.000560011,
  "DeviceSerialNumber": "167006",
  "DwellTime": 2.1e-06,
  "EchoTime": 0.037,
  "EchoTrainLength": 104,
  "EffectiveEchoSpacing": 0.000560011,
  "FlipAngle": 52,
  "ImageComments": "Unaliased_MB4_PE3_LB",
  "ImageOrientationPatientDICOM": [0.997992, -0.00387701, -0.0632161, -0.00923188, 0.978559, -0.205758],
  "ImageType": [
    "ORIGINAL",
    "PRIMARY",
    "M",
    "MB",
    "ND",
    "MOSAIC"
],
  "ImagingFrequency": 123.259,
  "InPlanePhaseEncodingDirectionDICOM": "COL",
  "InstitutionAddress": "Chemin_Queen-Mary_4565_Montreal_District_CA_H3W_1W5",
  "InstitutionName": "IUGM",
  "InstitutionalDepartmentName": "Department",
  "MRAcquisitionType": "2D",
  "MagneticFieldStrength": 3,
  "Manufacturer": "Siemens",
  "ManufacturersModelName": "Prisma_fit",
  "Modality": "MR",
  "MultibandAccelerationFactor": 4,
  "PartialFourier": 1,
  "PatientPosition": "HFS",
  "PercentPhaseFOV": 100,
  "PercentSampling": 100,
  "PhaseEncodingDirection": "j",
  "PhaseEncodingSteps": 104,
  "PhaseResolution": 1,
  "PixelBandwidth": 2290,
  "ProcedureStepDescription": "hcptrt_generic",
  "ProtocolName": "func_task-relational_run-2",
  "PulseSequenceDetails": "%CustomerSeq%_cmrr_mbep2d_bold",
  "ReceiveCoilActiveElements": "HC1-7;NC1,2",
  "ReceiveCoilName": "HeadNeck_64",
  "ReconMatrixPE": 104,
  "RepetitionTime": 1.49,
  "SAR": 0.0278555,
  "ScanOptions": "FS",
  "ScanningSequence": "EP",
  "SequenceName": "epfid2d1_104",
  "SequenceVariant": "SK_SS",
  "SeriesDescription": "func_task-relational_run-2",
  "SeriesNumber": 27,
  "ShimSetting": [595, -7251, -8834, 615, -66, -278, -3, 56],
  "SliceThickness": 2,
  "SliceTiming": [0, 0.7825, 0.0975, 0.8825, 0.195, 0.98, 0.2925, 1.0775, 0.3925, 1.175, 0.49, 1.2725, 0.5875, 1.37, 0.685, 0, 0.7825, 0.0975, 0.8825, 0.195, 0.98, 0.2925, 1.0775, 0.3925, 1.175, 0.49, 1.2725, 0.5875, 1.37, 0.685, 0, 0.7825, 0.0975, 0.8825, 0.195, 0.98, 0.2925, 1.0775, 0.3925, 1.175, 0.49, 1.2725, 0.5875, 1.37, 0.685, 0, 0.7825, 0.0975, 0.8825, 0.195, 0.98, 0.2925, 1.0775, 0.3925, 1.175, 0.49, 1.2725, 0.5875, 1.37, 0.685],
  "SoftwareVersions": "syngo_MR_E11",
  "SpacingBetweenSlices": 2,
  "StationName": "MRC35049",
  "TaskName": "relational",
  "TotalReadoutTime": 0.0576811,
  "TxRefAmp": 216.194,
  "WipMemBlock": "c3cef0d7-3911-4fd5-807b-28e9702c1fb4||Sequence: R016 ve11c/master r/e634e98; Dec 19 2017 11:00:25 by eja",
  "dcmmeta_affine": [
    [-1.995984673500061, -0.018463756889104843, -0.12531694769859314, 107.24666595458984],
    [0.0077540138736367226, 1.9571187496185303, -0.4118569493293762, -75.14183807373047],
    [-0.12643228471279144, 0.4115159213542938, 1.953117847442627, -46.070335388183594],
    [0.0, 0.0, 0.0, 1.0]
],
  "dcmmeta_reorient_transform": [
    [0.0, -1.0, 0.0, 103.0],
    [1.0, 0.0, 0.0, 0.0],
    [0.0, 0.0, 1.0, 0.0],
    [0.0, 0.0, 0.0, 1.0]
],
  "dcmmeta_shape": [104, 104, 60, 119],
  "dcmmeta_slice_dim": 2,
  "dcmmeta_version": 0.6,
  "global": {
    "const": {
      "AcquisitionMatrix": [104, 0, 0, 104],
      "AngioFlag": "N",
      "BitsAllocated": 16,
      "BitsStored": 16,
      "BodyPartExamined": "BRAIN",
      "Columns": 832,
      "EchoNumbers": 1,
      "EchoTime": 37.0,
      "EchoTrainLength": 104,
      "FlipAngle": 52.0,
      "HighBit": 15,
      "ImageOrientationPatient": [0.99799232857133, -0.0038770069509, -0.0632161445351, -0.0092318783144, 0.97855936591512, -0.2057579641292],
      "ImagePositionPatient": [-825.16250763256, -836.01014930921, 192.12895718794],
      "ImageType": [
        "ORIGINAL",
        "PRIMARY",
        "M",
        "MB",
        "ND",
        "MOSAIC"
],
      "ImagedNucleus": "1H",
      "ImagingFrequency": 123.259083,
      "InPlanePhaseEncodingDirection": "COL",
      "MRAcquisitionType": "2D",
      "MagneticFieldStrength": 3.0,
      "Manufacturer": "SIEMENS",
      "ManufacturerModelName": "Prisma_fit",
      "Modality": "MR",
      "NumberOfAverages": 1.0,
      "NumberOfPhaseEncodingSteps": 104,
      "PercentPhaseFieldOfView": 100.0,
      "PercentSampling": 100.0,
      "PerformedProcedureStepStartTime": "091713.136000",
      "PhotometricInterpretation": "MONOCHROME2",
      "PixelBandwidth": 2290.0,
      "PixelRepresentation": 0,
      "PixelSpacing": [2.0, 2.0],
      "ProtocolName": "func_task-relational_run-2",
      "RepetitionTime": 1490.0,
      "Rows": 832,
      "SAR": 0.02785553857413,
      "SamplesPerPixel": 1,
      "ScanOptions": "FS",
      "ScanningSequence": "EP",
      "SequenceName": "epfid2d1_104",
      "SequenceVariant": [
        "SK",
        "SS"
],
      "SeriesDescription": "func_task-relational_run-2",
      "SeriesNumber": 27,
      "SeriesTime": "101417.536000",
      "SliceLocation": -36.236466189229,
      "SliceThickness": 2.0,
      "SmallestImagePixelValue": 0,
      "SoftwareVersions": "syngo MR E11",
      "SpacingBetweenSlices": 1.9999999922342,
      "SpecificCharacterSet": "ISO_IR 100",
      "StudyID": "1",
      "StudyTime": "091713.042000",
      "TransmitCoilName": "Body",
      "VariableFlipAngleFlag": "N",
      "WindowCenterWidthExplanation": "Algo1",
      "dBdt": 0.0},
    "slices": {}
  },
  "time": {
    "samples": {
      "AcquisitionNumber": [1, 2, 3, 4, 5, 6, 7, 8, 9, 10, 11, 12, 13, 14, 15, 16, 17, 18, 19, 20, 21, 22, 23, 24, 25, 26, 27, 28, 29, 30, 31, 32, 33, 34, 35, 36, 37, 38, 39, 40, 41, 42, 43, 44, 45, 46, 47, 48, 49, 50, 51, 52, 53, 54, 55, 56, 57, 58, 59, 60, 61, 62, 63, 64, 65, 66, 67, 68, 69, 70, 71, 72, 73, 74, 75, 76, 77, 78, 79, 80, 81, 82, 83, 84, 85, 86, 87, 88, 89, 90, 91, 92, 93, 94, 95, 96, 97, 98, 99, 100, 101, 102, 103, 104, 105, 106, 107, 108, 109, 110, 111, 112, 113, 114, 115, 116, 117, 118, 119],
      "AcquisitionTime": ["101305.030000", "101306.520000", "101308.010000", "101309.500000", "101310.990000", "101312.480000", "101313.970000", "101315.460000", "101316.950000", "101318.440000", "101319.930000", "101321.420000", "101322.910000", "101324.400000", "101325.890000", "101327.380000", "101328.870000", "101330.360000", "101331.850000", "101333.340000", "101334.830000", "101336.320000", "101337.810000", "101339.300000", "101340.790000", "101342.280000", "101343.770000", "101345.260000", "101346.750000", "101348.240000", "101349.730000", "101351.220000", "101352.710000", "101354.200000", "101355.690000", "101357.180000", "101358.670000", "101400.160000", "101401.650000", "101403.140000", "101404.630000", "101406.120000", "101407.610000", "101409.100000", "101410.590000", "101412.080000", "101413.570000", "101415.060000", "101416.550000", "101418.040000", "101419.530000", "101421.020000", "101422.510000", "101424.000000", "101425.490000", "101426.980000", "101428.470000", "101429.960000", "101431.450000", "101432.940000", "101434.430000", "101435.920000", "101437.410000", "101438.900000", "101440.390000", "101441.880000", "101443.370000", "101444.860000", "101446.350000", "101447.840000", "101449.330000", "101450.820000", "101452.310000", "101453.800000", "101455.290000", "101456.780000", "101458.270000", "101459.760000", "101501.250000", "101502.740000", "101504.230000", "101505.720000", "101507.210000", "101508.700000", "101510.190000", "101511.680000", "101513.170000", "101514.660000", "101516.150000", "101517.640000", "101519.130000", "101520.620000", "101522.110000", "101523.600000", "101525.090000", "101526.580000", "101528.070000", "101529.560000", "101531.050000", "101532.540000", "101534.030000", "101535.520000", "101537.010000", "101538.500000", "101539.990000", "101541.480000", "101542.970000", "101544.460000", "101545.950000", "101547.440000", "101548.930000", "101550.420000", "101551.910000", "101553.400000", "101554.890000", "101556.380000", "101557.870000", "101559.360000", "101600.850000"],
      "ContentTime": ["101417.539000", "101417.542000", "101417.545000", "101417.548000", "101417.551000", "101417.554000", "101417.557000", "101417.560000", "101417.563000", "101417.566000", "101417.569000", "101417.578000", "101417.585000", "101417.588000", "101417.591000", "101417.594000", "101417.597000", "101417.600000", "101417.603000", "101417.606000", "101437.509000", "101437.512000", "101437.515000", "101437.518000", "101437.521000", "101437.524000", "101437.527000", "101437.530000", "101437.533000", "101437.536000", "101437.539000", "101437.542000", "101437.545000", "101437.549000", "101437.552000", "101437.555000", "101437.558000", "101437.561000", "101437.564000", "101437.567000", "101457.509000", "101457.512000", "101457.515000", "101457.518000", "101457.521000", "101457.524000", "101457.527000", "101457.530000", "101457.533000", "101457.536000", "101457.539000", "101457.542000", "101457.545000", "101457.548000", "101457.551000", "101457.554000", "101457.557000", "101457.560000", "101457.564000", "101457.567000", "101517.509000", "101517.512000", "101517.515000", "101517.518000", "101517.521000", "101517.524000", "101517.527000", "101517.530000", "101517.533000", "101517.536000", "101517.539000", "101517.542000", "101517.545000", "101517.548000", "101517.551000", "101517.554000", "101517.557000", "101517.560000", "101517.563000", "101517.566000", "101517.569000", "101537.510000", "101537.513000", "101537.516000", "101537.519000", "101537.522000", "101537.525000", "101537.528000", "101537.531000", "101537.534000", "101537.537000", "101537.540000", "101537.543000", "101537.546000", "101537.549000", "101537.552000", "101537.555000", "101537.558000", "101537.562000", "101537.564000", "101537.567000", "101603.095000", "101603.099000", "101603.102000", "101603.105000", "101603.108000", "101603.111000", "101603.114000", "101603.117000", "101603.120000", "101603.123000", "101603.126000", "101603.129000", "101603.132000", "101603.136000", "101603.139000", "101603.142000", "101603.145000", "101603.148000"],
      "InstanceCreationTime": ["101417.539000", "101417.542000", "101417.545000", "101417.548000", "101417.551000", "101417.554000", "101417.557000", "101417.560000", "101417.563000", "101417.566000", "101417.569000", "101417.578000", "101417.585000", "101417.588000", "101417.591000", "101417.594000", "101417.597000", "101417.600000", "101417.603000", "101417.606000", "101437.509000", "101437.512000", "101437.515000", "101437.518000", "101437.521000", "101437.524000", "101437.527000", "101437.530000", "101437.533000", "101437.536000", "101437.539000", "101437.542000", "101437.545000", "101437.549000", "101437.552000", "101437.555000", "101437.558000", "101437.561000", "101437.564000", "101437.567000", "101457.509000", "101457.512000", "101457.515000", "101457.518000", "101457.521000", "101457.524000", "101457.527000", "101457.530000", "101457.533000", "101457.536000", "101457.539000", "101457.542000", "101457.545000", "101457.548000", "101457.551000", "101457.554000", "101457.557000", "101457.560000", "101457.564000", "101457.567000", "101517.509000", "101517.512000", "101517.515000", "101517.518000", "101517.521000", "101517.524000", "101517.527000", "101517.530000", "101517.533000", "101517.536000", "101517.539000", "101517.542000", "101517.545000", "101517.548000", "101517.551000", "101517.554000", "101517.557000", "101517.560000", "101517.563000", "101517.566000", "101517.569000", "101537.510000", "101537.513000", "101537.516000", "101537.519000", "101537.522000", "101537.525000", "101537.528000", "101537.531000", "101537.534000", "101537.537000", "101537.540000", "101537.543000", "101537.546000", "101537.549000", "101537.552000", "101537.555000", "101537.558000", "101537.562000", "101537.564000", "101537.567000", "101603.095000", "101603.099000", "101603.102000", "101603.105000", "101603.108000", "101603.111000", "101603.114000", "101603.117000", "101603.120000", "101603.123000", "101603.126000", "101603.129000", "101603.132000", "101603.136000", "101603.139000", "101603.142000", "101603.145000", "101603.148000"],
      "InstanceNumber": [1, 2, 3, 4, 5, 6, 7, 8, 9, 10, 11, 12, 13, 14, 15, 16, 17, 18, 19, 20, 21, 22, 23, 24, 25, 26, 27, 28, 29, 30, 31, 32, 33, 34, 35, 36, 37, 38, 39, 40, 41, 42, 43, 44, 45, 46, 47, 48, 49, 50, 51, 52, 53, 54, 55, 56, 57, 58, 59, 60, 61, 62, 63, 64, 65, 66, 67, 68, 69, 70, 71, 72, 73, 74, 75, 76, 77, 78, 79, 80, 81, 82, 83, 84, 85, 86, 87, 88, 89, 90, 91, 92, 93, 94, 95, 96, 97, 98, 99, 100, 101, 102, 103, 104, 105, 106, 107, 108, 109, 110, 111, 112, 113, 114, 115, 116, 117, 118, 119],
      "LargestImagePixelValue": [44473, 43308, 42792, 42101, 41854, 41404, 41569, 41494, 41178, 41404, 41478, 41204, 41585, 41394, 41079, 41110, 41090, 41766, 41403, 41450, 41373, 41425, 41598, 40945, 41342, 41607, 41226, 41716, 41306, 42372, 41554, 41859, 41743, 41401, 41649, 41221, 41538, 41414, 41366, 41723, 41497, 42182, 41743, 41791, 41956, 41601, 41630, 41452, 41671, 41447, 41726, 42133, 41849, 41858, 42138, 41853, 42042, 41787, 41834, 41450, 41767, 41619, 42064, 41936, 41319, 41894, 42036, 41727, 42455, 42276, 41227, 42564, 41678, 42443, 41737, 42792, 42238, 42208, 42360, 42669, 42383, 42384, 42393, 42640, 42458, 42455, 42717, 42647, 42452, 42454, 42676, 42772, 42625, 42887, 42731, 42913, 43289, 43000, 43183, 42733, 42870, 42737, 43050, 43050, 42562, 42209, 42510, 41809, 42532, 42143, 42324, 42167, 42381, 42389, 42771, 43159, 42051, 41457, 42254],
      "WindowCenter": [10040.0, 9999.0, 9979.0, 9968.0, 9961.0, 9960.0, 9966.0, 9970.0, 9968.0, 9970.0, 9969.0, 9960.0, 9974.0, 9976.0, 9971.0, 9974.0, 9965.0, 9968.0, 9960.0, 9968.0, 9961.0, 9967.0, 9975.0, 9970.0, 9970.0, 9967.0, 9961.0, 9960.0, 9962.0, 9966.0, 9967.0, 9969.0, 9957.0, 9941.0, 9949.0, 9950.0, 9958.0, 9960.0, 9960.0, 9958.0, 9950.0, 9962.0, 9953.0, 9967.0, 9975.0, 9970.0, 9968.0, 9967.0, 9967.0, 9968.0, 9966.0, 9959.0, 9950.0, 9955.0, 9956.0, 9964.0, 9964.0, 9973.0, 9975.0, 9967.0, 9976.0, 9969.0, 9974.0, 9976.0, 9976.0, 9976.0, 9974.0, 9962.0, 9971.0, 9967.0, 9969.0, 9983.0, 9971.0, 9973.0, 9959.0, 9979.0, 9968.0, 9957.0, 9949.0, 9954.0, 9963.0, 9982.0, 9985.0, 9985.0, 9984.0, 9974.0, 9977.0, 9983.0, 9976.0, 9973.0, 9967.0, 9965.0, 9972.0, 9981.0, 9981.0, 9983.0, 9981.0, 9973.0, 9981.0, 9965.0, 9971.0, 9979.0, 9981.0, 9989.0, 9974.0, 9967.0, 9966.0, 9959.0, 9965.0, 9965.0, 9967.0, 9966.0, 9959.0, 9958.0, 9970.0, 9980.0, 9968.0, 9970.0, 9978.0],
      "WindowWidth": [21482.0, 21364.0, 21303.0, 21268.0, 21250.0, 21247.0, 21255.0, 21266.0, 21260.0, 21264.0, 21262.0, 21242.0, 21270.0, 21279.0, 21270.0, 21276.0, 21255.0, 21258.0, 21240.0, 21256.0, 21245.0, 21255.0, 21273.0, 21266.0, 21262.0, 21257.0, 21244.0, 21242.0, 21245.0, 21254.0, 21254.0, 21258.0, 21234.0, 21200.0, 21216.0, 21221.0, 21238.0, 21244.0, 21244.0, 21237.0, 21220.0, 21242.0, 21228.0, 21257.0, 21272.0, 21263.0, 21259.0, 21255.0, 21256.0, 21259.0, 21252.0, 21236.0, 21218.0, 21225.0, 21232.0, 21249.0, 21250.0, 21265.0, 21272.0, 21256.0, 21277.0, 21264.0, 21272.0, 21276.0, 21279.0, 21279.0, 21273.0, 21245.0, 21261.0, 21256.0, 21262.0, 21290.0, 21267.0, 21266.0, 21237.0, 21277.0, 21257.0, 21230.0, 21211.0, 21220.0, 21242.0, 21285.0, 21295.0, 21294.0, 21287.0, 21265.0, 21275.0, 21288.0, 21275.0, 21265.0, 21250.0, 21246.0, 21262.0, 21283.0, 21283.0, 21289.0, 21283.0, 21265.0, 21280.0, 21250.0, 21260.0, 21278.0, 21283.0, 21300.0, 21269.0, 21258.0, 21251.0, 21238.0, 21248.0, 21249.0, 21254.0, 21253.0, 21237.0, 21232.0, 21255.0, 21276.0, 21257.0, 21266.0, 21279.0]
    },
    "slices": {}
  }
}