{
  "AcquisitionMatrixPE": 104,
  "AcquisitionNumber": 1,
  "AcquisitionTime": "09:40:37.432500",
  "BandwidthPerPixelPhaseEncode": 17.17,
  "BaseResolution": 104,
  "BodyPartExamined": "BRAIN",
  "CoilString": "HC1-7;NC1_2",
  "ConsistencyInfo": "N4_VE11C_LATEST_20160120",
  "ConversionSoftware": "dcm2niix",
  "ConversionSoftwareVersion": "v1.0.20200427",
  "DerivedVendorReportedEchoSpacing": 0.000560011,
  "DeviceSerialNumber": "167006",
  "DwellTime": 2.1e-06,
  "EchoTime": 0.037,
  "EchoTrainLength": 104,
  "EffectiveEchoSpacing": 0.000560011,
  "FlipAngle": 52,
  "ImageComments": "Unaliased_MB4_PE3_LB",
  "ImageOrientationPatientDICOM": [0.997992, -0.00387701, -0.0632161, -0.00923188, 0.978559, -0.205758],
  "ImageType": [
    "ORIGINAL",
    "PRIMARY",
    "M",
    "MB",
    "ND",
    "MOSAIC"
],
  "ImagingFrequency": 123.259,
  "InPlanePhaseEncodingDirectionDICOM": "COL",
  "InstitutionAddress": "Chemin_Queen-Mary_4565_Montreal_District_CA_H3W_1W5",
  "InstitutionName": "IUGM",
  "InstitutionalDepartmentName": "Department",
  "MRAcquisitionType": "2D",
  "MagneticFieldStrength": 3,
  "Manufacturer": "Siemens",
  "ManufacturersModelName": "Prisma_fit",
  "Modality": "MR",
  "MultibandAccelerationFactor": 4,
  "PartialFourier": 1,
  "PatientPosition": "HFS",
  "PercentPhaseFOV": 100,
  "PercentSampling": 100,
  "PhaseEncodingDirection": "j",
  "PhaseEncodingSteps": 104,
  "PhaseResolution": 1,
  "PixelBandwidth": 2290,
  "ProcedureStepDescription": "hcptrt_generic",
  "ProtocolName": "func_task-gambling_run-1",
  "PulseSequenceDetails": "%CustomerSeq%_cmrr_mbep2d_bold",
  "ReceiveCoilActiveElements": "HC1-7;NC1,2",
  "ReceiveCoilName": "HeadNeck_64",
  "ReconMatrixPE": 104,
  "RepetitionTime": 1.49,
  "SAR": 0.027889,
  "ScanOptions": "FS",
  "ScanningSequence": "EP",
  "SequenceName": "epfid2d1_104",
  "SequenceVariant": "SK_SS",
  "SeriesDescription": "func_task-gambling_run-1",
  "SeriesNumber": 11,
  "ShimSetting": [595, -7251, -8834, 615, -66, -278, -3, 56],
  "SliceThickness": 2,
  "SliceTiming": [0, 0.7825, 0.0975, 0.88, 0.195, 0.98, 0.2925, 1.0775, 0.39, 1.175, 0.49, 1.2725, 0.5875, 1.37, 0.685, 0, 0.7825, 0.0975, 0.88, 0.195, 0.98, 0.2925, 1.0775, 0.39, 1.175, 0.49, 1.2725, 0.5875, 1.37, 0.685, 0, 0.7825, 0.0975, 0.88, 0.195, 0.98, 0.2925, 1.0775, 0.39, 1.175, 0.49, 1.2725, 0.5875, 1.37, 0.685, 0, 0.7825, 0.0975, 0.88, 0.195, 0.98, 0.2925, 1.0775, 0.39, 1.175, 0.49, 1.2725, 0.5875, 1.37, 0.685],
  "SoftwareVersions": "syngo_MR_E11",
  "SpacingBetweenSlices": 2,
  "StationName": "MRC35049",
  "TaskName": "gambling",
  "TotalReadoutTime": 0.0576811,
  "TxRefAmp": 216.194,
  "WipMemBlock": "ff3e84eb-891d-4848-b8ed-5fc6f68d2c5f||Sequence: R016 ve11c/master r/e634e98; Dec 19 2017 11:00:25 by eja",
  "dcmmeta_affine": [
    [-1.995984673500061, -0.018463756889104843, -0.12531694769859314, 107.24666595458984],
    [0.0077540138736367226, 1.9571187496185303, -0.4118569493293762, -75.14183807373047],
    [-0.12643228471279144, 0.4115159213542938, 1.953117847442627, -46.070335388183594],
    [0.0, 0.0, 0.0, 1.0]
],
  "dcmmeta_reorient_transform": [
    [0.0, -1.0, 0.0, 103.0],
    [1.0, 0.0, 0.0, 0.0],
    [0.0, 0.0, 1.0, 0.0],
    [0.0, 0.0, 0.0, 1.0]
],
  "dcmmeta_shape": [104, 104, 60, 129],
  "dcmmeta_slice_dim": 2,
  "dcmmeta_version": 0.6,
  "global": {
    "const": {
      "AcquisitionMatrix": [104, 0, 0, 104],
      "AngioFlag": "N",
      "BitsAllocated": 16,
      "BitsStored": 16,
      "BodyPartExamined": "BRAIN",
      "Columns": 832,
      "EchoNumbers": 1,
      "EchoTime": 37.0,
      "EchoTrainLength": 104,
      "FlipAngle": 52.0,
      "HighBit": 15,
      "ImageOrientationPatient": [0.99799232857133, -0.0038770069509, -0.0632161445351, -0.0092318783144, 0.97855936591512, -0.2057579641292],
      "ImagePositionPatient": [-825.16250763256, -836.01014930921, 192.12895718794],
      "ImageType": [
        "ORIGINAL",
        "PRIMARY",
        "M",
        "MB",
        "ND",
        "MOSAIC"
],
      "ImagedNucleus": "1H",
      "ImagingFrequency": 123.259074,
      "InPlanePhaseEncodingDirection": "COL",
      "MRAcquisitionType": "2D",
      "MagneticFieldStrength": 3.0,
      "Manufacturer": "SIEMENS",
      "ManufacturerModelName": "Prisma_fit",
      "Modality": "MR",
      "NumberOfAverages": 1.0,
      "NumberOfPhaseEncodingSteps": 104,
      "PercentPhaseFieldOfView": 100.0,
      "PercentSampling": 100.0,
      "PerformedProcedureStepStartTime": "091713.136000",
      "PhotometricInterpretation": "MONOCHROME2",
      "PixelBandwidth": 2290.0,
      "PixelRepresentation": 0,
      "PixelSpacing": [2.0, 2.0],
      "ProtocolName": "func_task-gambling_run-1",
      "RepetitionTime": 1490.0,
      "Rows": 832,
      "SAR": 0.02788901154699,
      "SamplesPerPixel": 1,
      "ScanOptions": "FS",
      "ScanningSequence": "EP",
      "SequenceName": "epfid2d1_104",
      "SequenceVariant": [
        "SK",
        "SS"
],
      "SeriesDescription": "func_task-gambling_run-1",
      "SeriesNumber": 11,
      "SeriesTime": "094141.457000",
      "SliceLocation": -36.236466189229,
      "SliceThickness": 2.0,
      "SmallestImagePixelValue": 0,
      "SoftwareVersions": "syngo MR E11",
      "SpacingBetweenSlices": 1.9999999922342,
      "SpecificCharacterSet": "ISO_IR 100",
      "StudyID": "1",
      "StudyTime": "091713.042000",
      "TransmitCoilName": "Body",
      "VariableFlipAngleFlag": "N",
      "WindowCenterWidthExplanation": "Algo1",
      "dBdt": 0.0},
    "slices": {}
  },
  "time": {
    "samples": {
      "AcquisitionNumber": [1, 2, 3, 4, 5, 6, 7, 8, 9, 10, 11, 12, 13, 14, 15, 16, 17, 18, 19, 20, 21, 22, 23, 24, 25, 26, 27, 28, 29, 30, 31, 32, 33, 34, 35, 36, 37, 38, 39, 40, 41, 42, 43, 44, 45, 46, 47, 48, 49, 50, 51, 52, 53, 54, 55, 56, 57, 58, 59, 60, 61, 62, 63, 64, 65, 66, 67, 68, 69, 70, 71, 72, 73, 74, 75, 76, 77, 78, 79, 80, 81, 82, 83, 84, 85, 86, 87, 88, 89, 90, 91, 92, 93, 94, 95, 96, 97, 98, 99, 100, 101, 102, 103, 104, 105, 106, 107, 108, 109, 110, 111, 112, 113, 114, 115, 116, 117, 118, 119, 120, 121, 122, 123, 124, 125, 126, 127, 128, 129],
      "AcquisitionTime": ["094037.432500", "094038.922500", "094040.412500", "094041.902500", "094043.392500", "094044.882500", "094046.372500", "094047.862500", "094049.352500", "094050.842500", "094052.332500", "094053.822500", "094055.312500", "094056.802500", "094058.292500", "094059.782500", "094101.272500", "094102.762500", "094104.252500", "094105.742500", "094107.232500", "094108.722500", "094110.212500", "094111.702500", "094113.192500", "094114.682500", "094116.172500", "094117.662500", "094119.152500", "094120.642500", "094122.132500", "094123.622500", "094125.112500", "094126.602500", "094128.092500", "094129.582500", "094131.072500", "094132.562500", "094134.052500", "094135.542500", "094137.032500", "094138.522500", "094140.012500", "094141.502500", "094142.992500", "094144.482500", "094145.972500", "094147.462500", "094148.952500", "094150.442500", "094151.932500", "094153.422500", "094154.912500", "094156.402500", "094157.892500", "094159.382500", "094200.872500", "094202.362500", "094203.852500", "094205.342500", "094206.832500", "094208.322500", "094209.812500", "094211.302500", "094212.792500", "094214.282500", "094215.772500", "094217.262500", "094218.752500", "094220.242500", "094221.732500", "094223.222500", "094224.712500", "094226.202500", "094227.692500", "094229.182500", "094230.672500", "094232.162500", "094233.652500", "094235.142500", "094236.632500", "094238.122500", "094239.612500", "094241.102500", "094242.592500", "094244.082500", "094245.572500", "094247.062500", "094248.552500", "094250.042500", "094251.532500", "094253.022500", "094254.512500", "094256.002500", "094257.492500", "094258.982500", "094300.472500", "094301.962500", "094303.452500", "094304.942500", "094306.432500", "094307.922500", "094309.412500", "094310.902500", "094312.392500", "094313.882500", "094315.372500", "094316.862500", "094318.352500", "094319.842500", "094321.332500", "094322.822500", "094324.312500", "094325.802500", "094327.292500", "094328.782500", "094330.272500", "094331.762500", "094333.252500", "094334.742500", "094336.232500", "094337.722500", "094339.212500", "094340.702500", "094342.192500", "094343.682500", "094345.172500", "094346.662500", "094348.152500"],
      "ContentTime": ["094141.460000", "094141.464000", "094141.467000", "094141.470000", "094141.473000", "094141.476000", "094141.490000", "094141.493000", "094201.431000", "094201.434000", "094201.437000", "094201.440000", "094201.443000", "094201.446000", "094201.449000", "094201.452000", "094201.455000", "094201.458000", "094201.461000", "094201.464000", "094201.467000", "094201.470000", "094201.473000", "094201.476000", "094201.479000", "094201.482000", "094201.485000", "094201.488000", "094201.494000", "094221.431000", "094221.434000", "094221.437000", "094221.440000", "094221.443000", "094221.446000", "094221.449000", "094221.452000", "094221.455000", "094221.458000", "094221.461000", "094221.464000", "094221.467000", "094221.470000", "094221.473000", "094221.476000", "094221.479000", "094221.482000", "094221.485000", "094221.488000", "094241.431000", "094241.434000", "094241.437000", "094241.440000", "094241.443000", "094241.447000", "094241.449000", "094241.452000", "094241.455000", "094241.458000", "094241.461000", "094241.464000", "094241.467000", "094241.470000", "094241.473000", "094241.476000", "094241.479000", "094241.483000", "094241.485000", "094241.488000", "094301.431000", "094301.434000", "094301.437000", "094301.440000", "094301.443000", "094301.446000", "094301.449000", "094301.452000", "094301.455000", "094301.458000", "094301.461000", "094301.464000", "094301.467000", "094301.470000", "094301.473000", "094301.476000", "094301.479000", "094301.482000", "094301.485000", "094301.488000", "094321.431000", "094321.434000", "094321.437000", "094321.440000", "094321.443000", "094321.446000", "094321.449000", "094321.452000", "094321.455000", "094321.458000", "094321.461000", "094321.464000", "094321.467000", "094321.470000", "094321.473000", "094321.476000", "094321.479000", "094321.482000", "094321.485000", "094321.488000", "094350.104000", "094350.108000", "094350.111000", "094350.114000", "094350.117000", "094350.120000", "094350.123000", "094350.126000", "094350.130000", "094350.133000", "094350.136000", "094350.139000", "094350.142000", "094350.146000", "094350.149000", "094350.155000", "094350.158000", "094350.161000", "094350.164000", "094350.167000"],
      "InstanceCreationTime": ["094141.460000", "094141.464000", "094141.467000", "094141.470000", "094141.473000", "094141.476000", "094141.490000", "094141.493000", "094201.431000", "094201.434000", "094201.437000", "094201.440000", "094201.443000", "094201.446000", "094201.449000", "094201.452000", "094201.455000", "094201.458000", "094201.461000", "094201.464000", "094201.467000", "094201.470000", "094201.473000", "094201.476000", "094201.479000", "094201.482000", "094201.485000", "094201.488000", "094201.494000", "094221.431000", "094221.434000", "094221.437000", "094221.440000", "094221.443000", "094221.446000", "094221.449000", "094221.452000", "094221.455000", "094221.458000", "094221.461000", "094221.464000", "094221.467000", "094221.470000", "094221.473000", "094221.476000", "094221.479000", "094221.482000", "094221.485000", "094221.488000", "094241.431000", "094241.434000", "094241.437000", "094241.440000", "094241.443000", "094241.447000", "094241.449000", "094241.452000", "094241.455000", "094241.458000", "094241.461000", "094241.464000", "094241.467000", "094241.470000", "094241.473000", "094241.476000", "094241.479000", "094241.483000", "094241.485000", "094241.488000", "094301.431000", "094301.434000", "094301.437000", "094301.440000", "094301.443000", "094301.446000", "094301.449000", "094301.452000", "094301.455000", "094301.458000", "094301.461000", "094301.464000", "094301.467000", "094301.470000", "094301.473000", "094301.476000", "094301.479000", "094301.482000", "094301.485000", "094301.488000", "094321.431000", "094321.434000", "094321.437000", "094321.440000", "094321.443000", "094321.446000", "094321.449000", "094321.452000", "094321.455000", "094321.458000", "094321.461000", "094321.464000", "094321.467000", "094321.470000", "094321.473000", "094321.476000", "094321.479000", "094321.482000", "094321.485000", "094321.488000", "094350.104000", "094350.108000", "094350.111000", "094350.114000", "094350.117000", "094350.120000", "094350.123000", "094350.126000", "094350.130000", "094350.133000", "094350.136000", "094350.139000", "094350.142000", "094350.146000", "094350.149000", "094350.155000", "094350.158000", "094350.161000", "094350.164000", "094350.167000"],
      "InstanceNumber": [1, 2, 3, 4, 5, 6, 7, 8, 9, 10, 11, 12, 13, 14, 15, 16, 17, 18, 19, 20, 21, 22, 23, 24, 25, 26, 27, 28, 29, 30, 31, 32, 33, 34, 35, 36, 37, 38, 39, 40, 41, 42, 43, 44, 45, 46, 47, 48, 49, 50, 51, 52, 53, 54, 55, 56, 57, 58, 59, 60, 61, 62, 63, 64, 65, 66, 67, 68, 69, 70, 71, 72, 73, 74, 75, 76, 77, 78, 79, 80, 81, 82, 83, 84, 85, 86, 87, 88, 89, 90, 91, 92, 93, 94, 95, 96, 97, 98, 99, 100, 101, 102, 103, 104, 105, 106, 107, 108, 109, 110, 111, 112, 113, 114, 115, 116, 117, 118, 119, 120, 121, 122, 123, 124, 125, 126, 127, 128, 129],
      "LargestImagePixelValue": [44332, 43144, 42549, 41614, 41617, 41279, 41280, 41326, 40903, 41377, 41108, 40916, 41241, 41014, 41329, 41325, 41312, 41494, 41200, 40949, 41537, 40973, 41191, 41279, 40830, 41030, 41141, 41379, 41760, 41271, 41615, 41324, 40925, 41773, 41291, 41738, 41621, 41342, 41574, 40680, 41107, 41306, 41263, 41458, 41116, 41304, 41852, 41462, 41416, 41515, 41665, 41452, 41487, 41417, 42049, 41718, 41926, 41553, 41437, 41643, 41347, 41635, 41639, 41317, 41867, 41471, 42288, 41776, 42034, 42444, 41633, 41885, 41712, 41468, 41822, 42105, 41785, 41890, 42265, 41647, 42384, 42386, 41851, 42259, 42060, 42441, 42541, 42353, 42618, 42518, 42228, 42427, 41629, 42613, 42818, 42910, 42674, 42222, 42697, 42522, 42525, 42303, 41925, 42109, 42138, 42268, 42517, 42506, 42214, 43066, 42263, 42156, 42339, 42095, 42206, 42272, 41862, 42336, 42651, 42557, 42540, 42437, 43255, 42624, 43063, 42232, 42240, 42374, 42958],
      "WindowCenter": [10034.0, 9994.0, 9982.0, 9966.0, 9956.0, 9946.0, 9939.0, 9947.0, 9953.0, 9964.0, 9971.0, 9966.0, 9975.0, 9974.0, 9966.0, 9955.0, 9946.0, 9953.0, 9960.0, 9957.0, 9969.0, 9964.0, 9962.0, 9961.0, 9956.0, 9963.0, 9964.0, 9965.0, 9969.0, 9948.0, 9946.0, 9947.0, 9948.0, 9961.0, 9949.0, 9947.0, 9953.0, 9961.0, 9972.0, 9960.0, 9956.0, 9953.0, 9946.0, 9963.0, 9971.0, 9974.0, 9971.0, 9963.0, 9956.0, 9967.0, 9968.0, 9978.0, 9974.0, 9966.0, 9961.0, 9952.0, 9953.0, 9961.0, 9957.0, 9964.0, 9957.0, 9957.0, 9952.0, 9938.0, 9945.0, 9953.0, 9973.0, 9976.0, 9970.0, 9975.0, 9961.0, 9961.0, 9961.0, 9964.0, 9970.0, 9969.0, 9960.0, 9960.0, 9967.0, 9963.0, 9977.0, 9984.0, 9970.0, 9968.0, 9961.0, 9973.0, 9975.0, 9970.0, 9968.0, 9966.0, 9966.0, 9960.0, 9957.0, 9968.0, 9965.0, 9965.0, 9968.0, 9982.0, 9985.0, 9986.0, 9968.0, 9954.0, 9952.0, 9967.0, 9969.0, 9970.0, 9976.0, 9968.0, 9962.0, 9980.0, 9976.0, 9973.0, 9970.0, 9962.0, 9968.0, 9971.0, 9964.0, 9970.0, 9962.0, 9960.0, 9959.0, 9960.0, 9975.0, 9976.0, 9983.0, 9971.0, 9970.0, 9970.0, 9969.0],
      "WindowWidth": [21476.0, 21360.0, 21316.0, 21275.0, 21245.0, 21222.0, 21205.0, 21220.0, 21234.0, 21258.0, 21271.0, 21262.0, 21284.0, 21282.0, 21261.0, 21236.0, 21214.0, 21229.0, 21246.0, 21244.0, 21267.0, 21257.0, 21250.0, 21246.0, 21239.0, 21253.0, 21258.0, 21260.0, 21263.0, 21221.0, 21216.0, 21220.0, 21223.0, 21248.0, 21224.0, 21218.0, 21231.0, 21250.0, 21275.0, 21252.0, 21239.0, 21232.0, 21218.0, 21253.0, 21272.0, 21279.0, 21271.0, 21254.0, 21237.0, 21257.0, 21263.0, 21285.0, 21281.0, 21261.0, 21246.0, 21227.0, 21229.0, 21249.0, 21242.0, 21260.0, 21245.0, 21241.0, 21228.0, 21199.0, 21214.0, 21232.0, 21271.0, 21279.0, 21267.0, 21275.0, 21246.0, 21248.0, 21249.0, 21255.0, 21266.0, 21264.0, 21244.0, 21244.0, 21257.0, 21253.0, 21282.0, 21296.0, 21265.0, 21261.0, 21247.0, 21270.0, 21277.0, 21268.0, 21263.0, 21257.0, 21255.0, 21245.0, 21243.0, 21262.0, 21252.0, 21253.0, 21260.0, 21291.0, 21299.0, 21299.0, 21258.0, 21231.0, 21226.0, 21255.0, 21264.0, 21268.0, 21280.0, 21259.0, 21247.0, 21283.0, 21278.0, 21273.0, 21266.0, 21250.0, 21261.0, 21269.0, 21256.0, 21267.0, 21251.0, 21244.0, 21241.0, 21244.0, 21276.0, 21279.0, 21291.0, 21267.0, 21263.0, 21267.0, 21263.0]
    },
    "slices": {}
  }
}