{
  "AcquisitionMatrixPE": 104,
  "AcquisitionNumber": 1,
  "AcquisitionTime": "10:02:12.070000",
  "BandwidthPerPixelPhaseEncode": 17.17,
  "BaseResolution": 104,
  "BodyPartExamined": "BRAIN",
  "CoilString": "HC1-7;NC1_2",
  "ConsistencyInfo": "N4_VE11C_LATEST_20160120",
  "ConversionSoftware": "dcm2niix",
  "ConversionSoftwareVersion": "v1.0.20200427",
  "DerivedVendorReportedEchoSpacing": 0.000560011,
  "DeviceSerialNumber": "167006",
  "DwellTime": 2.1e-06,
  "EchoTime": 0.037,
  "EchoTrainLength": 104,
  "EffectiveEchoSpacing": 0.000560011,
  "FlipAngle": 52,
  "ImageComments": "Unaliased_MB4_PE3_LB",
  "ImageOrientationPatientDICOM": [0.997992, -0.00387701, -0.0632161, -0.00923188, 0.978559, -0.205758],
  "ImageType": [
    "ORIGINAL",
    "PRIMARY",
    "M",
    "MB",
    "ND",
    "MOSAIC"
],
  "ImagingFrequency": 123.259,
  "InPlanePhaseEncodingDirectionDICOM": "COL",
  "InstitutionAddress": "Chemin_Queen-Mary_4565_Montreal_District_CA_H3W_1W5",
  "InstitutionName": "IUGM",
  "InstitutionalDepartmentName": "Department",
  "MRAcquisitionType": "2D",
  "MagneticFieldStrength": 3,
  "Manufacturer": "Siemens",
  "ManufacturersModelName": "Prisma_fit",
  "Modality": "MR",
  "MultibandAccelerationFactor": 4,
  "PartialFourier": 1,
  "PatientPosition": "HFS",
  "PercentPhaseFOV": 100,
  "PercentSampling": 100,
  "PhaseEncodingDirection": "j",
  "PhaseEncodingSteps": 104,
  "PhaseResolution": 1,
  "PixelBandwidth": 2290,
  "ProcedureStepDescription": "hcptrt_generic",
  "ProtocolName": "func_task-motor_run-1",
  "PulseSequenceDetails": "%CustomerSeq%_cmrr_mbep2d_bold",
  "ReceiveCoilActiveElements": "HC1-7;NC1,2",
  "ReceiveCoilName": "HeadNeck_64",
  "ReconMatrixPE": 104,
  "RepetitionTime": 1.49,
  "SAR": 0.0279309,
  "ScanOptions": "FS",
  "ScanningSequence": "EP",
  "SequenceName": "epfid2d1_104",
  "SequenceVariant": "SK_SS",
  "SeriesDescription": "func_task-motor_run-1",
  "SeriesNumber": 21,
  "ShimSetting": [595, -7251, -8834, 615, -66, -278, -3, 56],
  "SliceThickness": 2,
  "SliceTiming": [0, 0.785, 0.0975, 0.8825, 0.195, 0.98, 0.295, 1.0775, 0.3925, 1.175, 0.49, 1.275, 0.5875, 1.3725, 0.685, 0, 0.785, 0.0975, 0.8825, 0.195, 0.98, 0.295, 1.0775, 0.3925, 1.175, 0.49, 1.275, 0.5875, 1.3725, 0.685, 0, 0.785, 0.0975, 0.8825, 0.195, 0.98, 0.295, 1.0775, 0.3925, 1.175, 0.49, 1.275, 0.5875, 1.3725, 0.685, 0, 0.785, 0.0975, 0.8825, 0.195, 0.98, 0.295, 1.0775, 0.3925, 1.175, 0.49, 1.275, 0.5875, 1.3725, 0.685],
  "SoftwareVersions": "syngo_MR_E11",
  "SpacingBetweenSlices": 2,
  "StationName": "MRC35049",
  "TaskName": "motor",
  "TotalReadoutTime": 0.0576811,
  "TxRefAmp": 216.194,
  "WipMemBlock": "a6ba7dca-15e5-4057-b310-1d6f83a416b4||Sequence: R016 ve11c/master r/e634e98; Dec 19 2017 11:00:25 by eja",
  "dcmmeta_affine": [
    [-1.995984673500061, -0.018463756889104843, -0.12531694769859314, 107.24666595458984],
    [0.0077540138736367226, 1.9571187496185303, -0.4118569493293762, -75.14183807373047],
    [-0.12643228471279144, 0.4115159213542938, 1.953117847442627, -46.070335388183594],
    [0.0, 0.0, 0.0, 1.0]
],
  "dcmmeta_reorient_transform": [
    [0.0, -1.0, 0.0, 103.0],
    [1.0, 0.0, 0.0, 0.0],
    [0.0, 0.0, 1.0, 0.0],
    [0.0, 0.0, 0.0, 1.0]
],
  "dcmmeta_shape": [104, 104, 60, 144],
  "dcmmeta_slice_dim": 2,
  "dcmmeta_version": 0.6,
  "global": {
    "const": {
      "AcquisitionMatrix": [104, 0, 0, 104],
      "AngioFlag": "N",
      "BitsAllocated": 16,
      "BitsStored": 16,
      "BodyPartExamined": "BRAIN",
      "Columns": 832,
      "EchoNumbers": 1,
      "EchoTime": 37.0,
      "EchoTrainLength": 104,
      "FlipAngle": 52.0,
      "HighBit": 15,
      "ImageOrientationPatient": [0.99799232857133, -0.0038770069509, -0.0632161445351, -0.0092318783144, 0.97855936591512, -0.2057579641292],
      "ImagePositionPatient": [-825.16250763256, -836.01014930921, 192.12895718794],
      "ImageType": [
        "ORIGINAL",
        "PRIMARY",
        "M",
        "MB",
        "ND",
        "MOSAIC"
],
      "ImagedNucleus": "1H",
      "ImagingFrequency": 123.259082,
      "InPlanePhaseEncodingDirection": "COL",
      "MRAcquisitionType": "2D",
      "MagneticFieldStrength": 3.0,
      "Manufacturer": "SIEMENS",
      "ManufacturerModelName": "Prisma_fit",
      "Modality": "MR",
      "NumberOfAverages": 1.0,
      "NumberOfPhaseEncodingSteps": 104,
      "PercentPhaseFieldOfView": 100.0,
      "PercentSampling": 100.0,
      "PerformedProcedureStepStartTime": "091713.136000",
      "PhotometricInterpretation": "MONOCHROME2",
      "PixelBandwidth": 2290.0,
      "PixelRepresentation": 0,
      "PixelSpacing": [2.0, 2.0],
      "ProtocolName": "func_task-motor_run-1",
      "RepetitionTime": 1490.0,
      "Rows": 832,
      "SAR": 0.02793091044434,
      "SamplesPerPixel": 1,
      "ScanOptions": "FS",
      "ScanningSequence": "EP",
      "SequenceName": "epfid2d1_104",
      "SequenceVariant": [
        "SK",
        "SS"
],
      "SeriesDescription": "func_task-motor_run-1",
      "SeriesNumber": 21,
      "SeriesTime": "100317.540000",
      "SliceLocation": -36.236466189229,
      "SliceThickness": 2.0,
      "SmallestImagePixelValue": 0,
      "SoftwareVersions": "syngo MR E11",
      "SpacingBetweenSlices": 1.9999999922342,
      "SpecificCharacterSet": "ISO_IR 100",
      "StudyID": "1",
      "StudyTime": "091713.042000",
      "TransmitCoilName": "Body",
      "VariableFlipAngleFlag": "N",
      "WindowCenterWidthExplanation": "Algo1",
      "dBdt": 0.0},
    "slices": {}
  },
  "time": {
    "samples": {
      "AcquisitionNumber": [1, 2, 3, 4, 5, 6, 7, 8, 9, 10, 11, 12, 13, 14, 15, 16, 17, 18, 19, 20, 21, 22, 23, 24, 25, 26, 27, 28, 29, 30, 31, 32, 33, 34, 35, 36, 37, 38, 39, 40, 41, 42, 43, 44, 45, 46, 47, 48, 49, 50, 51, 52, 53, 54, 55, 56, 57, 58, 59, 60, 61, 62, 63, 64, 65, 66, 67, 68, 69, 70, 71, 72, 73, 74, 75, 76, 77, 78, 79, 80, 81, 82, 83, 84, 85, 86, 87, 88, 89, 90, 91, 92, 93, 94, 95, 96, 97, 98, 99, 100, 101, 102, 103, 104, 105, 106, 107, 108, 109, 110, 111, 112, 113, 114, 115, 116, 117, 118, 119, 120, 121, 122, 123, 124, 125, 126, 127, 128, 129, 130, 131, 132, 133, 134, 135, 136, 137, 138, 139, 140, 141, 142, 143, 144],
      "AcquisitionTime": ["100212.070000", "100213.560000", "100215.050000", "100216.540000", "100218.030000", "100219.520000", "100221.010000", "100222.500000", "100223.990000", "100225.480000", "100226.970000", "100228.460000", "100229.950000", "100231.440000", "100232.930000", "100234.420000", "100235.910000", "100237.400000", "100238.890000", "100240.380000", "100241.870000", "100243.360000", "100244.850000", "100246.340000", "100247.830000", "100249.320000", "100250.810000", "100252.300000", "100253.790000", "100255.280000", "100256.770000", "100258.260000", "100259.750000", "100301.240000", "100302.730000", "100304.220000", "100305.710000", "100307.200000", "100308.690000", "100310.180000", "100311.670000", "100313.160000", "100314.650000", "100316.140000", "100317.630000", "100319.120000", "100320.610000", "100322.100000", "100323.590000", "100325.080000", "100326.570000", "100328.060000", "100329.550000", "100331.040000", "100332.530000", "100334.020000", "100335.510000", "100337.000000", "100338.490000", "100339.980000", "100341.470000", "100342.960000", "100344.450000", "100345.940000", "100347.430000", "100348.920000", "100350.410000", "100351.900000", "100353.390000", "100354.880000", "100356.370000", "100357.860000", "100359.350000", "100400.840000", "100402.330000", "100403.820000", "100405.310000", "100406.800000", "100408.290000", "100409.780000", "100411.270000", "100412.760000", "100414.250000", "100415.740000", "100417.230000", "100418.720000", "100420.210000", "100421.700000", "100423.190000", "100424.680000", "100426.170000", "100427.660000", "100429.150000", "100430.640000", "100432.130000", "100433.620000", "100435.110000", "100436.600000", "100438.090000", "100439.580000", "100441.070000", "100442.560000", "100444.050000", "100445.540000", "100447.030000", "100448.520000", "100450.010000", "100451.500000", "100452.990000", "100454.480000", "100455.970000", "100457.460000", "100458.950000", "100500.440000", "100501.930000", "100503.420000", "100504.910000", "100506.400000", "100507.890000", "100509.380000", "100510.870000", "100512.360000", "100513.850000", "100515.340000", "100516.830000", "100518.320000", "100519.810000", "100521.300000", "100522.790000", "100524.280000", "100525.770000", "100527.260000", "100528.750000", "100530.240000", "100531.730000", "100533.220000", "100534.710000", "100536.200000", "100537.690000", "100539.180000", "100540.670000", "100542.160000", "100543.650000", "100545.140000"],
      "ContentTime": ["100317.543000", "100317.547000", "100317.550000", "100317.553000", "100317.556000", "100317.559000", "100317.562000", "100317.565000", "100317.568000", "100317.573000", "100317.576000", "100337.509000", "100337.512000", "100337.515000", "100337.518000", "100337.521000", "100337.524000", "100337.536000", "100337.539000", "100337.542000", "100337.545000", "100337.548000", "100337.551000", "100337.554000", "100337.557000", "100337.565000", "100337.568000", "100337.571000", "100337.574000", "100337.577000", "100337.580000", "100357.509000", "100357.512000", "100357.515000", "100357.518000", "100357.521000", "100357.524000", "100357.527000", "100357.530000", "100357.533000", "100357.536000", "100357.539000", "100357.542000", "100357.545000", "100357.548000", "100357.551000", "100357.554000", "100357.557000", "100357.560000", "100357.563000", "100357.566000", "100417.509000", "100417.512000", "100417.515000", "100417.518000", "100417.521000", "100417.524000", "100417.527000", "100417.530000", "100417.533000", "100417.536000", "100417.539000", "100417.542000", "100417.545000", "100417.548000", "100417.551000", "100417.554000", "100417.557000", "100417.560000", "100417.563000", "100417.566000", "100417.569000", "100437.509000", "100437.512000", "100437.515000", "100437.518000", "100437.521000", "100437.524000", "100437.527000", "100437.530000", "100437.533000", "100437.536000", "100437.539000", "100437.542000", "100437.545000", "100437.552000", "100437.555000", "100437.558000", "100437.561000", "100437.564000", "100437.567000", "100437.570000", "100517.509000", "100517.512000", "100517.515000", "100517.518000", "100517.521000", "100517.524000", "100517.527000", "100517.530000", "100517.533000", "100517.536000", "100517.539000", "100517.565000", "100517.569000", "100517.572000", "100517.574000", "100517.577000", "100517.581000", "100517.584000", "100517.587000", "100517.590000", "100517.593000", "100517.596000", "100517.598000", "100517.601000", "100517.605000", "100517.608000", "100517.610000", "100517.613000", "100517.617000", "100517.620000", "100517.623000", "100517.625000", "100547.227000", "100547.231000", "100547.234000", "100547.237000", "100547.240000", "100547.243000", "100547.246000", "100547.249000", "100547.252000", "100547.255000", "100547.258000", "100547.261000", "100547.264000", "100547.267000", "100547.270000", "100547.273000", "100547.276000", "100547.279000", "100547.282000", "100547.286000"],
      "InstanceCreationTime": ["100317.543000", "100317.547000", "100317.550000", "100317.553000", "100317.556000", "100317.559000", "100317.562000", "100317.565000", "100317.568000", "100317.573000", "100317.576000", "100337.509000", "100337.512000", "100337.515000", "100337.518000", "100337.521000", "100337.524000", "100337.536000", "100337.539000", "100337.542000", "100337.545000", "100337.548000", "100337.551000", "100337.554000", "100337.557000", "100337.565000", "100337.568000", "100337.571000", "100337.574000", "100337.577000", "100337.580000", "100357.509000", "100357.512000", "100357.515000", "100357.518000", "100357.521000", "100357.524000", "100357.527000", "100357.530000", "100357.533000", "100357.536000", "100357.539000", "100357.542000", "100357.545000", "100357.548000", "100357.551000", "100357.554000", "100357.557000", "100357.560000", "100357.563000", "100357.566000", "100417.509000", "100417.512000", "100417.515000", "100417.518000", "100417.521000", "100417.524000", "100417.527000", "100417.530000", "100417.533000", "100417.536000", "100417.539000", "100417.542000", "100417.545000", "100417.548000", "100417.551000", "100417.554000", "100417.557000", "100417.560000", "100417.563000", "100417.566000", "100417.569000", "100437.509000", "100437.512000", "100437.515000", "100437.518000", "100437.521000", "100437.524000", "100437.527000", "100437.530000", "100437.533000", "100437.536000", "100437.539000", "100437.542000", "100437.545000", "100437.552000", "100437.555000", "100437.558000", "100437.561000", "100437.564000", "100437.567000", "100437.570000", "100517.509000", "100517.512000", "100517.515000", "100517.518000", "100517.521000", "100517.524000", "100517.527000", "100517.530000", "100517.533000", "100517.536000", "100517.539000", "100517.565000", "100517.569000", "100517.572000", "100517.574000", "100517.577000", "100517.581000", "100517.584000", "100517.587000", "100517.590000", "100517.593000", "100517.596000", "100517.598000", "100517.601000", "100517.605000", "100517.608000", "100517.610000", "100517.613000", "100517.617000", "100517.620000", "100517.623000", "100517.625000", "100547.227000", "100547.231000", "100547.234000", "100547.237000", "100547.240000", "100547.243000", "100547.246000", "100547.249000", "100547.252000", "100547.255000", "100547.258000", "100547.261000", "100547.264000", "100547.267000", "100547.270000", "100547.273000", "100547.276000", "100547.279000", "100547.282000", "100547.286000"],
      "InstanceNumber": [1, 2, 3, 4, 5, 6, 7, 8, 9, 10, 11, 12, 13, 14, 15, 16, 17, 18, 19, 20, 21, 22, 23, 24, 25, 26, 27, 28, 29, 30, 31, 32, 33, 34, 35, 36, 37, 38, 39, 40, 41, 42, 43, 44, 45, 46, 47, 48, 49, 50, 51, 52, 53, 54, 55, 56, 57, 58, 59, 60, 61, 62, 63, 64, 65, 66, 67, 68, 69, 70, 71, 72, 73, 74, 75, 76, 77, 78, 79, 80, 81, 82, 83, 84, 85, 86, 87, 88, 89, 90, 91, 92, 93, 94, 95, 96, 97, 98, 99, 100, 101, 102, 103, 104, 105, 106, 107, 108, 109, 110, 111, 112, 113, 114, 115, 116, 117, 118, 119, 120, 121, 122, 123, 124, 125, 126, 127, 128, 129, 130, 131, 132, 133, 134, 135, 136, 137, 138, 139, 140, 141, 142, 143, 144],
      "LargestImagePixelValue": [46700, 45592, 44815, 44400, 44374, 44363, 44101, 43744, 43832, 44181, 44018, 43910, 43984, 43846, 43882, 43638, 43372, 43189, 43869, 43787, 43468, 43888, 43500, 43289, 43580, 43679, 43639, 43227, 43731, 43873, 43957, 43915, 43360, 43182, 43415, 43138, 43354, 43725, 43570, 43407, 43433, 43407, 43833, 43413, 43819, 43364, 43180, 43306, 43396, 43247, 43409, 42828, 43080, 43271, 43406, 43547, 43147, 43440, 43039, 43491, 43295, 44016, 43613, 43274, 42883, 43299, 43363, 43381, 43350, 43139, 43255, 43126, 42895, 43176, 42912, 43193, 43411, 42884, 43177, 43438, 43673, 43032, 43238, 42977, 43461, 43203, 43286, 43209, 42882, 43180, 42939, 43115, 43134, 43306, 43639, 43017, 43123, 43196, 43451, 43403, 43043, 43185, 43455, 43790, 43709, 43395, 43291, 43535, 43127, 43497, 43028, 43469, 43576, 43226, 42979, 43363, 43011, 43030, 43068, 43141, 43064, 43471, 43278, 43257, 42642, 42809, 42758, 42945, 42956, 43198, 43138, 43156, 43009, 43497, 43286, 43446, 43038, 43491, 42893, 42870, 43090, 43167, 43032, 42665],
      "WindowCenter": [10045.0, 10010.0, 9993.0, 9983.0, 9967.0, 9965.0, 9956.0, 9956.0, 9963.0, 9972.0, 9979.0, 9973.0, 9966.0, 9950.0, 9956.0, 9964.0, 9966.0, 9973.0, 9974.0, 9974.0, 9959.0, 9964.0, 9951.0, 9949.0, 9950.0, 9957.0, 9973.0, 9968.0, 9981.0, 9973.0, 9971.0, 9979.0, 9973.0, 9977.0, 9976.0, 9961.0, 9957.0, 9955.0, 9965.0, 9973.0, 9974.0, 9958.0, 9954.0, 9940.0, 9946.0, 9962.0, 9965.0, 9968.0, 9974.0, 9967.0, 9972.0, 9959.0, 9965.0, 9958.0, 9957.0, 9956.0, 9956.0, 9963.0, 9952.0, 9963.0, 9954.0, 9954.0, 9955.0, 9949.0, 9944.0, 9949.0, 9956.0, 9957.0, 9959.0, 9967.0, 9966.0, 9968.0, 9968.0, 9963.0, 9960.0, 9951.0, 9948.0, 9941.0, 9948.0, 9955.0, 9955.0, 9952.0, 9949.0, 9943.0, 9941.0, 9940.0, 9940.0, 9948.0, 9953.0, 9959.0, 9959.0, 9963.0, 9957.0, 9964.0, 9956.0, 9944.0, 9942.0, 9941.0, 9955.0, 9956.0, 9959.0, 9948.0, 9940.0, 9953.0, 9953.0, 9957.0, 9959.0, 9965.0, 9961.0, 9959.0, 9952.0, 9948.0, 9947.0, 9942.0, 9943.0, 9957.0, 9951.0, 9944.0, 9949.0, 9955.0, 9956.0, 9941.0, 9941.0, 9946.0, 9942.0, 9942.0, 9927.0, 9933.0, 9939.0, 9955.0, 9956.0, 9941.0, 9924.0, 9921.0, 9930.0, 9946.0, 9957.0, 9965.0, 9952.0, 9950.0, 9942.0, 9948.0, 9966.0, 9961.0],
      "WindowWidth": [21490.0, 21384.0, 21329.0, 21297.0, 21261.0, 21252.0, 21229.0, 21228.0, 21242.0, 21262.0, 21276.0, 21264.0, 21251.0, 21216.0, 21227.0, 21244.0, 21251.0, 21267.0, 21269.0, 21266.0, 21236.0, 21243.0, 21218.0, 21214.0, 21216.0, 21229.0, 21265.0, 21258.0, 21283.0, 21266.0, 21259.0, 21276.0, 21267.0, 21278.0, 21275.0, 21242.0, 21229.0, 21225.0, 21251.0, 21267.0, 21268.0, 21233.0, 21221.0, 21193.0, 21202.0, 21241.0, 21249.0, 21256.0, 21267.0, 21253.0, 21259.0, 21236.0, 21250.0, 21235.0, 21230.0, 21226.0, 21226.0, 21241.0, 21221.0, 21238.0, 21218.0, 21219.0, 21222.0, 21214.0, 21204.0, 21213.0, 21226.0, 21230.0, 21236.0, 21252.0, 21248.0, 21253.0, 21256.0, 21246.0, 21236.0, 21215.0, 21209.0, 21194.0, 21210.0, 21224.0, 21225.0, 21218.0, 21209.0, 21198.0, 21194.0, 21191.0, 21190.0, 21207.0, 21224.0, 21236.0, 21233.0, 21240.0, 21229.0, 21244.0, 21226.0, 21203.0, 21194.0, 21190.0, 21219.0, 21223.0, 21233.0, 21204.0, 21188.0, 21214.0, 21214.0, 21226.0, 21235.0, 21245.0, 21239.0, 21231.0, 21219.0, 21207.0, 21203.0, 21196.0, 21200.0, 21227.0, 21217.0, 21202.0, 21209.0, 21219.0, 21220.0, 21190.0, 21191.0, 21202.0, 21195.0, 21196.0, 21165.0, 21174.0, 21186.0, 21218.0, 21221.0, 21191.0, 21156.0, 21146.0, 21167.0, 21199.0, 21227.0, 21241.0, 21216.0, 21210.0, 21194.0, 21204.0, 21250.0, 21240.0]
    },
    "slices": {}
  }
}