{
  "AcquisitionMatrixPE": 104,
  "AcquisitionNumber": 1,
  "AcquisitionTime": "09:47:33.112500",
  "BandwidthPerPixelPhaseEncode": 17.17,
  "BaseResolution": 104,
  "BodyPartExamined": "BRAIN",
  "CoilString": "HC1-7;NC1_2",
  "ConsistencyInfo": "N4_VE11C_LATEST_20160120",
  "ConversionSoftware": "dcm2niix",
  "ConversionSoftwareVersion": "v1.0.20200427",
  "DerivedVendorReportedEchoSpacing": 0.000560011,
  "DeviceSerialNumber": "167006",
  "DwellTime": 2.1e-06,
  "EchoTime": 0.037,
  "EchoTrainLength": 104,
  "EffectiveEchoSpacing": 0.000560011,
  "FlipAngle": 52,
  "ImageComments": "Unaliased_MB4_PE3_LB",
  "ImageOrientationPatientDICOM": [0.997992, -0.00387701, -0.0632161, -0.00923188, 0.978559, -0.205758],
  "ImageType": [
    "ORIGINAL",
    "PRIMARY",
    "M",
    "MB",
    "ND",
    "MOSAIC"
],
  "ImagingFrequency": 123.259,
  "InPlanePhaseEncodingDirectionDICOM": "COL",
  "InstitutionAddress": "Chemin_Queen-Mary_4565_Montreal_District_CA_H3W_1W5",
  "InstitutionName": "IUGM",
  "InstitutionalDepartmentName": "Department",
  "MRAcquisitionType": "2D",
  "MagneticFieldStrength": 3,
  "Manufacturer": "Siemens",
  "ManufacturersModelName": "Prisma_fit",
  "Modality": "MR",
  "MultibandAccelerationFactor": 4,
  "PartialFourier": 1,
  "PatientPosition": "HFS",
  "PercentPhaseFOV": 100,
  "PercentSampling": 100,
  "PhaseEncodingDirection": "j",
  "PhaseEncodingSteps": 104,
  "PhaseResolution": 1,
  "PixelBandwidth": 2290,
  "ProcedureStepDescription": "hcptrt_generic",
  "ProtocolName": "func_task-language_run-1",
  "PulseSequenceDetails": "%CustomerSeq%_cmrr_mbep2d_bold",
  "ReceiveCoilActiveElements": "HC1-7;NC1,2",
  "ReceiveCoilName": "HeadNeck_64",
  "ReconMatrixPE": 104,
  "RepetitionTime": 1.49,
  "SAR": 0.0279652,
  "ScanOptions": "FS",
  "ScanningSequence": "EP",
  "SequenceName": "epfid2d1_104",
  "SequenceVariant": "SK_SS",
  "SeriesDescription": "func_task-language_run-1",
  "SeriesNumber": 15,
  "ShimSetting": [595, -7251, -8834, 615, -66, -278, -3, 56],
  "SliceThickness": 2,
  "SliceTiming": [0, 0.785, 0.1, 0.8825, 0.1975, 0.98, 0.295, 1.0775, 0.3925, 1.1775, 0.49, 1.275, 0.59, 1.3725, 0.6875, 0, 0.785, 0.1, 0.8825, 0.1975, 0.98, 0.295, 1.0775, 0.3925, 1.1775, 0.49, 1.275, 0.59, 1.3725, 0.6875, 0, 0.785, 0.1, 0.8825, 0.1975, 0.98, 0.295, 1.0775, 0.3925, 1.1775, 0.49, 1.275, 0.59, 1.3725, 0.6875, 0, 0.785, 0.1, 0.8825, 0.1975, 0.98, 0.295, 1.0775, 0.3925, 1.1775, 0.49, 1.275, 0.59, 1.3725, 0.6875],
  "SoftwareVersions": "syngo_MR_E11",
  "SpacingBetweenSlices": 2,
  "StationName": "MRC35049",
  "TaskName": "language",
  "TotalReadoutTime": 0.0576811,
  "TxRefAmp": 216.194,
  "WipMemBlock": "5a754710-375d-4d4e-900c-510d8ad86e02||Sequence: R016 ve11c/master r/e634e98; Dec 19 2017 11:00:25 by eja",
  "dcmmeta_affine": [
    [-1.995984673500061, -0.018463756889104843, -0.12531694769859314, 107.24666595458984],
    [0.0077540138736367226, 1.9571187496185303, -0.4118569493293762, -75.14183807373047],
    [-0.12643228471279144, 0.4115159213542938, 1.953117847442627, -46.070335388183594],
    [0.0, 0.0, 0.0, 1.0]
],
  "dcmmeta_reorient_transform": [
    [0.0, -1.0, 0.0, 103.0],
    [1.0, 0.0, 0.0, 0.0],
    [0.0, 0.0, 1.0, 0.0],
    [0.0, 0.0, 0.0, 1.0]
],
  "dcmmeta_shape": [104, 104, 60, 159],
  "dcmmeta_slice_dim": 2,
  "dcmmeta_version": 0.6,
  "global": {
    "const": {
      "AcquisitionMatrix": [104, 0, 0, 104],
      "AngioFlag": "N",
      "BitsAllocated": 16,
      "BitsStored": 16,
      "BodyPartExamined": "BRAIN",
      "Columns": 832,
      "EchoNumbers": 1,
      "EchoTime": 37.0,
      "EchoTrainLength": 104,
      "FlipAngle": 52.0,
      "HighBit": 15,
      "ImageOrientationPatient": [0.99799232857133, -0.0038770069509, -0.0632161445351, -0.0092318783144, 0.97855936591512, -0.2057579641292],
      "ImagePositionPatient": [-825.16250763256, -836.01014930921, 192.12895718794],
      "ImageType": [
        "ORIGINAL",
        "PRIMARY",
        "M",
        "MB",
        "ND",
        "MOSAIC"
],
      "ImagedNucleus": "1H",
      "ImagingFrequency": 123.259077,
      "InPlanePhaseEncodingDirection": "COL",
      "MRAcquisitionType": "2D",
      "MagneticFieldStrength": 3.0,
      "Manufacturer": "SIEMENS",
      "ManufacturerModelName": "Prisma_fit",
      "Modality": "MR",
      "NumberOfAverages": 1.0,
      "NumberOfPhaseEncodingSteps": 104,
      "PercentPhaseFieldOfView": 100.0,
      "PercentSampling": 100.0,
      "PerformedProcedureStepStartTime": "091713.136000",
      "PhotometricInterpretation": "MONOCHROME2",
      "PixelBandwidth": 2290.0,
      "PixelRepresentation": 0,
      "PixelSpacing": [2.0, 2.0],
      "ProtocolName": "func_task-language_run-1",
      "RepetitionTime": 1490.0,
      "Rows": 832,
      "SAR": 0.02796523755754,
      "SamplesPerPixel": 1,
      "ScanOptions": "FS",
      "ScanningSequence": "EP",
      "SequenceName": "epfid2d1_104",
      "SequenceVariant": [
        "SK",
        "SS"
],
      "SeriesDescription": "func_task-language_run-1",
      "SeriesNumber": 15,
      "SeriesTime": "094857.540000",
      "SliceLocation": -36.236466189229,
      "SliceThickness": 2.0,
      "SmallestImagePixelValue": 0,
      "SoftwareVersions": "syngo MR E11",
      "SpacingBetweenSlices": 1.9999999922342,
      "SpecificCharacterSet": "ISO_IR 100",
      "StudyID": "1",
      "StudyTime": "091713.042000",
      "TransmitCoilName": "Body",
      "VariableFlipAngleFlag": "N",
      "WindowCenterWidthExplanation": "Algo1",
      "dBdt": 0.0},
    "slices": {}
  },
  "time": {
    "samples": {
      "AcquisitionNumber": [1, 2, 3, 4, 5, 6, 7, 8, 9, 10, 11, 12, 13, 14, 15, 16, 17, 18, 19, 20, 21, 22, 23, 24, 25, 26, 27, 28, 29, 30, 31, 32, 33, 34, 35, 36, 37, 38, 39, 40, 41, 42, 43, 44, 45, 46, 47, 48, 49, 50, 51, 52, 53, 54, 55, 56, 57, 58, 59, 60, 61, 62, 63, 64, 65, 66, 67, 68, 69, 70, 71, 72, 73, 74, 75, 76, 77, 78, 79, 80, 81, 82, 83, 84, 85, 86, 87, 88, 89, 90, 91, 92, 93, 94, 95, 96, 97, 98, 99, 100, 101, 102, 103, 104, 105, 106, 107, 108, 109, 110, 111, 112, 113, 114, 115, 116, 117, 118, 119, 120, 121, 122, 123, 124, 125, 126, 127, 128, 129, 130, 131, 132, 133, 134, 135, 136, 137, 138, 139, 140, 141, 142, 143, 144, 145, 146, 147, 148, 149, 150, 151, 152, 153, 154, 155, 156, 157, 158, 159],
      "AcquisitionTime": ["094733.112500", "094734.602500", "094736.092500", "094737.582500", "094739.072500", "094740.562500", "094742.052500", "094743.542500", "094745.032500", "094746.522500", "094748.012500", "094749.502500", "094750.992500", "094752.482500", "094753.972500", "094755.462500", "094756.952500", "094758.442500", "094759.932500", "094801.422500", "094802.912500", "094804.402500", "094805.892500", "094807.382500", "094808.872500", "094810.362500", "094811.852500", "094813.342500", "094814.832500", "094816.322500", "094817.812500", "094819.302500", "094820.792500", "094822.282500", "094823.772500", "094825.262500", "094826.752500", "094828.242500", "094829.732500", "094831.222500", "094832.712500", "094834.202500", "094835.692500", "094837.182500", "094838.672500", "094840.162500", "094841.652500", "094843.142500", "094844.632500", "094846.122500", "094847.612500", "094849.102500", "094850.592500", "094852.082500", "094853.572500", "094855.062500", "094856.552500", "094858.042500", "094859.532500", "094901.022500", "094902.512500", "094904.002500", "094905.492500", "094906.982500", "094908.472500", "094909.962500", "094911.452500", "094912.942500", "094914.432500", "094915.922500", "094917.412500", "094918.902500", "094920.392500", "094921.882500", "094923.372500", "094924.862500", "094926.352500", "094927.842500", "094929.332500", "094930.822500", "094932.312500", "094933.802500", "094935.292500", "094936.782500", "094938.272500", "094939.762500", "094941.252500", "094942.742500", "094944.232500", "094945.722500", "094947.212500", "094948.702500", "094950.192500", "094951.682500", "094953.172500", "094954.662500", "094956.152500", "094957.642500", "094959.132500", "095000.622500", "095002.112500", "095003.602500", "095005.092500", "095006.582500", "095008.072500", "095009.562500", "095011.052500", "095012.542500", "095014.032500", "095015.522500", "095017.012500", "095018.502500", "095019.992500", "095021.482500", "095022.972500", "095024.462500", "095025.952500", "095027.442500", "095028.932500", "095030.422500", "095031.912500", "095033.402500", "095034.892500", "095036.382500", "095037.872500", "095039.362500", "095040.852500", "095042.342500", "095043.832500", "095045.322500", "095046.812500", "095048.302500", "095049.792500", "095051.282500", "095052.772500", "095054.262500", "095055.752500", "095057.242500", "095058.732500", "095100.222500", "095101.712500", "095103.202500", "095104.692500", "095106.182500", "095107.672500", "095109.162500", "095110.652500", "095112.142500", "095113.632500", "095115.122500", "095116.612500", "095118.102500", "095119.592500", "095121.082500", "095122.572500", "095124.062500", "095125.552500", "095127.042500", "095128.532500"],
      "ContentTime": ["094857.543000", "094857.546000", "094857.549000", "094857.552000", "094857.555000", "094857.558000", "094857.561000", "094857.564000", "094857.571000", "094857.574000", "094857.577000", "094857.580000", "094857.583000", "094857.587000", "094857.590000", "094857.592000", "094857.595000", "094857.598000", "094857.601000", "094857.604000", "094857.607000", "094857.610000", "094857.613000", "094857.616000", "094857.619000", "094857.624000", "094857.627000", "094857.630000", "094857.633000", "094857.636000", "094917.509000", "094917.512000", "094917.515000", "094917.518000", "094917.521000", "094917.524000", "094917.527000", "094917.540000", "094917.543000", "094917.546000", "094917.549000", "094917.552000", "094917.555000", "094917.559000", "094917.562000", "094917.565000", "094917.568000", "094917.571000", "094917.574000", "094917.577000", "094937.509000", "094937.512000", "094937.515000", "094937.518000", "094937.521000", "094937.524000", "094937.527000", "094937.530000", "094937.533000", "094937.536000", "094937.539000", "094937.543000", "094937.545000", "094937.548000", "094937.552000", "094937.555000", "094937.558000", "094937.561000", "094937.564000", "094937.567000", "094957.510000", "094957.514000", "094957.518000", "094957.521000", "094957.530000", "094957.533000", "094957.536000", "094957.539000", "094957.542000", "094957.545000", "094957.548000", "094957.551000", "094957.554000", "094957.557000", "094957.560000", "094957.563000", "094957.566000", "094957.569000", "094957.572000", "094957.575000", "095017.509000", "095017.512000", "095017.515000", "095017.518000", "095017.529000", "095017.532000", "095017.535000", "095017.538000", "095017.541000", "095017.544000", "095017.547000", "095017.550000", "095017.553000", "095017.556000", "095017.565000", "095017.568000", "095017.570000", "095017.573000", "095017.576000", "095057.509000", "095057.512000", "095057.515000", "095057.518000", "095057.521000", "095057.524000", "095057.527000", "095057.543000", "095057.546000", "095057.549000", "095057.552000", "095057.555000", "095057.558000", "095057.561000", "095057.564000", "095057.567000", "095057.570000", "095057.573000", "095057.576000", "095057.579000", "095057.582000", "095057.585000", "095057.588000", "095057.591000", "095057.594000", "095057.597000", "095057.600000", "095130.782000", "095130.786000", "095130.796000", "095130.799000", "095130.802000", "095130.804000", "095130.808000", "095130.811000", "095130.814000", "095130.817000", "095130.820000", "095130.823000", "095130.826000", "095130.829000", "095130.832000", "095130.835000", "095130.838000", "095130.842000", "095130.845000", "095130.848000", "095130.851000", "095130.854000", "095130.857000"],
      "InstanceCreationTime": ["094857.543000", "094857.546000", "094857.549000", "094857.552000", "094857.555000", "094857.558000", "094857.561000", "094857.564000", "094857.571000", "094857.574000", "094857.577000", "094857.580000", "094857.583000", "094857.587000", "094857.590000", "094857.592000", "094857.595000", "094857.598000", "094857.601000", "094857.604000", "094857.607000", "094857.610000", "094857.613000", "094857.616000", "094857.619000", "094857.624000", "094857.627000", "094857.630000", "094857.633000", "094857.636000", "094917.509000", "094917.512000", "094917.515000", "094917.518000", "094917.521000", "094917.524000", "094917.527000", "094917.540000", "094917.543000", "094917.546000", "094917.549000", "094917.552000", "094917.555000", "094917.559000", "094917.562000", "094917.565000", "094917.568000", "094917.571000", "094917.574000", "094917.577000", "094937.509000", "094937.512000", "094937.515000", "094937.518000", "094937.521000", "094937.524000", "094937.527000", "094937.530000", "094937.533000", "094937.536000", "094937.539000", "094937.543000", "094937.545000", "094937.548000", "094937.552000", "094937.555000", "094937.558000", "094937.561000", "094937.564000", "094937.567000", "094957.510000", "094957.514000", "094957.518000", "094957.521000", "094957.530000", "094957.533000", "094957.536000", "094957.539000", "094957.542000", "094957.545000", "094957.548000", "094957.551000", "094957.554000", "094957.557000", "094957.560000", "094957.563000", "094957.566000", "094957.569000", "094957.572000", "094957.575000", "095017.509000", "095017.512000", "095017.515000", "095017.518000", "095017.529000", "095017.532000", "095017.535000", "095017.538000", "095017.541000", "095017.544000", "095017.547000", "095017.550000", "095017.553000", "095017.556000", "095017.565000", "095017.568000", "095017.570000", "095017.573000", "095017.576000", "095057.509000", "095057.512000", "095057.515000", "095057.518000", "095057.521000", "095057.524000", "095057.527000", "095057.543000", "095057.546000", "095057.549000", "095057.552000", "095057.555000", "095057.558000", "095057.561000", "095057.564000", "095057.567000", "095057.570000", "095057.573000", "095057.576000", "095057.579000", "095057.582000", "095057.585000", "095057.588000", "095057.591000", "095057.594000", "095057.597000", "095057.600000", "095130.782000", "095130.786000", "095130.796000", "095130.799000", "095130.802000", "095130.804000", "095130.808000", "095130.811000", "095130.814000", "095130.817000", "095130.820000", "095130.823000", "095130.826000", "095130.829000", "095130.832000", "095130.835000", "095130.838000", "095130.842000", "095130.845000", "095130.848000", "095130.851000", "095130.854000", "095130.857000"],
      "InstanceNumber": [1, 2, 3, 4, 5, 6, 7, 8, 9, 10, 11, 12, 13, 14, 15, 16, 17, 18, 19, 20, 21, 22, 23, 24, 25, 26, 27, 28, 29, 30, 31, 32, 33, 34, 35, 36, 37, 38, 39, 40, 41, 42, 43, 44, 45, 46, 47, 48, 49, 50, 51, 52, 53, 54, 55, 56, 57, 58, 59, 60, 61, 62, 63, 64, 65, 66, 67, 68, 69, 70, 71, 72, 73, 74, 75, 76, 77, 78, 79, 80, 81, 82, 83, 84, 85, 86, 87, 88, 89, 90, 91, 92, 93, 94, 95, 96, 97, 98, 99, 100, 101, 102, 103, 104, 105, 106, 107, 108, 109, 110, 111, 112, 113, 114, 115, 116, 117, 118, 119, 120, 121, 122, 123, 124, 125, 126, 127, 128, 129, 130, 131, 132, 133, 134, 135, 136, 137, 138, 139, 140, 141, 142, 143, 144, 145, 146, 147, 148, 149, 150, 151, 152, 153, 154, 155, 156, 157, 158, 159],
      "LargestImagePixelValue": [45632, 43387, 43441, 43164, 42616, 42446, 42704, 42730, 42249, 42491, 42904, 42639, 42751, 42873, 42424, 42255, 42866, 43053, 42568, 42984, 42980, 42773, 42818, 42851, 42816, 42748, 42884, 42727, 42860, 42770, 42643, 42983, 43039, 43150, 43038, 42996, 42813, 43064, 42941, 42597, 42967, 43004, 42768, 43170, 43003, 42962, 43060, 43570, 43240, 43313, 43601, 43138, 43332, 43078, 43214, 42603, 43170, 43143, 43344, 42886, 42667, 43035, 42963, 43088, 42889, 42525, 42527, 42896, 42824, 43225, 43110, 42777, 42961, 42640, 43277, 43315, 43178, 43381, 43193, 43151, 42578, 42827, 43026, 43130, 43086, 43075, 43212, 42953, 42966, 43174, 43565, 43277, 42914, 43029, 43161, 43341, 43217, 43317, 42768, 43210, 43539, 43297, 43372, 43319, 43806, 43170, 43591, 43317, 43298, 42947, 42896, 42944, 42949, 43161, 43621, 43416, 42939, 43440, 43278, 43527, 43004, 43349, 43879, 43522, 43076, 43909, 43111, 43246, 43280, 43258, 43365, 43450, 43001, 43230, 43242, 43193, 43470, 43028, 43178, 42958, 43522, 43640, 43321, 43478, 43248, 42943, 43396, 43199, 42975, 42892, 43265, 43168, 43020, 42907, 43322, 43229, 43146, 42906, 43427],
      "WindowCenter": [10049.0, 9995.0, 9993.0, 9985.0, 9980.0, 9979.0, 9977.0, 9986.0, 9980.0, 9971.0, 9955.0, 9945.0, 9954.0, 9966.0, 9976.0, 9978.0, 9970.0, 9968.0, 9955.0, 9953.0, 9967.0, 9974.0, 9977.0, 9977.0, 9975.0, 9959.0, 9960.0, 9968.0, 9967.0, 9966.0, 9967.0, 9965.0, 9968.0, 9967.0, 9960.0, 9957.0, 9956.0, 9961.0, 9965.0, 9974.0, 9983.0, 9976.0, 9967.0, 9959.0, 9958.0, 9957.0, 9957.0, 9963.0, 9956.0, 9957.0, 9970.0, 9971.0, 9972.0, 9974.0, 9972.0, 9968.0, 9966.0, 9964.0, 9971.0, 9975.0, 9978.0, 9985.0, 9976.0, 9974.0, 9966.0, 9952.0, 9960.0, 9967.0, 9967.0, 9973.0, 9972.0, 9966.0, 9965.0, 9958.0, 9964.0, 9963.0, 9965.0, 9980.0, 9983.0, 9991.0, 9980.0, 9976.0, 9961.0, 9965.0, 9965.0, 9974.0, 9984.0, 9962.0, 9962.0, 9959.0, 9966.0, 9959.0, 9959.0, 9961.0, 9973.0, 9973.0, 9973.0, 9974.0, 9968.0, 9972.0, 9965.0, 9972.0, 9980.0, 9981.0, 9983.0, 9969.0, 9966.0, 9958.0, 9956.0, 9965.0, 9975.0, 9969.0, 9977.0, 9962.0, 9958.0, 9963.0, 9958.0, 9959.0, 9960.0, 9965.0, 9961.0, 9965.0, 9956.0, 9964.0, 9966.0, 9980.0, 9977.0, 9968.0, 9966.0, 9967.0, 9972.0, 9967.0, 9968.0, 9973.0, 9976.0, 9968.0, 9966.0, 9960.0, 9967.0, 9961.0, 9972.0, 9980.0, 9980.0, 9983.0, 9978.0, 9969.0, 9967.0, 9961.0, 9969.0, 9978.0, 9979.0, 9978.0, 9962.0, 9954.0, 9957.0, 9959.0, 9967.0, 9962.0, 9968.0],
      "WindowWidth": [21515.0, 21368.0, 21342.0, 21314.0, 21295.0, 21290.0, 21285.0, 21303.0, 21292.0, 21270.0, 21233.0, 21211.0, 21229.0, 21255.0, 21278.0, 21286.0, 21265.0, 21259.0, 21233.0, 21226.0, 21257.0, 21274.0, 21283.0, 21282.0, 21275.0, 21240.0, 21242.0, 21260.0, 21259.0, 21254.0, 21256.0, 21251.0, 21262.0, 21257.0, 21244.0, 21232.0, 21229.0, 21239.0, 21254.0, 21275.0, 21292.0, 21276.0, 21258.0, 21239.0, 21239.0, 21234.0, 21235.0, 21245.0, 21230.0, 21235.0, 21260.0, 21263.0, 21264.0, 21270.0, 21267.0, 21261.0, 21254.0, 21249.0, 21265.0, 21278.0, 21286.0, 21297.0, 21276.0, 21272.0, 21253.0, 21228.0, 21246.0, 21259.0, 21258.0, 21270.0, 21266.0, 21255.0, 21254.0, 21239.0, 21250.0, 21248.0, 21253.0, 21283.0, 21292.0, 21309.0, 21290.0, 21279.0, 21245.0, 21251.0, 21249.0, 21269.0, 21294.0, 21248.0, 21246.0, 21239.0, 21251.0, 21238.0, 21237.0, 21244.0, 21267.0, 21268.0, 21266.0, 21271.0, 21259.0, 21266.0, 21252.0, 21267.0, 21284.0, 21285.0, 21290.0, 21263.0, 21252.0, 21236.0, 21232.0, 21253.0, 21273.0, 21263.0, 21280.0, 21245.0, 21236.0, 21241.0, 21235.0, 21239.0, 21242.0, 21248.0, 21244.0, 21247.0, 21227.0, 21243.0, 21250.0, 21279.0, 21280.0, 21259.0, 21253.0, 21254.0, 21265.0, 21257.0, 21259.0, 21269.0, 21278.0, 21261.0, 21253.0, 21244.0, 21257.0, 21244.0, 21264.0, 21279.0, 21284.0, 21293.0, 21282.0, 21264.0, 21258.0, 21246.0, 21265.0, 21281.0, 21283.0, 21278.0, 21246.0, 21230.0, 21229.0, 21238.0, 21257.0, 21250.0, 21259.0]
    },
    "slices": {}
  }
}