{
  "AcquisitionMatrixPE": 104,
  "AcquisitionNumber": 1,
  "AcquisitionTime": "10:48:5.467500",
  "BandwidthPerPixelPhaseEncode": 17.17,
  "BaseResolution": 104,
  "BodyPartExamined": "BRAIN",
  "CoilString": "HC1-7;NC1_2",
  "ConsistencyInfo": "N4_VE11C_LATEST_20160120",
  "ConversionSoftware": "dcm2niix",
  "ConversionSoftwareVersion": "v1.0.20200427",
  "DerivedVendorReportedEchoSpacing": 0.000560011,
  "DeviceSerialNumber": "167006",
  "DwellTime": 2.1e-06,
  "EchoTime": 0.037,
  "EchoTrainLength": 104,
  "EffectiveEchoSpacing": 0.000560011,
  "FlipAngle": 52,
  "ImageComments": "Unaliased_MB4_PE3_LB",
  "ImageOrientationPatientDICOM": [0.997471, 1.32575e-05, -0.0710691, -0.0109682, 0.988048, -0.153757],
  "ImageType": [
    "ORIGINAL",
    "PRIMARY",
    "M",
    "MB",
    "ND",
    "MOSAIC"
],
  "ImagingFrequency": 123.259,
  "InPlanePhaseEncodingDirectionDICOM": "COL",
  "InstitutionAddress": "Chemin_Queen-Mary_4565_Montreal_District_CA_H3W_1W5",
  "InstitutionName": "IUGM",
  "InstitutionalDepartmentName": "Department",
  "MRAcquisitionType": "2D",
  "MagneticFieldStrength": 3,
  "Manufacturer": "Siemens",
  "ManufacturersModelName": "Prisma_fit",
  "Modality": "MR",
  "MultibandAccelerationFactor": 4,
  "PartialFourier": 1,
  "PatientPosition": "HFS",
  "PercentPhaseFOV": 100,
  "PercentSampling": 100,
  "PhaseEncodingDirection": "j",
  "PhaseEncodingSteps": 104,
  "PhaseResolution": 1,
  "PixelBandwidth": 2290,
  "ProcedureStepDescription": "hcptrt_generic",
  "ProtocolName": "func_task-social_run-2",
  "PulseSequenceDetails": "%CustomerSeq%_cmrr_mbep2d_bold",
  "ReceiveCoilActiveElements": "HC1-7;NC1,2",
  "ReceiveCoilName": "HeadNeck_64",
  "ReconMatrixPE": 104,
  "RepetitionTime": 1.49,
  "SAR": 0.0297048,
  "ScanOptions": "FS",
  "ScanningSequence": "EP",
  "SequenceName": "epfid2d1_104",
  "SequenceVariant": "SK_SS",
  "SeriesDescription": "func_task-social_run-2",
  "SeriesNumber": 46,
  "ShimSetting": [592, -7259, -8840, 600, -43, -305, 30, 43],
  "SliceThickness": 2,
  "SliceTiming": [0, 0.7825, 0.0975, 0.88, 0.195, 0.98, 0.2925, 1.0775, 0.3925, 1.175, 0.49, 1.2725, 0.5875, 1.37, 0.685, 0, 0.7825, 0.0975, 0.88, 0.195, 0.98, 0.2925, 1.0775, 0.3925, 1.175, 0.49, 1.2725, 0.5875, 1.37, 0.685, 0, 0.7825, 0.0975, 0.88, 0.195, 0.98, 0.2925, 1.0775, 0.3925, 1.175, 0.49, 1.2725, 0.5875, 1.37, 0.685, 0, 0.7825, 0.0975, 0.88, 0.195, 0.98, 0.2925, 1.0775, 0.3925, 1.175, 0.49, 1.2725, 0.5875, 1.37, 0.685],
  "SoftwareVersions": "syngo_MR_E11",
  "SpacingBetweenSlices": 2,
  "StationName": "MRC35049",
  "TaskName": "social",
  "TotalReadoutTime": 0.0576811,
  "TxRefAmp": 219.589,
  "WipMemBlock": "bedca792-1904-4194-9f03-19c9b757b195||Sequence: R016 ve11c/master r/e634e98; Dec 19 2017 11:00:25 by eja",
  "dcmmeta_affine": [
    [-1.9949427843093872, -0.021936427801847458, -0.14043518900871277, 107.51050567626953],
    [-2.6515001081861556e-05, 1.9760955572128296, -0.3082958161830902, -78.00534057617188],
    [-0.14213813841342926, 0.30751439929008484, 1.9710991382598877, -38.47615051269531],
    [0.0, 0.0, 0.0, 1.0]
],
  "dcmmeta_reorient_transform": [
    [0.0, -1.0, 0.0, 103.0],
    [1.0, 0.0, 0.0, 0.0],
    [0.0, 0.0, 1.0, 0.0],
    [0.0, 0.0, 0.0, 1.0]
],
  "dcmmeta_shape": [104, 104, 60, 139],
  "dcmmeta_slice_dim": 2,
  "dcmmeta_version": 0.6,
  "global": {
    "const": {
      "AcquisitionMatrix": [104, 0, 0, 104],
      "AngioFlag": "N",
      "BitsAllocated": 16,
      "BitsStored": 16,
      "BodyPartExamined": "BRAIN",
      "Columns": 832,
      "EchoNumbers": 1,
      "EchoTime": 37.0,
      "EchoTrainLength": 104,
      "FlipAngle": 52.0,
      "HighBit": 15,
      "ImageOrientationPatient": [0.99747139691479, 1.325750097e-05, -0.0710690661336, -0.0109682134981, 0.98804778404642, -0.1537571940874],
      "ImagePositionPatient": [-823.42536938595, -844.84093741582, 156.87134930648],
      "ImageType": [
        "ORIGINAL",
        "PRIMARY",
        "M",
        "MB",
        "ND",
        "MOSAIC"
],
      "ImagedNucleus": "1H",
      "ImagingFrequency": 123.259087,
      "InPlanePhaseEncodingDirection": "COL",
      "MRAcquisitionType": "2D",
      "MagneticFieldStrength": 3.0,
      "Manufacturer": "SIEMENS",
      "ManufacturerModelName": "Prisma_fit",
      "Modality": "MR",
      "NumberOfAverages": 1.0,
      "NumberOfPhaseEncodingSteps": 104,
      "PercentPhaseFieldOfView": 100.0,
      "PercentSampling": 100.0,
      "PerformedProcedureStepStartTime": "091713.136000",
      "PhotometricInterpretation": "MONOCHROME2",
      "PixelBandwidth": 2290.0,
      "PixelRepresentation": 0,
      "PixelSpacing": [2.0, 2.0],
      "ProtocolName": "func_task-social_run-2",
      "RepetitionTime": 1490.0,
      "Rows": 832,
      "SAR": 0.02970480529873,
      "SamplesPerPixel": 1,
      "ScanOptions": "FS",
      "ScanningSequence": "EP",
      "SequenceName": "epfid2d1_104",
      "SequenceVariant": [
        "SK",
        "SS"
],
      "SeriesDescription": "func_task-social_run-2",
      "SeriesNumber": 46,
      "SeriesTime": "104932.355000",
      "SliceLocation": -33.444921068371,
      "SliceThickness": 2.0,
      "SmallestImagePixelValue": 0,
      "SoftwareVersions": "syngo MR E11",
      "SpacingBetweenSlices": 2.0000000107342,
      "SpecificCharacterSet": "ISO_IR 100",
      "StudyID": "1",
      "StudyTime": "091713.042000",
      "TransmitCoilName": "Body",
      "VariableFlipAngleFlag": "N",
      "WindowCenterWidthExplanation": "Algo1",
      "dBdt": 0.0},
    "slices": {}
  },
  "time": {
    "samples": {
      "AcquisitionNumber": [1, 2, 3, 4, 5, 6, 7, 8, 9, 10, 11, 12, 13, 14, 15, 16, 17, 18, 19, 20, 21, 22, 23, 24, 25, 26, 27, 28, 29, 30, 31, 32, 33, 34, 35, 36, 37, 38, 39, 40, 41, 42, 43, 44, 45, 46, 47, 48, 49, 50, 51, 52, 53, 54, 55, 56, 57, 58, 59, 60, 61, 62, 63, 64, 65, 66, 67, 68, 69, 70, 71, 72, 73, 74, 75, 76, 77, 78, 79, 80, 81, 82, 83, 84, 85, 86, 87, 88, 89, 90, 91, 92, 93, 94, 95, 96, 97, 98, 99, 100, 101, 102, 103, 104, 105, 106, 107, 108, 109, 110, 111, 112, 113, 114, 115, 116, 117, 118, 119, 120, 121, 122, 123, 124, 125, 126, 127, 128, 129, 130, 131, 132, 133, 134, 135, 136, 137, 138, 139],
      "AcquisitionTime": ["104805.467500", "104806.957500", "104808.447500", "104809.937500", "104811.427500", "104812.917500", "104814.407500", "104815.897500", "104817.387500", "104818.877500", "104820.367500", "104821.857500", "104823.347500", "104824.837500", "104826.327500", "104827.817500", "104829.307500", "104830.797500", "104832.287500", "104833.777500", "104835.267500", "104836.757500", "104838.247500", "104839.737500", "104841.227500", "104842.717500", "104844.207500", "104845.697500", "104847.187500", "104848.677500", "104850.167500", "104851.657500", "104853.147500", "104854.637500", "104856.127500", "104857.617500", "104859.107500", "104900.597500", "104902.087500", "104903.577500", "104905.067500", "104906.557500", "104908.047500", "104909.537500", "104911.027500", "104912.517500", "104914.007500", "104915.497500", "104916.987500", "104918.477500", "104919.967500", "104921.457500", "104922.947500", "104924.437500", "104925.927500", "104927.417500", "104928.907500", "104930.397500", "104931.887500", "104933.377500", "104934.867500", "104936.357500", "104937.847500", "104939.337500", "104940.827500", "104942.317500", "104943.807500", "104945.297500", "104946.787500", "104948.277500", "104949.767500", "104951.257500", "104952.747500", "104954.237500", "104955.727500", "104957.217500", "104958.707500", "105000.197500", "105001.687500", "105003.177500", "105004.667500", "105006.157500", "105007.647500", "105009.137500", "105010.627500", "105012.117500", "105013.607500", "105015.097500", "105016.587500", "105018.077500", "105019.567500", "105021.057500", "105022.547500", "105024.037500", "105025.527500", "105027.017500", "105028.507500", "105029.997500", "105031.487500", "105032.977500", "105034.467500", "105035.957500", "105037.447500", "105038.937500", "105040.427500", "105041.917500", "105043.407500", "105044.897500", "105046.387500", "105047.877500", "105049.367500", "105050.857500", "105052.347500", "105053.837500", "105055.327500", "105056.817500", "105058.307500", "105059.797500", "105101.287500", "105102.777500", "105104.267500", "105105.757500", "105107.247500", "105108.737500", "105110.227500", "105111.717500", "105113.207500", "105114.697500", "105116.187500", "105117.677500", "105119.167500", "105120.657500", "105122.147500", "105123.637500", "105125.127500", "105126.617500", "105128.107500", "105129.597500", "105131.087500"],
      "ContentTime": ["104932.357000", "104932.361000", "104932.364000", "104932.367000", "104932.370000", "104932.373000", "104932.376000", "104932.379000", "104932.382000", "104932.385000", "104932.388000", "104932.391000", "104932.394000", "104932.397000", "104932.400000", "104932.403000", "104932.405000", "104932.408000", "104932.411000", "104932.414000", "104932.426000", "104932.429000", "104932.432000", "104932.435000", "104932.438000", "104932.441000", "104932.444000", "104932.447000", "104932.450000", "104932.453000", "104932.456000", "104932.459000", "104952.317000", "104952.320000", "104952.323000", "104952.326000", "104952.329000", "104952.333000", "104952.336000", "104952.339000", "104952.342000", "104952.345000", "104952.348000", "104952.351000", "104952.354000", "104952.357000", "104952.360000", "104952.363000", "104952.366000", "104952.369000", "104952.371000", "104952.374000", "105012.317000", "105012.320000", "105012.323000", "105012.326000", "105012.329000", "105012.332000", "105012.335000", "105012.338000", "105012.341000", "105012.344000", "105012.347000", "105012.350000", "105012.353000", "105012.356000", "105012.359000", "105012.362000", "105012.365000", "105012.368000", "105012.371000", "105012.374000", "105012.377000", "105032.316000", "105032.319000", "105032.322000", "105032.325000", "105032.328000", "105032.331000", "105032.334000", "105032.337000", "105032.340000", "105032.343000", "105032.346000", "105032.349000", "105032.352000", "105032.355000", "105032.358000", "105032.361000", "105032.364000", "105032.367000", "105032.370000", "105032.373000", "105112.317000", "105112.320000", "105112.323000", "105112.326000", "105112.329000", "105112.332000", "105112.335000", "105112.338000", "105112.341000", "105112.344000", "105112.347000", "105112.350000", "105112.353000", "105112.356000", "105112.359000", "105112.362000", "105112.365000", "105112.368000", "105112.371000", "105112.374000", "105112.377000", "105112.380000", "105112.383000", "105112.386000", "105112.389000", "105112.392000", "105112.395000", "105112.398000", "105112.401000", "105112.404000", "105112.407000", "105112.410000", "105132.756000", "105132.760000", "105132.763000", "105132.766000", "105132.769000", "105132.772000", "105132.775000", "105132.778000", "105132.781000", "105132.784000", "105132.787000", "105132.790000", "105132.793000", "105132.796000"],
      "InstanceCreationTime": ["104932.357000", "104932.361000", "104932.364000", "104932.367000", "104932.370000", "104932.373000", "104932.376000", "104932.379000", "104932.382000", "104932.385000", "104932.388000", "104932.391000", "104932.394000", "104932.397000", "104932.400000", "104932.403000", "104932.405000", "104932.408000", "104932.411000", "104932.414000", "104932.426000", "104932.429000", "104932.432000", "104932.435000", "104932.438000", "104932.441000", "104932.444000", "104932.447000", "104932.450000", "104932.453000", "104932.456000", "104932.459000", "104952.317000", "104952.320000", "104952.323000", "104952.326000", "104952.329000", "104952.333000", "104952.336000", "104952.339000", "104952.342000", "104952.345000", "104952.348000", "104952.351000", "104952.354000", "104952.357000", "104952.360000", "104952.363000", "104952.366000", "104952.369000", "104952.371000", "104952.374000", "105012.317000", "105012.320000", "105012.323000", "105012.326000", "105012.329000", "105012.332000", "105012.335000", "105012.338000", "105012.341000", "105012.344000", "105012.347000", "105012.350000", "105012.353000", "105012.356000", "105012.359000", "105012.362000", "105012.365000", "105012.368000", "105012.371000", "105012.374000", "105012.377000", "105032.316000", "105032.319000", "105032.322000", "105032.325000", "105032.328000", "105032.331000", "105032.334000", "105032.337000", "105032.340000", "105032.343000", "105032.346000", "105032.349000", "105032.352000", "105032.355000", "105032.358000", "105032.361000", "105032.364000", "105032.367000", "105032.370000", "105032.373000", "105112.317000", "105112.320000", "105112.323000", "105112.326000", "105112.329000", "105112.332000", "105112.335000", "105112.338000", "105112.341000", "105112.344000", "105112.347000", "105112.350000", "105112.353000", "105112.356000", "105112.359000", "105112.362000", "105112.365000", "105112.368000", "105112.371000", "105112.374000", "105112.377000", "105112.380000", "105112.383000", "105112.386000", "105112.389000", "105112.392000", "105112.395000", "105112.398000", "105112.401000", "105112.404000", "105112.407000", "105112.410000", "105132.756000", "105132.760000", "105132.763000", "105132.766000", "105132.769000", "105132.772000", "105132.775000", "105132.778000", "105132.781000", "105132.784000", "105132.787000", "105132.790000", "105132.793000", "105132.796000"],
      "InstanceNumber": [1, 2, 3, 4, 5, 6, 7, 8, 9, 10, 11, 12, 13, 14, 15, 16, 17, 18, 19, 20, 21, 22, 23, 24, 25, 26, 27, 28, 29, 30, 31, 32, 33, 34, 35, 36, 37, 38, 39, 40, 41, 42, 43, 44, 45, 46, 47, 48, 49, 50, 51, 52, 53, 54, 55, 56, 57, 58, 59, 60, 61, 62, 63, 64, 65, 66, 67, 68, 69, 70, 71, 72, 73, 74, 75, 76, 77, 78, 79, 80, 81, 82, 83, 84, 85, 86, 87, 88, 89, 90, 91, 92, 93, 94, 95, 96, 97, 98, 99, 100, 101, 102, 103, 104, 105, 106, 107, 108, 109, 110, 111, 112, 113, 114, 115, 116, 117, 118, 119, 120, 121, 122, 123, 124, 125, 126, 127, 128, 129, 130, 131, 132, 133, 134, 135, 136, 137, 138, 139],
      "LargestImagePixelValue": [44717, 44511, 43563, 43027, 43011, 42942, 42836, 42509, 43048, 43334, 42700, 42835, 42374, 43116, 43205, 43620, 43092, 42826, 42596, 43021, 42757, 42968, 43217, 43609, 42396, 42936, 43225, 42496, 42970, 42927, 43069, 43270, 43347, 42892, 43402, 43434, 43283, 43394, 42462, 43441, 42580, 42726, 41777, 42301, 42042, 42396, 42585, 42430, 42191, 41809, 42377, 42425, 42537, 43037, 42113, 41963, 41911, 42259, 42556, 41875, 41885, 41780, 42146, 42089, 41796, 41471, 41730, 41917, 41865, 41980, 42259, 41744, 42138, 42255, 41871, 42022, 41800, 41784, 41760, 41792, 41807, 41977, 41842, 41820, 42253, 42315, 42065, 42091, 42020, 41970, 41943, 41923, 41751, 41705, 42028, 42039, 42094, 42204, 41904, 42534, 41838, 41490, 41686, 41665, 42255, 42259, 41707, 42321, 41592, 42297, 41544, 41679, 42178, 42003, 42187, 42113, 42329, 42653, 42559, 42673, 41962, 42455, 42293, 42790, 42114, 42031, 42596, 42881, 42518, 42783, 42607, 42752, 42672, 42843, 42211, 42830, 42463, 42601, 42111],
      "WindowCenter": [10023.0, 9978.0, 9965.0, 9959.0, 9965.0, 9966.0, 9958.0, 9951.0, 9945.0, 9945.0, 9954.0, 9956.0, 9960.0, 9971.0, 9962.0, 9962.0, 9964.0, 9967.0, 9961.0, 9957.0, 9942.0, 9938.0, 9944.0, 9950.0, 9941.0, 9946.0, 9937.0, 9924.0, 9928.0, 9929.0, 9945.0, 9945.0, 9946.0, 9947.0, 9952.0, 9953.0, 9959.0, 9967.0, 9957.0, 9953.0, 9934.0, 9937.0, 9944.0, 9952.0, 9953.0, 9950.0, 9946.0, 9948.0, 9949.0, 9948.0, 9945.0, 9942.0, 9940.0, 9938.0, 9943.0, 9936.0, 9930.0, 9926.0, 9924.0, 9926.0, 9933.0, 9934.0, 9941.0, 9950.0, 9946.0, 9941.0, 9941.0, 9945.0, 9937.0, 9944.0, 9951.0, 9947.0, 9955.0, 9950.0, 9935.0, 9928.0, 9944.0, 9946.0, 9945.0, 9938.0, 9928.0, 9926.0, 9935.0, 9953.0, 9963.0, 9963.0, 9953.0, 9945.0, 9947.0, 9959.0, 9962.0, 9964.0, 9958.0, 9950.0, 9954.0, 9946.0, 9951.0, 9952.0, 9960.0, 9960.0, 9954.0, 9937.0, 9915.0, 9902.0, 9898.0, 9902.0, 9892.0, 9904.0, 9908.0, 9925.0, 9928.0, 9930.0, 9941.0, 9943.0, 9944.0, 9950.0, 9951.0, 9960.0, 9960.0, 9960.0, 9952.0, 9952.0, 9950.0, 9950.0, 9944.0, 9938.0, 9934.0, 9925.0, 9925.0, 9923.0, 9923.0, 9922.0, 9924.0, 9937.0, 9940.0, 9949.0, 9935.0, 9935.0, 9929.0],
      "WindowWidth": [21450.0, 21319.0, 21273.0, 21253.0, 21259.0, 21260.0, 21239.0, 21220.0, 21201.0, 21200.0, 21223.0, 21230.0, 21241.0, 21260.0, 21239.0, 21236.0, 21242.0, 21253.0, 21243.0, 21231.0, 21198.0, 21188.0, 21194.0, 21210.0, 21198.0, 21205.0, 21184.0, 21158.0, 21165.0, 21170.0, 21202.0, 21202.0, 21206.0, 21206.0, 21214.0, 21219.0, 21229.0, 21249.0, 21231.0, 21217.0, 21181.0, 21185.0, 21204.0, 21224.0, 21226.0, 21216.0, 21201.0, 21209.0, 21213.0, 21215.0, 21207.0, 21198.0, 21189.0, 21186.0, 21200.0, 21187.0, 21173.0, 21162.0, 21157.0, 21165.0, 21177.0, 21183.0, 21197.0, 21214.0, 21211.0, 21201.0, 21202.0, 21208.0, 21193.0, 21206.0, 21218.0, 21213.0, 21230.0, 21214.0, 21183.0, 21170.0, 21205.0, 21211.0, 21210.0, 21195.0, 21170.0, 21166.0, 21186.0, 21225.0, 21248.0, 21248.0, 21223.0, 21207.0, 21210.0, 21236.0, 21247.0, 21252.0, 21240.0, 21222.0, 21226.0, 21209.0, 21214.0, 21219.0, 21237.0, 21237.0, 21228.0, 21190.0, 21141.0, 21110.0, 21099.0, 21103.0, 21086.0, 21110.0, 21124.0, 21162.0, 21170.0, 21174.0, 21196.0, 21199.0, 21205.0, 21213.0, 21219.0, 21236.0, 21236.0, 21237.0, 21220.0, 21218.0, 21211.0, 21210.0, 21201.0, 21188.0, 21178.0, 21158.0, 21158.0, 21153.0, 21155.0, 21150.0, 21155.0, 21183.0, 21190.0, 21208.0, 21183.0, 21182.0, 21169.0]
    },
    "slices": {}
  }
}