{
  "AcquisitionMatrixPE": 104,
  "AcquisitionNumber": 1,
  "AcquisitionTime": "10:27:49.842500",
  "BandwidthPerPixelPhaseEncode": 17.17,
  "BaseResolution": 104,
  "BodyPartExamined": "BRAIN",
  "CoilString": "HC1-7;NC1_2",
  "ConsistencyInfo": "N4_VE11C_LATEST_20160120",
  "ConversionSoftware": "dcm2niix",
  "ConversionSoftwareVersion": "v1.0.20200427",
  "DerivedVendorReportedEchoSpacing": 0.000560011,
  "DeviceSerialNumber": "167006",
  "DwellTime": 2.1e-06,
  "EchoTime": 0.037,
  "EchoTrainLength": 104,
  "EffectiveEchoSpacing": 0.000560011,
  "FlipAngle": 52,
  "ImageComments": "Unaliased_MB4_PE3_LB",
  "ImageOrientationPatientDICOM": [0.997992, -0.00387701, -0.0632161, -0.00923188, 0.978559, -0.205758],
  "ImageType": [
    "ORIGINAL",
    "PRIMARY",
    "M",
    "MB",
    "ND",
    "MOSAIC"
],
  "ImagingFrequency": 123.259,
  "InPlanePhaseEncodingDirectionDICOM": "COL",
  "InstitutionAddress": "Chemin_Queen-Mary_4565_Montreal_District_CA_H3W_1W5",
  "InstitutionName": "IUGM",
  "InstitutionalDepartmentName": "Department",
  "MRAcquisitionType": "2D",
  "MagneticFieldStrength": 3,
  "Manufacturer": "Siemens",
  "ManufacturersModelName": "Prisma_fit",
  "Modality": "MR",
  "MultibandAccelerationFactor": 4,
  "PartialFourier": 1,
  "PatientPosition": "HFS",
  "PercentPhaseFOV": 100,
  "PercentSampling": 100,
  "PhaseEncodingDirection": "j",
  "PhaseEncodingSteps": 104,
  "PhaseResolution": 1,
  "PixelBandwidth": 2290,
  "ProcedureStepDescription": "hcptrt_generic",
  "ProtocolName": "func_task-motor_run-2",
  "PulseSequenceDetails": "%CustomerSeq%_cmrr_mbep2d_bold",
  "ReceiveCoilActiveElements": "HC1-7;NC1,2",
  "ReceiveCoilName": "HeadNeck_64",
  "ReconMatrixPE": 104,
  "RepetitionTime": 1.49,
  "SAR": 0.0279309,
  "ScanOptions": "FS",
  "ScanningSequence": "EP",
  "SequenceName": "epfid2d1_104",
  "SequenceVariant": "SK_SS",
  "SeriesDescription": "func_task-motor_run-2",
  "SeriesNumber": 33,
  "ShimSetting": [595, -7251, -8834, 615, -66, -278, -3, 56],
  "SliceThickness": 2,
  "SliceTiming": [0, 0.785, 0.1, 0.8825, 0.1975, 0.98, 0.295, 1.08, 0.3925, 1.1775, 0.49, 1.275, 0.59, 1.3725, 0.6875, 0, 0.785, 0.1, 0.8825, 0.1975, 0.98, 0.295, 1.08, 0.3925, 1.1775, 0.49, 1.275, 0.59, 1.3725, 0.6875, 0, 0.785, 0.1, 0.8825, 0.1975, 0.98, 0.295, 1.08, 0.3925, 1.1775, 0.49, 1.275, 0.59, 1.3725, 0.6875, 0, 0.785, 0.1, 0.8825, 0.1975, 0.98, 0.295, 1.08, 0.3925, 1.1775, 0.49, 1.275, 0.59, 1.3725, 0.6875],
  "SoftwareVersions": "syngo_MR_E11",
  "SpacingBetweenSlices": 2,
  "StationName": "MRC35049",
  "TaskName": "motor",
  "TotalReadoutTime": 0.0576811,
  "TxRefAmp": 216.194,
  "WipMemBlock": "7c749ffb-5eb9-4fb4-9ada-200464612a97||Sequence: R016 ve11c/master r/e634e98; Dec 19 2017 11:00:25 by eja",
  "dcmmeta_affine": [
    [-1.995984673500061, -0.018463756889104843, -0.12531694769859314, 107.24666595458984],
    [0.0077540138736367226, 1.9571187496185303, -0.4118569493293762, -75.14183807373047],
    [-0.12643228471279144, 0.4115159213542938, 1.953117847442627, -46.070335388183594],
    [0.0, 0.0, 0.0, 1.0]
],
  "dcmmeta_reorient_transform": [
    [0.0, -1.0, 0.0, 103.0],
    [1.0, 0.0, 0.0, 0.0],
    [0.0, 0.0, 1.0, 0.0],
    [0.0, 0.0, 0.0, 1.0]
],
  "dcmmeta_shape": [104, 104, 60, 144],
  "dcmmeta_slice_dim": 2,
  "dcmmeta_version": 0.6,
  "global": {
    "const": {
      "AcquisitionMatrix": [104, 0, 0, 104],
      "AngioFlag": "N",
      "BitsAllocated": 16,
      "BitsStored": 16,
      "BodyPartExamined": "BRAIN",
      "Columns": 832,
      "EchoNumbers": 1,
      "EchoTime": 37.0,
      "EchoTrainLength": 104,
      "FlipAngle": 52.0,
      "HighBit": 15,
      "ImageOrientationPatient": [0.99799232857133, -0.0038770069509, -0.0632161445351, -0.0092318783144, 0.97855936591512, -0.2057579641292],
      "ImagePositionPatient": [-825.16250763256, -836.01014930921, 192.12895718794],
      "ImageType": [
        "ORIGINAL",
        "PRIMARY",
        "M",
        "MB",
        "ND",
        "MOSAIC"
],
      "ImagedNucleus": "1H",
      "ImagingFrequency": 123.259087,
      "InPlanePhaseEncodingDirection": "COL",
      "MRAcquisitionType": "2D",
      "MagneticFieldStrength": 3.0,
      "Manufacturer": "SIEMENS",
      "ManufacturerModelName": "Prisma_fit",
      "Modality": "MR",
      "NumberOfAverages": 1.0,
      "NumberOfPhaseEncodingSteps": 104,
      "PercentPhaseFieldOfView": 100.0,
      "PercentSampling": 100.0,
      "PerformedProcedureStepStartTime": "091713.136000",
      "PhotometricInterpretation": "MONOCHROME2",
      "PixelBandwidth": 2290.0,
      "PixelRepresentation": 0,
      "PixelSpacing": [2.0, 2.0],
      "ProtocolName": "func_task-motor_run-2",
      "RepetitionTime": 1490.0,
      "Rows": 832,
      "SAR": 0.02793091044434,
      "SamplesPerPixel": 1,
      "ScanOptions": "FS",
      "ScanningSequence": "EP",
      "SequenceName": "epfid2d1_104",
      "SequenceVariant": [
        "SK",
        "SS"
],
      "SeriesDescription": "func_task-motor_run-2",
      "SeriesNumber": 33,
      "SeriesTime": "102917.539000",
      "SliceLocation": -36.236466189229,
      "SliceThickness": 2.0,
      "SmallestImagePixelValue": 0,
      "SoftwareVersions": "syngo MR E11",
      "SpacingBetweenSlices": 1.9999999922342,
      "SpecificCharacterSet": "ISO_IR 100",
      "StudyID": "1",
      "StudyTime": "091713.042000",
      "TransmitCoilName": "Body",
      "VariableFlipAngleFlag": "N",
      "WindowCenterWidthExplanation": "Algo1",
      "dBdt": 0.0},
    "slices": {}
  },
  "time": {
    "samples": {
      "AcquisitionNumber": [1, 2, 3, 4, 5, 6, 7, 8, 9, 10, 11, 12, 13, 14, 15, 16, 17, 18, 19, 20, 21, 22, 23, 24, 25, 26, 27, 28, 29, 30, 31, 32, 33, 34, 35, 36, 37, 38, 39, 40, 41, 42, 43, 44, 45, 46, 47, 48, 49, 50, 51, 52, 53, 54, 55, 56, 57, 58, 59, 60, 61, 62, 63, 64, 65, 66, 67, 68, 69, 70, 71, 72, 73, 74, 75, 76, 77, 78, 79, 80, 81, 82, 83, 84, 85, 86, 87, 88, 89, 90, 91, 92, 93, 94, 95, 96, 97, 98, 99, 100, 101, 102, 103, 104, 105, 106, 107, 108, 109, 110, 111, 112, 113, 114, 115, 116, 117, 118, 119, 120, 121, 122, 123, 124, 125, 126, 127, 128, 129, 130, 131, 132, 133, 134, 135, 136, 137, 138, 139, 140, 141, 142, 143, 144],
      "AcquisitionTime": ["102749.842500", "102751.332500", "102752.822500", "102754.312500", "102755.802500", "102757.292500", "102758.782500", "102800.272500", "102801.762500", "102803.252500", "102804.742500", "102806.232500", "102807.722500", "102809.212500", "102810.702500", "102812.192500", "102813.682500", "102815.172500", "102816.662500", "102818.152500", "102819.642500", "102821.132500", "102822.622500", "102824.112500", "102825.602500", "102827.092500", "102828.582500", "102830.072500", "102831.562500", "102833.052500", "102834.542500", "102836.032500", "102837.522500", "102839.012500", "102840.502500", "102841.992500", "102843.482500", "102844.972500", "102846.462500", "102847.952500", "102849.442500", "102850.932500", "102852.422500", "102853.912500", "102855.402500", "102856.892500", "102858.382500", "102859.872500", "102901.362500", "102902.852500", "102904.342500", "102905.832500", "102907.322500", "102908.812500", "102910.302500", "102911.792500", "102913.282500", "102914.772500", "102916.262500", "102917.752500", "102919.242500", "102920.732500", "102922.222500", "102923.712500", "102925.202500", "102926.692500", "102928.182500", "102929.672500", "102931.162500", "102932.652500", "102934.142500", "102935.632500", "102937.122500", "102938.612500", "102940.102500", "102941.592500", "102943.082500", "102944.572500", "102946.062500", "102947.552500", "102949.042500", "102950.532500", "102952.022500", "102953.512500", "102955.002500", "102956.492500", "102957.982500", "102959.472500", "103000.962500", "103002.452500", "103003.942500", "103005.432500", "103006.922500", "103008.412500", "103009.902500", "103011.392500", "103012.882500", "103014.372500", "103015.862500", "103017.352500", "103018.842500", "103020.332500", "103021.822500", "103023.312500", "103024.802500", "103026.292500", "103027.782500", "103029.272500", "103030.762500", "103032.252500", "103033.742500", "103035.232500", "103036.722500", "103038.212500", "103039.702500", "103041.192500", "103042.682500", "103044.172500", "103045.662500", "103047.152500", "103048.642500", "103050.132500", "103051.622500", "103053.112500", "103054.602500", "103056.092500", "103057.582500", "103059.072500", "103100.562500", "103102.052500", "103103.542500", "103105.032500", "103106.522500", "103108.012500", "103109.502500", "103110.992500", "103112.482500", "103113.972500", "103115.462500", "103116.952500", "103118.442500", "103119.932500", "103121.422500", "103122.912500"],
      "ContentTime": ["102917.542000", "102917.546000", "102917.549000", "102917.552000", "102917.561000", "102917.565000", "102917.569000", "102917.572000", "102917.576000", "102917.579000", "102917.582000", "102917.586000", "102917.588000", "102917.608000", "102917.611000", "102917.614000", "102917.617000", "102917.620000", "102917.623000", "102917.626000", "102917.629000", "102917.632000", "102917.635000", "102917.638000", "102917.641000", "102917.645000", "102917.649000", "102917.652000", "102917.655000", "102917.658000", "102917.661000", "102937.509000", "102937.512000", "102937.515000", "102937.518000", "102937.521000", "102937.524000", "102937.527000", "102937.530000", "102937.533000", "102937.536000", "102937.539000", "102937.542000", "102937.545000", "102937.549000", "102937.552000", "102937.555000", "102937.558000", "102937.561000", "102937.564000", "102937.567000", "102937.570000", "102957.509000", "102957.518000", "102957.521000", "102957.524000", "102957.528000", "102957.531000", "102957.533000", "102957.536000", "102957.544000", "102957.547000", "102957.550000", "102957.553000", "102957.556000", "102957.559000", "102957.562000", "102957.565000", "102957.568000", "102957.571000", "102957.574000", "102957.577000", "103017.509000", "103017.512000", "103017.515000", "103017.518000", "103017.521000", "103017.524000", "103017.527000", "103017.530000", "103017.533000", "103017.536000", "103017.539000", "103017.542000", "103017.545000", "103017.548000", "103017.551000", "103017.554000", "103017.557000", "103017.560000", "103017.563000", "103017.566000", "103037.509000", "103037.512000", "103037.515000", "103037.518000", "103037.521000", "103037.524000", "103037.527000", "103037.530000", "103037.533000", "103037.536000", "103037.539000", "103037.542000", "103037.545000", "103037.548000", "103037.551000", "103037.554000", "103037.557000", "103037.560000", "103037.563000", "103037.566000", "103117.509000", "103117.513000", "103117.516000", "103117.519000", "103117.538000", "103117.541000", "103117.544000", "103117.547000", "103117.550000", "103117.553000", "103117.556000", "103117.559000", "103117.562000", "103117.565000", "103117.568000", "103117.571000", "103117.574000", "103117.577000", "103117.580000", "103117.583000", "103117.586000", "103117.589000", "103117.592000", "103117.595000", "103117.598000", "103117.601000", "103124.997000", "103125.002000", "103125.005000", "103125.008000", "103125.011000", "103125.014000"],
      "InstanceCreationTime": ["102917.542000", "102917.546000", "102917.549000", "102917.552000", "102917.561000", "102917.565000", "102917.569000", "102917.572000", "102917.576000", "102917.579000", "102917.582000", "102917.586000", "102917.588000", "102917.608000", "102917.611000", "102917.614000", "102917.617000", "102917.620000", "102917.623000", "102917.626000", "102917.629000", "102917.632000", "102917.635000", "102917.638000", "102917.641000", "102917.645000", "102917.649000", "102917.652000", "102917.655000", "102917.658000", "102917.661000", "102937.509000", "102937.512000", "102937.515000", "102937.518000", "102937.521000", "102937.524000", "102937.527000", "102937.530000", "102937.533000", "102937.536000", "102937.539000", "102937.542000", "102937.545000", "102937.549000", "102937.552000", "102937.555000", "102937.558000", "102937.561000", "102937.564000", "102937.567000", "102937.570000", "102957.509000", "102957.518000", "102957.521000", "102957.524000", "102957.528000", "102957.531000", "102957.533000", "102957.536000", "102957.544000", "102957.547000", "102957.550000", "102957.553000", "102957.556000", "102957.559000", "102957.562000", "102957.565000", "102957.568000", "102957.571000", "102957.574000", "102957.577000", "103017.509000", "103017.512000", "103017.515000", "103017.518000", "103017.521000", "103017.524000", "103017.527000", "103017.530000", "103017.533000", "103017.536000", "103017.539000", "103017.542000", "103017.545000", "103017.548000", "103017.551000", "103017.554000", "103017.557000", "103017.560000", "103017.563000", "103017.566000", "103037.509000", "103037.512000", "103037.515000", "103037.518000", "103037.521000", "103037.524000", "103037.527000", "103037.530000", "103037.533000", "103037.536000", "103037.539000", "103037.542000", "103037.545000", "103037.548000", "103037.551000", "103037.554000", "103037.557000", "103037.560000", "103037.563000", "103037.566000", "103117.509000", "103117.513000", "103117.516000", "103117.519000", "103117.538000", "103117.541000", "103117.544000", "103117.547000", "103117.550000", "103117.553000", "103117.556000", "103117.559000", "103117.562000", "103117.565000", "103117.568000", "103117.571000", "103117.574000", "103117.577000", "103117.580000", "103117.583000", "103117.586000", "103117.589000", "103117.592000", "103117.595000", "103117.598000", "103117.601000", "103124.997000", "103125.002000", "103125.005000", "103125.008000", "103125.011000", "103125.014000"],
      "InstanceNumber": [1, 2, 3, 4, 5, 6, 7, 8, 9, 10, 11, 12, 13, 14, 15, 16, 17, 18, 19, 20, 21, 22, 23, 24, 25, 26, 27, 28, 29, 30, 31, 32, 33, 34, 35, 36, 37, 38, 39, 40, 41, 42, 43, 44, 45, 46, 47, 48, 49, 50, 51, 52, 53, 54, 55, 56, 57, 58, 59, 60, 61, 62, 63, 64, 65, 66, 67, 68, 69, 70, 71, 72, 73, 74, 75, 76, 77, 78, 79, 80, 81, 82, 83, 84, 85, 86, 87, 88, 89, 90, 91, 92, 93, 94, 95, 96, 97, 98, 99, 100, 101, 102, 103, 104, 105, 106, 107, 108, 109, 110, 111, 112, 113, 114, 115, 116, 117, 118, 119, 120, 121, 122, 123, 124, 125, 126, 127, 128, 129, 130, 131, 132, 133, 134, 135, 136, 137, 138, 139, 140, 141, 142, 143, 144],
      "LargestImagePixelValue": [44746, 43936, 43128, 42349, 42244, 42217, 42145, 42772, 42284, 42421, 42188, 42121, 42471, 41854, 42108, 42444, 42421, 42400, 42314, 42663, 42660, 42516, 42712, 41634, 41959, 41904, 42333, 42174, 42212, 42292, 42223, 42201, 41969, 42149, 41816, 42145, 43165, 42777, 42146, 42688, 41860, 42179, 42805, 42156, 42558, 42366, 42312, 42350, 42786, 42576, 42507, 41918, 42315, 41800, 42084, 41943, 42408, 42041, 42422, 42434, 42459, 42670, 41965, 42161, 42163, 42361, 42318, 42432, 42292, 41960, 42414, 42081, 42510, 42384, 42330, 42045, 42147, 42386, 42375, 42109, 42111, 42037, 42063, 42102, 42250, 42063, 41929, 41925, 42479, 42539, 42024, 42342, 42030, 41967, 41810, 41988, 42154, 42272, 42369, 41389, 42108, 42583, 42330, 42352, 42237, 42700, 41838, 42291, 41828, 41608, 42275, 42326, 42207, 42133, 41988, 42298, 41665, 42367, 41618, 42030, 41777, 42169, 42336, 41944, 42365, 41881, 42099, 42004, 42398, 42398, 41605, 41719, 41944, 41743, 42278, 42366, 42565, 42108, 42055, 42163, 41841, 42167, 41752, 41724],
      "WindowCenter": [10019.0, 10007.0, 10000.0, 9993.0, 9975.0, 9956.0, 9946.0, 9950.0, 9952.0, 9959.0, 9962.0, 9959.0, 9953.0, 9945.0, 9943.0, 9960.0, 9960.0, 9960.0, 9953.0, 9948.0, 9950.0, 9965.0, 9970.0, 9958.0, 9948.0, 9944.0, 9944.0, 9961.0, 9962.0, 9960.0, 9945.0, 9944.0, 9945.0, 9953.0, 9947.0, 9951.0, 9950.0, 9950.0, 9951.0, 9950.0, 9945.0, 9950.0, 9964.0, 9953.0, 9962.0, 9961.0, 9953.0, 9951.0, 9958.0, 9960.0, 9953.0, 9952.0, 9951.0, 9944.0, 9952.0, 9945.0, 9951.0, 9939.0, 9951.0, 9957.0, 9964.0, 9977.0, 9973.0, 9956.0, 9929.0, 9933.0, 9933.0, 9949.0, 9952.0, 9938.0, 9941.0, 9934.0, 9940.0, 9942.0, 9944.0, 9943.0, 9937.0, 9945.0, 9945.0, 9953.0, 9954.0, 9953.0, 9947.0, 9943.0, 9937.0, 9937.0, 9937.0, 9929.0, 9941.0, 9948.0, 9960.0, 9977.0, 9965.0, 9949.0, 9937.0, 9927.0, 9926.0, 9931.0, 9950.0, 9946.0, 9944.0, 9938.0, 9925.0, 9925.0, 9931.0, 9939.0, 9935.0, 9935.0, 9936.0, 9935.0, 9942.0, 9949.0, 9943.0, 9943.0, 9935.0, 9942.0, 9937.0, 9952.0, 9940.0, 9945.0, 9945.0, 9950.0, 9943.0, 9943.0, 9949.0, 9944.0, 9934.0, 9929.0, 9941.0, 9949.0, 9940.0, 9937.0, 9929.0, 9920.0, 9932.0, 9940.0, 9941.0, 9942.0, 9936.0, 9951.0, 9953.0, 9954.0, 9941.0, 9956.0],
      "WindowWidth": [21437.0, 21380.0, 21349.0, 21326.0, 21281.0, 21233.0, 21208.0, 21215.0, 21218.0, 21233.0, 21243.0, 21232.0, 21220.0, 21203.0, 21200.0, 21236.0, 21240.0, 21237.0, 21223.0, 21207.0, 21213.0, 21245.0, 21258.0, 21237.0, 21215.0, 21204.0, 21203.0, 21240.0, 21244.0, 21238.0, 21206.0, 21203.0, 21205.0, 21222.0, 21209.0, 21214.0, 21209.0, 21211.0, 21216.0, 21212.0, 21202.0, 21211.0, 21242.0, 21221.0, 21237.0, 21236.0, 21221.0, 21217.0, 21230.0, 21237.0, 21223.0, 21221.0, 21218.0, 21204.0, 21219.0, 21205.0, 21215.0, 21194.0, 21216.0, 21228.0, 21242.0, 21274.0, 21271.0, 21230.0, 21169.0, 21173.0, 21176.0, 21209.0, 21219.0, 21190.0, 21192.0, 21176.0, 21188.0, 21195.0, 21202.0, 21200.0, 21188.0, 21203.0, 21205.0, 21221.0, 21223.0, 21220.0, 21210.0, 21196.0, 21188.0, 21188.0, 21188.0, 21171.0, 21191.0, 21207.0, 21233.0, 21274.0, 21251.0, 21217.0, 21187.0, 21165.0, 21161.0, 21172.0, 21214.0, 21209.0, 21200.0, 21182.0, 21156.0, 21159.0, 21170.0, 21186.0, 21182.0, 21180.0, 21183.0, 21183.0, 21197.0, 21208.0, 21196.0, 21197.0, 21181.0, 21197.0, 21189.0, 21216.0, 21197.0, 21206.0, 21205.0, 21210.0, 21197.0, 21200.0, 21210.0, 21200.0, 21177.0, 21168.0, 21192.0, 21209.0, 21196.0, 21186.0, 21166.0, 21149.0, 21172.0, 21189.0, 21190.0, 21195.0, 21185.0, 21216.0, 21222.0, 21226.0, 21200.0, 21230.0]
    },
    "slices": {}
  }
}