{
  "AcquisitionMatrixPE": 104,
  "AcquisitionNumber": 1,
  "AcquisitionTime": "09:34:11.625000",
  "BandwidthPerPixelPhaseEncode": 17.17,
  "BaseResolution": 104,
  "BodyPartExamined": "BRAIN",
  "CoilString": "HC1-7;NC1_2",
  "ConsistencyInfo": "N4_VE11C_LATEST_20160120",
  "ConversionSoftware": "dcm2niix",
  "ConversionSoftwareVersion": "v1.0.20200427",
  "DerivedVendorReportedEchoSpacing": 0.000560011,
  "DeviceSerialNumber": "167006",
  "DwellTime": 2.1e-06,
  "EchoTime": 0.037,
  "EchoTrainLength": 104,
  "EffectiveEchoSpacing": 0.000560011,
  "FlipAngle": 52,
  "ImageComments": "Unaliased_MB4_PE3_LB",
  "ImageOrientationPatientDICOM": [0.997992, -0.00387701, -0.0632161, -0.00923188, 0.978559, -0.205758],
  "ImageType": [
    "ORIGINAL",
    "PRIMARY",
    "M",
    "MB",
    "ND",
    "MOSAIC"
],
  "ImagingFrequency": 123.259,
  "InPlanePhaseEncodingDirectionDICOM": "COL",
  "InstitutionAddress": "Chemin_Queen-Mary_4565_Montreal_District_CA_H3W_1W5",
  "InstitutionName": "IUGM",
  "InstitutionalDepartmentName": "Department",
  "MRAcquisitionType": "2D",
  "MagneticFieldStrength": 3,
  "Manufacturer": "Siemens",
  "ManufacturersModelName": "Prisma_fit",
  "Modality": "MR",
  "MultibandAccelerationFactor": 4,
  "PartialFourier": 1,
  "PatientPosition": "HFS",
  "PercentPhaseFOV": 100,
  "PercentSampling": 100,
  "PhaseEncodingDirection": "j",
  "PhaseEncodingSteps": 104,
  "PhaseResolution": 1,
  "PixelBandwidth": 2290,
  "ProcedureStepDescription": "hcptrt_generic",
  "ProtocolName": "func_task-wm_run-1",
  "PulseSequenceDetails": "%CustomerSeq%_cmrr_mbep2d_bold",
  "ReceiveCoilActiveElements": "HC1-7;NC1,2",
  "ReceiveCoilName": "HeadNeck_64",
  "ReconMatrixPE": 104,
  "RepetitionTime": 1.49,
  "SAR": 0.0280363,
  "ScanOptions": "FS",
  "ScanningSequence": "EP",
  "SequenceName": "epfid2d1_104",
  "SequenceVariant": "SK_SS",
  "SeriesDescription": "func_task-wm_run-1",
  "SeriesNumber": 9,
  "ShimSetting": [595, -7251, -8834, 615, -66, -278, -3, 56],
  "SliceThickness": 2,
  "SliceTiming": [0, 0.785, 0.0975, 0.8825, 0.1975, 0.98, 0.295, 1.0775, 0.3925, 1.1775, 0.49, 1.275, 0.5875, 1.3725, 0.6875, 0, 0.785, 0.0975, 0.8825, 0.1975, 0.98, 0.295, 1.0775, 0.3925, 1.1775, 0.49, 1.275, 0.5875, 1.3725, 0.6875, 0, 0.785, 0.0975, 0.8825, 0.1975, 0.98, 0.295, 1.0775, 0.3925, 1.1775, 0.49, 1.275, 0.5875, 1.3725, 0.6875, 0, 0.785, 0.0975, 0.8825, 0.1975, 0.98, 0.295, 1.0775, 0.3925, 1.1775, 0.49, 1.275, 0.5875, 1.3725, 0.6875],
  "SoftwareVersions": "syngo_MR_E11",
  "SpacingBetweenSlices": 2,
  "StationName": "MRC35049",
  "TaskName": "wm",
  "TotalReadoutTime": 0.0576811,
  "TxRefAmp": 216.194,
  "WipMemBlock": "d0edb8d4-5a61-4572-a7e3-004bf7639cb3||Sequence: R016 ve11c/master r/e634e98; Dec 19 2017 11:00:25 by eja",
  "dcmmeta_affine": [
    [-1.995984673500061, -0.018463756889104843, -0.12531694769859314, 107.24666595458984],
    [0.0077540138736367226, 1.9571187496185303, -0.4118569493293762, -75.14183807373047],
    [-0.12643228471279144, 0.4115159213542938, 1.953117847442627, -46.070335388183594],
    [0.0, 0.0, 0.0, 1.0]
],
  "dcmmeta_reorient_transform": [
    [0.0, -1.0, 0.0, 103.0],
    [1.0, 0.0, 0.0, 0.0],
    [0.0, 0.0, 1.0, 0.0],
    [0.0, 0.0, 0.0, 1.0]
],
  "dcmmeta_shape": [104, 104, 60, 202],
  "dcmmeta_slice_dim": 2,
  "dcmmeta_version": 0.6,
  "global": {
    "const": {
      "AcquisitionMatrix": [104, 0, 0, 104],
      "AngioFlag": "N",
      "BitsAllocated": 16,
      "BitsStored": 16,
      "BodyPartExamined": "BRAIN",
      "Columns": 832,
      "EchoNumbers": 1,
      "EchoTime": 37.0,
      "EchoTrainLength": 104,
      "FlipAngle": 52.0,
      "HighBit": 15,
      "ImageOrientationPatient": [0.99799232857133, -0.0038770069509, -0.0632161445351, -0.0092318783144, 0.97855936591512, -0.2057579641292],
      "ImagePositionPatient": [-825.16250763256, -836.01014930921, 192.12895718794],
      "ImageType": [
        "ORIGINAL",
        "PRIMARY",
        "M",
        "MB",
        "ND",
        "MOSAIC"
],
      "ImagedNucleus": "1H",
      "ImagingFrequency": 123.259069,
      "InPlanePhaseEncodingDirection": "COL",
      "MRAcquisitionType": "2D",
      "MagneticFieldStrength": 3.0,
      "Manufacturer": "SIEMENS",
      "ManufacturerModelName": "Prisma_fit",
      "Modality": "MR",
      "NumberOfAverages": 1.0,
      "NumberOfPhaseEncodingSteps": 104,
      "PercentPhaseFieldOfView": 100.0,
      "PercentSampling": 100.0,
      "PerformedProcedureStepStartTime": "091713.136000",
      "PhotometricInterpretation": "MONOCHROME2",
      "PixelBandwidth": 2290.0,
      "PixelRepresentation": 0,
      "PixelSpacing": [2.0, 2.0],
      "ProtocolName": "func_task-wm_run-1",
      "RepetitionTime": 1490.0,
      "Rows": 832,
      "SAR": 0.02803633404151,
      "SamplesPerPixel": 1,
      "ScanOptions": "FS",
      "ScanningSequence": "EP",
      "SequenceName": "epfid2d1_104",
      "SequenceVariant": [
        "SK",
        "SS"
],
      "SeriesDescription": "func_task-wm_run-1",
      "SeriesNumber": 9,
      "SeriesTime": "093537.538000",
      "SliceLocation": -36.236466189229,
      "SliceThickness": 2.0,
      "SmallestImagePixelValue": 0,
      "SoftwareVersions": "syngo MR E11",
      "SpacingBetweenSlices": 1.9999999922342,
      "SpecificCharacterSet": "ISO_IR 100",
      "StudyID": "1",
      "StudyTime": "091713.042000",
      "TransmitCoilName": "Body",
      "VariableFlipAngleFlag": "N",
      "WindowCenterWidthExplanation": "Algo1",
      "dBdt": 0.0},
    "slices": {}
  },
  "time": {
    "samples": {
      "AcquisitionNumber": [1, 2, 3, 4, 5, 6, 7, 8, 9, 10, 11, 12, 13, 14, 15, 16, 17, 18, 19, 20, 21, 22, 23, 24, 25, 26, 27, 28, 29, 30, 31, 32, 33, 34, 35, 36, 37, 38, 39, 40, 41, 42, 43, 44, 45, 46, 47, 48, 49, 50, 51, 52, 53, 54, 55, 56, 57, 58, 59, 60, 61, 62, 63, 64, 65, 66, 67, 68, 69, 70, 71, 72, 73, 74, 75, 76, 77, 78, 79, 80, 81, 82, 83, 84, 85, 86, 87, 88, 89, 90, 91, 92, 93, 94, 95, 96, 97, 98, 99, 100, 101, 102, 103, 104, 105, 106, 107, 108, 109, 110, 111, 112, 113, 114, 115, 116, 117, 118, 119, 120, 121, 122, 123, 124, 125, 126, 127, 128, 129, 130, 131, 132, 133, 134, 135, 136, 137, 138, 139, 140, 141, 142, 143, 144, 145, 146, 147, 148, 149, 150, 151, 152, 153, 154, 155, 156, 157, 158, 159, 160, 161, 162, 163, 164, 165, 166, 167, 168, 169, 170, 171, 172, 173, 174, 175, 176, 177, 178, 179, 180, 181, 182, 183, 184, 185, 186, 187, 188, 189, 190, 191, 192, 193, 194, 195, 196, 197, 198, 199, 200, 201, 202],
      "AcquisitionTime": ["093411.625000", "093413.115000", "093414.605000", "093416.095000", "093417.585000", "093419.075000", "093420.565000", "093422.055000", "093423.545000", "093425.035000", "093426.525000", "093428.015000", "093429.505000", "093430.995000", "093432.485000", "093433.975000", "093435.465000", "093436.955000", "093438.445000", "093439.935000", "093441.425000", "093442.915000", "093444.405000", "093445.895000", "093447.385000", "093448.875000", "093450.365000", "093451.855000", "093453.345000", "093454.835000", "093456.325000", "093457.815000", "093459.305000", "093500.795000", "093502.285000", "093503.775000", "093505.265000", "093506.755000", "093508.245000", "093509.735000", "093511.225000", "093512.715000", "093514.205000", "093515.695000", "093517.185000", "093518.675000", "093520.165000", "093521.655000", "093523.145000", "093524.635000", "093526.125000", "093527.615000", "093529.105000", "093530.595000", "093532.085000", "093533.575000", "093535.065000", "093536.555000", "093538.045000", "093539.535000", "093541.025000", "093542.515000", "093544.005000", "093545.495000", "093546.985000", "093548.475000", "093549.965000", "093551.455000", "093552.945000", "093554.435000", "093555.925000", "093557.415000", "093558.905000", "093600.395000", "093601.885000", "093603.375000", "093604.865000", "093606.355000", "093607.845000", "093609.335000", "093610.825000", "093612.315000", "093613.805000", "093615.295000", "093616.785000", "093618.275000", "093619.765000", "093621.255000", "093622.745000", "093624.235000", "093625.725000", "093627.215000", "093628.705000", "093630.195000", "093631.685000", "093633.175000", "093634.665000", "093636.155000", "093637.645000", "093639.135000", "093640.625000", "093642.115000", "093643.605000", "093645.095000", "093646.585000", "093648.075000", "093649.565000", "093651.055000", "093652.545000", "093654.035000", "093655.525000", "093657.015000", "093658.505000", "093659.995000", "093701.485000", "093702.975000", "093704.465000", "093705.955000", "093707.445000", "093708.935000", "093710.425000", "093711.915000", "093713.405000", "093714.895000", "093716.385000", "093717.875000", "093719.365000", "093720.855000", "093722.345000", "093723.835000", "093725.325000", "093726.815000", "093728.305000", "093729.795000", "093731.285000", "093732.775000", "093734.265000", "093735.755000", "093737.245000", "093738.735000", "093740.225000", "093741.715000", "093743.205000", "093744.695000", "093746.185000", "093747.675000", "093749.165000", "093750.655000", "093752.145000", "093753.635000", "093755.125000", "093756.615000", "093758.105000", "093759.595000", "093801.085000", "093802.575000", "093804.065000", "093805.555000", "093807.045000", "093808.535000", "093810.025000", "093811.515000", "093813.005000", "093814.495000", "093815.985000", "093817.475000", "093818.965000", "093820.455000", "093821.945000", "093823.435000", "093824.925000", "093826.415000", "093827.905000", "093829.395000", "093830.885000", "093832.375000", "093833.865000", "093835.355000", "093836.845000", "093838.335000", "093839.825000", "093841.315000", "093842.805000", "093844.295000", "093845.785000", "093847.275000", "093848.765000", "093850.255000", "093851.745000", "093853.235000", "093854.725000", "093856.215000", "093857.705000", "093859.195000", "093900.685000", "093902.175000", "093903.665000", "093905.155000", "093906.645000", "093908.135000", "093909.625000", "093911.115000"],
      "ContentTime": ["093537.541000", "093537.544000", "093537.547000", "093537.550000", "093537.553000", "093537.556000", "093537.559000", "093537.563000", "093537.565000", "093537.568000", "093537.571000", "093537.574000", "093537.577000", "093537.580000", "093537.583000", "093537.586000", "093537.589000", "093537.592000", "093537.595000", "093537.598000", "093537.601000", "093537.604000", "093537.607000", "093537.610000", "093537.613000", "093537.621000", "093537.624000", "093537.627000", "093537.630000", "093537.633000", "093537.636000", "093557.509000", "093557.512000", "093557.515000", "093557.518000", "093557.521000", "093557.524000", "093557.527000", "093557.530000", "093557.533000", "093557.536000", "093557.539000", "093557.542000", "093557.545000", "093557.548000", "093557.551000", "093557.554000", "093557.557000", "093557.560000", "093557.563000", "093557.566000", "093617.510000", "093617.513000", "093617.516000", "093617.519000", "093617.522000", "093617.525000", "093617.528000", "093617.532000", "093617.536000", "093617.539000", "093617.542000", "093617.545000", "093617.548000", "093617.551000", "093617.554000", "093617.557000", "093617.560000", "093617.564000", "093617.567000", "093617.570000", "093637.509000", "093637.512000", "093637.515000", "093637.518000", "093637.521000", "093637.524000", "093637.527000", "093637.530000", "093637.533000", "093637.536000", "093637.539000", "093637.542000", "093637.545000", "093637.548000", "093637.551000", "093637.554000", "093637.557000", "093637.560000", "093637.563000", "093637.566000", "093637.569000", "093717.509000", "093717.512000", "093717.515000", "093717.518000", "093717.521000", "093717.524000", "093717.527000", "093717.530000", "093717.533000", "093717.536000", "093717.539000", "093717.542000", "093717.545000", "093717.548000", "093717.551000", "093717.554000", "093717.557000", "093717.560000", "093717.563000", "093717.566000", "093717.579000", "093717.582000", "093717.585000", "093717.588000", "093717.591000", "093717.594000", "093717.597000", "093717.600000", "093717.603000", "093717.606000", "093717.609000", "093717.612000", "093757.509000", "093757.512000", "093757.516000", "093757.519000", "093757.521000", "093757.525000", "093757.528000", "093757.531000", "093757.534000", "093757.537000", "093757.547000", "093757.550000", "093757.553000", "093757.556000", "093757.559000", "093757.562000", "093757.565000", "093757.568000", "093757.571000", "093757.574000", "093757.577000", "093757.580000", "093757.583000", "093757.586000", "093757.589000", "093757.592000", "093757.596000", "093837.516000", "093837.520000", "093837.523000", "093837.526000", "093837.529000", "093837.532000", "093837.535000", "093837.538000", "093837.541000", "093837.544000", "093837.547000", "093837.551000", "093837.555000", "093837.558000", "093837.562000", "093837.565000", "093837.569000", "093837.573000", "093837.576000", "093837.580000", "093837.583000", "093837.587000", "093837.591000", "093837.594000", "093837.598000", "093837.601000", "093837.604000", "093913.100000", "093913.103000", "093913.107000", "093913.110000", "093913.113000", "093913.116000", "093913.120000", "093913.123000", "093913.126000", "093913.129000", "093913.132000", "093913.135000", "093913.138000", "093913.141000", "093913.144000", "093913.147000", "093913.150000", "093913.153000", "093913.156000", "093913.159000", "093913.162000", "093913.165000", "093913.168000", "093913.171000"],
      "InstanceCreationTime": ["093537.541000", "093537.544000", "093537.547000", "093537.550000", "093537.553000", "093537.556000", "093537.559000", "093537.563000", "093537.565000", "093537.568000", "093537.571000", "093537.574000", "093537.577000", "093537.580000", "093537.583000", "093537.586000", "093537.589000", "093537.592000", "093537.595000", "093537.598000", "093537.601000", "093537.604000", "093537.607000", "093537.610000", "093537.613000", "093537.621000", "093537.624000", "093537.627000", "093537.630000", "093537.633000", "093537.636000", "093557.509000", "093557.512000", "093557.515000", "093557.518000", "093557.521000", "093557.524000", "093557.527000", "093557.530000", "093557.533000", "093557.536000", "093557.539000", "093557.542000", "093557.545000", "093557.548000", "093557.551000", "093557.554000", "093557.557000", "093557.560000", "093557.563000", "093557.566000", "093617.510000", "093617.513000", "093617.516000", "093617.519000", "093617.522000", "093617.525000", "093617.528000", "093617.532000", "093617.536000", "093617.539000", "093617.542000", "093617.545000", "093617.548000", "093617.551000", "093617.554000", "093617.557000", "093617.560000", "093617.564000", "093617.567000", "093617.570000", "093637.509000", "093637.512000", "093637.515000", "093637.518000", "093637.521000", "093637.524000", "093637.527000", "093637.530000", "093637.533000", "093637.536000", "093637.539000", "093637.542000", "093637.545000", "093637.548000", "093637.551000", "093637.554000", "093637.557000", "093637.560000", "093637.563000", "093637.566000", "093637.569000", "093717.509000", "093717.512000", "093717.515000", "093717.518000", "093717.521000", "093717.524000", "093717.527000", "093717.530000", "093717.533000", "093717.536000", "093717.539000", "093717.542000", "093717.545000", "093717.548000", "093717.551000", "093717.554000", "093717.557000", "093717.560000", "093717.563000", "093717.566000", "093717.579000", "093717.582000", "093717.585000", "093717.588000", "093717.591000", "093717.594000", "093717.597000", "093717.600000", "093717.603000", "093717.606000", "093717.609000", "093717.612000", "093757.509000", "093757.512000", "093757.516000", "093757.519000", "093757.521000", "093757.525000", "093757.528000", "093757.531000", "093757.534000", "093757.537000", "093757.547000", "093757.550000", "093757.553000", "093757.556000", "093757.559000", "093757.562000", "093757.565000", "093757.568000", "093757.571000", "093757.574000", "093757.577000", "093757.580000", "093757.583000", "093757.586000", "093757.589000", "093757.592000", "093757.596000", "093837.516000", "093837.520000", "093837.523000", "093837.526000", "093837.529000", "093837.532000", "093837.535000", "093837.538000", "093837.541000", "093837.544000", "093837.547000", "093837.551000", "093837.555000", "093837.558000", "093837.562000", "093837.565000", "093837.569000", "093837.573000", "093837.576000", "093837.580000", "093837.583000", "093837.587000", "093837.591000", "093837.594000", "093837.598000", "093837.601000", "093837.604000", "093913.100000", "093913.103000", "093913.107000", "093913.110000", "093913.113000", "093913.116000", "093913.120000", "093913.123000", "093913.126000", "093913.129000", "093913.132000", "093913.135000", "093913.138000", "093913.141000", "093913.144000", "093913.147000", "093913.150000", "093913.153000", "093913.156000", "093913.159000", "093913.162000", "093913.165000", "093913.168000", "093913.171000"],
      "InstanceNumber": [1, 2, 3, 4, 5, 6, 7, 8, 9, 10, 11, 12, 13, 14, 15, 16, 17, 18, 19, 20, 21, 22, 23, 24, 25, 26, 27, 28, 29, 30, 31, 32, 33, 34, 35, 36, 37, 38, 39, 40, 41, 42, 43, 44, 45, 46, 47, 48, 49, 50, 51, 52, 53, 54, 55, 56, 57, 58, 59, 60, 61, 62, 63, 64, 65, 66, 67, 68, 69, 70, 71, 72, 73, 74, 75, 76, 77, 78, 79, 80, 81, 82, 83, 84, 85, 86, 87, 88, 89, 90, 91, 92, 93, 94, 95, 96, 97, 98, 99, 100, 101, 102, 103, 104, 105, 106, 107, 108, 109, 110, 111, 112, 113, 114, 115, 116, 117, 118, 119, 120, 121, 122, 123, 124, 125, 126, 127, 128, 129, 130, 131, 132, 133, 134, 135, 136, 137, 138, 139, 140, 141, 142, 143, 144, 145, 146, 147, 148, 149, 150, 151, 152, 153, 154, 155, 156, 157, 158, 159, 160, 161, 162, 163, 164, 165, 166, 167, 168, 169, 170, 171, 172, 173, 174, 175, 176, 177, 178, 179, 180, 181, 182, 183, 184, 185, 186, 187, 188, 189, 190, 191, 192, 193, 194, 195, 196, 197, 198, 199, 200, 201, 202],
      "LargestImagePixelValue": [45026, 43940, 42619, 41903, 41636, 42080, 42629, 42063, 41335, 41511, 41612, 41842, 42540, 41902, 42110, 41905, 41590, 42819, 42287, 41575, 42014, 41715, 42633, 42640, 42059, 42491, 41822, 42204, 42251, 42396, 42795, 42628, 42022, 42186, 42457, 41955, 42381, 42034, 42311, 42384, 42204, 41904, 42420, 41705, 42204, 41926, 42427, 42076, 42696, 41899, 42933, 42139, 42264, 42734, 42858, 42789, 42513, 42848, 42618, 42064, 42508, 42140, 41981, 42501, 42768, 42401, 42251, 42450, 42193, 42724, 41918, 42143, 42492, 42180, 42678, 42159, 42363, 42562, 42608, 42034, 42556, 42551, 41866, 42088, 42081, 42608, 42699, 42124, 42438, 42452, 42459, 43212, 42185, 42580, 42008, 42376, 42446, 42164, 42259, 42318, 42002, 41423, 41924, 41808, 42129, 41840, 42015, 41532, 41855, 41585, 41796, 41422, 41586, 41674, 42132, 41362, 41818, 41448, 41481, 41627, 41502, 41822, 42168, 41943, 41324, 41977, 42244, 42610, 41378, 41725, 41800, 42039, 41853, 41309, 41759, 41633, 41712, 42073, 41504, 41958, 41536, 41654, 41321, 41655, 42044, 41695, 42401, 41813, 41881, 41817, 42185, 41954, 41153, 41449, 40857, 41778, 42060, 41119, 41636, 41324, 41457, 42006, 41289, 41518, 41196, 40844, 41466, 41114, 41824, 41902, 41646, 41601, 41231, 41493, 41595, 42074, 41971, 41453, 41797, 41583, 41477, 41673, 41466, 41847, 40952, 41598, 41530, 41550, 41988, 41185, 41645, 41209, 41972, 41704, 41368, 41786, 41623, 42064, 41762, 41460, 41335, 41172],
      "WindowCenter": [10063.0, 10024.0, 9999.0, 9995.0, 9989.0, 9992.0, 9976.0, 9968.0, 9976.0, 10000.0, 10010.0, 10012.0, 10015.0, 10001.0, 9999.0, 9994.0, 9994.0, 10005.0, 9992.0, 9987.0, 9987.0, 9992.0, 10006.0, 10008.0, 10003.0, 10008.0, 9994.0, 10000.0, 10007.0, 10010.0, 10024.0, 10024.0, 10006.0, 10002.0, 9999.0, 9995.0, 10000.0, 9994.0, 9992.0, 9990.0, 9991.0, 9991.0, 10005.0, 9996.0, 9995.0, 9987.0, 9984.0, 9969.0, 9975.0, 9976.0, 9990.0, 9978.0, 9975.0, 9973.0, 9971.0, 9979.0, 9988.0, 9996.0, 9996.0, 9985.0, 9990.0, 9985.0, 9985.0, 9999.0, 9998.0, 9983.0, 9975.0, 9972.0, 9974.0, 9987.0, 9975.0, 9974.0, 9979.0, 9976.0, 9982.0, 9982.0, 9975.0, 9981.0, 9991.0, 9987.0, 9992.0, 9989.0, 9968.0, 9966.0, 9972.0, 9983.0, 9984.0, 9975.0, 9974.0, 9988.0, 9999.0, 10007.0, 9994.0, 9983.0, 9961.0, 9958.0, 9965.0, 9967.0, 9973.0, 9992.0, 9992.0, 9973.0, 9967.0, 9959.0, 9982.0, 9993.0, 10002.0, 9991.0, 9980.0, 9971.0, 9970.0, 9972.0, 9985.0, 9972.0, 9970.0, 9956.0, 9983.0, 9978.0, 9973.0, 9970.0, 9961.0, 9959.0, 9964.0, 9974.0, 9971.0, 9978.0, 9984.0, 9983.0, 9973.0, 9973.0, 9978.0, 9970.0, 9961.0, 9962.0, 9964.0, 9969.0, 9970.0, 9963.0, 9956.0, 9962.0, 9960.0, 9962.0, 9963.0, 9963.0, 9953.0, 9944.0, 9949.0, 9948.0, 9953.0, 9959.0, 9960.0, 9961.0, 9955.0, 9962.0, 9963.0, 9970.0, 9971.0, 9958.0, 9962.0, 9961.0, 9954.0, 9959.0, 9955.0, 9962.0, 9954.0, 9941.0, 9951.0, 9947.0, 9970.0, 9970.0, 9972.0, 9965.0, 9956.0, 9961.0, 9968.0, 9971.0, 9977.0, 9970.0, 9970.0, 9962.0, 9957.0, 9963.0, 9964.0, 9970.0, 9959.0, 9970.0, 9963.0, 9971.0, 9977.0, 9966.0, 9965.0, 9950.0, 9953.0, 9946.0, 9953.0, 9963.0, 9954.0, 9952.0, 9945.0, 9945.0, 9955.0, 9956.0],
      "WindowWidth": [21547.0, 21433.0, 21362.0, 21343.0, 21327.0, 21322.0, 21288.0, 21270.0, 21289.0, 21340.0, 21365.0, 21369.0, 21372.0, 21342.0, 21336.0, 21326.0, 21327.0, 21345.0, 21321.0, 21311.0, 21312.0, 21322.0, 21350.0, 21355.0, 21346.0, 21353.0, 21326.0, 21338.0, 21352.0, 21364.0, 21391.0, 21392.0, 21353.0, 21342.0, 21333.0, 21327.0, 21337.0, 21327.0, 21319.0, 21313.0, 21314.0, 21316.0, 21344.0, 21333.0, 21328.0, 21311.0, 21301.0, 21269.0, 21279.0, 21284.0, 21313.0, 21291.0, 21283.0, 21276.0, 21270.0, 21285.0, 21305.0, 21324.0, 21324.0, 21303.0, 21312.0, 21302.0, 21304.0, 21335.0, 21329.0, 21298.0, 21279.0, 21271.0, 21276.0, 21302.0, 21281.0, 21275.0, 21286.0, 21283.0, 21294.0, 21292.0, 21278.0, 21293.0, 21316.0, 21312.0, 21317.0, 21309.0, 21267.0, 21258.0, 21271.0, 21295.0, 21298.0, 21281.0, 21277.0, 21305.0, 21333.0, 21351.0, 21325.0, 21295.0, 21250.0, 21244.0, 21259.0, 21265.0, 21275.0, 21317.0, 21317.0, 21278.0, 21259.0, 21243.0, 21292.0, 21321.0, 21341.0, 21319.0, 21292.0, 21270.0, 21267.0, 21275.0, 21303.0, 21275.0, 21268.0, 21241.0, 21294.0, 21288.0, 21277.0, 21270.0, 21248.0, 21242.0, 21250.0, 21275.0, 21273.0, 21285.0, 21295.0, 21294.0, 21277.0, 21279.0, 21286.0, 21266.0, 21249.0, 21250.0, 21256.0, 21264.0, 21267.0, 21253.0, 21236.0, 21249.0, 21244.0, 21249.0, 21252.0, 21251.0, 21230.0, 21209.0, 21216.0, 21215.0, 21231.0, 21244.0, 21244.0, 21244.0, 21231.0, 21246.0, 21251.0, 21266.0, 21272.0, 21245.0, 21250.0, 21247.0, 21231.0, 21241.0, 21235.0, 21248.0, 21233.0, 21205.0, 21221.0, 21219.0, 21266.0, 21268.0, 21272.0, 21257.0, 21238.0, 21246.0, 21262.0, 21269.0, 21281.0, 21267.0, 21265.0, 21248.0, 21239.0, 21249.0, 21252.0, 21267.0, 21245.0, 21266.0, 21252.0, 21269.0, 21282.0, 21260.0, 21259.0, 21228.0, 21227.0, 21214.0, 21230.0, 21251.0, 21231.0, 21226.0, 21212.0, 21211.0, 21233.0, 21236.0]
    },
    "slices": {}
  }
}