{
  "AcquisitionMatrixPE": 104,
  "AcquisitionNumber": 1,
  "AcquisitionTime": "14:47:18.045000",
  "BandwidthPerPixelPhaseEncode": 17.17,
  "BaseResolution": 104,
  "BodyPartExamined": "BRAIN",
  "CoilString": "HC1-7;NC1_2",
  "ConsistencyInfo": "N4_VE11C_LATEST_20160120",
  "ConversionSoftware": "dcm2niix",
  "ConversionSoftwareVersion": "v1.0.20190902",
  "DerivedVendorReportedEchoSpacing": 0.000560011,
  "DeviceSerialNumber": "167006",
  "DwellTime": 2.1e-06,
  "EchoTime": 0.037,
  "EchoTrainLength": 104,
  "EffectiveEchoSpacing": 0.000560011,
  "FlipAngle": 52,
  "ImageComments": "Unaliased_MB4_PE3_LB",
  "ImageOrientationPatientDICOM": [0.997372, -0.0720245, 0.00779126, 0.0699181, 0.92885, -0.363799],
  "ImageType": [
    "ORIGINAL",
    "PRIMARY",
    "M",
    "MB",
    "ND",
    "MOSAIC"
],
  "ImagingFrequency": 123.259,
  "InPlanePhaseEncodingDirectionDICOM": "COL",
  "InstitutionAddress": "Chemin_Queen-Mary_4565_Montreal_District_CA_H3W_1W5",
  "InstitutionName": "IUGM",
  "InstitutionalDepartmentName": "Department",
  "MRAcquisitionType": "2D",
  "MagneticFieldStrength": 3,
  "Manufacturer": "Siemens",
  "ManufacturersModelName": "Prisma_fit",
  "Modality": "MR",
  "MultibandAccelerationFactor": 4,
  "PartialFourier": 1,
  "PatientPosition": "HFS",
  "PercentPhaseFOV": 100,
  "PhaseEncodingDirection": "j",
  "PhaseEncodingSteps": 104,
  "PhaseResolution": 1,
  "PixelBandwidth": 2290,
  "ProcedureStepDescription": "hcptrt_generic",
  "ProtocolName": "func_task-restingstate_run-1",
  "PulseSequenceDetails": "%CustomerSeq%_cmrr_mbep2d_bold",
  "ReceiveCoilActiveElements": "HC1-7;NC1,2",
  "ReceiveCoilName": "HeadNeck_64",
  "ReconMatrixPE": 104,
  "RepetitionTime": 1.49,
  "SAR": 0.0304671,
  "ScanOptions": "FS",
  "ScanningSequence": "EP",
  "SequenceName": "epfid2d1_104",
  "SequenceVariant": "SK_SS",
  "SeriesDescription": "func_task-restingstate_run-1",
  "SeriesNumber": 9,
  "ShimSetting": [635, -7265, -8832, 598, -1, -229, -52, -9],
  "SliceThickness": 2,
  "SliceTiming": [0, 0.785, 0.0975, 0.8825, 0.1975, 0.98, 0.295, 1.0775, 0.3925, 1.1775, 0.49, 1.275, 0.5875, 1.3725, 0.6875, 0, 0.785, 0.0975, 0.8825, 0.1975, 0.98, 0.295, 1.0775, 0.3925, 1.1775, 0.49, 1.275, 0.5875, 1.3725, 0.6875, 0, 0.785, 0.0975, 0.8825, 0.1975, 0.98, 0.295, 1.0775, 0.3925, 1.1775, 0.49, 1.275, 0.5875, 1.3725, 0.6875, 0, 0.785, 0.0975, 0.8825, 0.1975, 0.98, 0.295, 1.0775, 0.3925, 1.1775, 0.49, 1.275, 0.5875, 1.3725, 0.6875],
  "SoftwareVersions": "syngo_MR_E11",
  "SpacingBetweenSlices": 2,
  "StationName": "MRC35049",
  "TaskName": "restingstate",
  "TotalReadoutTime": 0.0576811,
  "TxRefAmp": 218.093,
  "WipMemBlock": "fed1447e-fe97-457e-b4da-5cb24829b930||Sequence: R016 ve11c/master r/e634e98; Dec 19 2017 11:00:25 by eja",
  "dcmmeta_affine": [
    [-1.994744896888733, 0.1398361325263977, -0.03793108090758324, 100.38220977783203],
    [0.14404894411563873, 1.8576991558074951, -0.7267763018608093, -69.57462310791016],
    [0.015582527965307236, 0.7275986075401306, 1.8628895282745361, -65.5176773071289],
    [0.0, 0.0, 0.0, 1.0]
],
  "dcmmeta_reorient_transform": [
    [0.0, -1.0, 0.0, 103.0],
    [1.0, 0.0, 0.0, 0.0],
    [0.0, 0.0, 1.0, 0.0],
    [0.0, 0.0, 0.0, 1.0]
],
  "dcmmeta_shape": [104, 104, 60, 600],
  "dcmmeta_slice_dim": 2,
  "dcmmeta_version": 0.6,
  "global": {
    "const": {
      "AcquisitionMatrix": [104, 0, 0, 104],
      "AngioFlag": "N",
      "BitsAllocated": 16,
      "BitsStored": 16,
      "BodyPartExamined": "BRAIN",
      "Columns": 832,
      "EchoNumbers": 1,
      "EchoTime": 37.0,
      "EchoTrainLength": 104,
      "FlipAngle": 52.0,
      "HighBit": 15,
      "ImageOrientationPatient": [0.99737243390358, -0.0720244700973, 0.00779126411132, 0.06991806894735, 0.92884956983589, -0.3637993131527],
      "ImagePositionPatient": [-891.77281752213, -745.53706376251, 268.5988394721],
      "ImageType": [
        "ORIGINAL",
        "PRIMARY",
        "M",
        "MB",
        "ND",
        "MOSAIC"
],
      "ImagedNucleus": "1H",
      "ImagingFrequency": 123.259305,
      "InPlanePhaseEncodingDirection": "COL",
      "MRAcquisitionType": "2D",
      "MagneticFieldStrength": 3.0,
      "Manufacturer": "SIEMENS",
      "ManufacturerModelName": "Prisma_fit",
      "Modality": "MR",
      "NumberOfAverages": 1.0,
      "NumberOfPhaseEncodingSteps": 104,
      "PercentPhaseFieldOfView": 100.0,
      "PercentSampling": 100.0,
      "PerformedProcedureStepStartTime": "143307.958000",
      "PhotometricInterpretation": "MONOCHROME2",
      "PixelBandwidth": 2290.0,
      "PixelRepresentation": 0,
      "PixelSpacing": [2.0, 2.0],
      "ProtocolName": "func_task-restingstate_run-1",
      "RepetitionTime": 1490.0,
      "Rows": 832,
      "SAR": 0.03046710700411,
      "SamplesPerPixel": 1,
      "ScanOptions": "FS",
      "ScanningSequence": "EP",
      "SequenceName": "epfid2d1_104",
      "SequenceVariant": [
        "SK",
        "SS"
],
      "SeriesDescription": "func_task-restingstate_run-1",
      "SeriesNumber": 9,
      "SeriesTime": "144834.780000",
      "SliceLocation": -37.647308936288,
      "SliceThickness": 2.0,
      "SmallestImagePixelValue": 0,
      "SoftwareVersions": "syngo MR E11",
      "SpacingBetweenSlices": 1.9999999732819,
      "SpecificCharacterSet": "ISO_IR 100",
      "StudyID": "1",
      "StudyTime": "143307.853000",
      "TransmitCoilName": "Body",
      "VariableFlipAngleFlag": "N",
      "WindowCenterWidthExplanation": "Algo1",
      "dBdt": 0.0},
    "slices": {}
  },
  "time": {
    "samples": {
      "AcquisitionNumber": [1, 2, 3, 4, 5, 6, 7, 8, 9, 10, 11, 12, 13, 14, 15, 16, 17, 18, 19, 20, 21, 22, 23, 24, 25, 26, 27, 28, 29, 30, 31, 32, 33, 34, 35, 36, 37, 38, 39, 40, 41, 42, 43, 44, 45, 46, 47, 48, 49, 50, 51, 52, 53, 54, 55, 56, 57, 58, 59, 60, 61, 62, 63, 64, 65, 66, 67, 68, 69, 70, 71, 72, 73, 74, 75, 76, 77, 78, 79, 80, 81, 82, 83, 84, 85, 86, 87, 88, 89, 90, 91, 92, 93, 94, 95, 96, 97, 98, 99, 100, 101, 102, 103, 104, 105, 106, 107, 108, 109, 110, 111, 112, 113, 114, 115, 116, 117, 118, 119, 120, 121, 122, 123, 124, 125, 126, 127, 128, 129, 130, 131, 132, 133, 134, 135, 136, 137, 138, 139, 140, 141, 142, 143, 144, 145, 146, 147, 148, 149, 150, 151, 152, 153, 154, 155, 156, 157, 158, 159, 160, 161, 162, 163, 164, 165, 166, 167, 168, 169, 170, 171, 172, 173, 174, 175, 176, 177, 178, 179, 180, 181, 182, 183, 184, 185, 186, 187, 188, 189, 190, 191, 192, 193, 194, 195, 196, 197, 198, 199, 200, 201, 202, 203, 204, 205, 206, 207, 208, 209, 210, 211, 212, 213, 214, 215, 216, 217, 218, 219, 220, 221, 222, 223, 224, 225, 226, 227, 228, 229, 230, 231, 232, 233, 234, 235, 236, 237, 238, 239, 240, 241, 242, 243, 244, 245, 246, 247, 248, 249, 250, 251, 252, 253, 254, 255, 256, 257, 258, 259, 260, 261, 262, 263, 264, 265, 266, 267, 268, 269, 270, 271, 272, 273, 274, 275, 276, 277, 278, 279, 280, 281, 282, 283, 284, 285, 286, 287, 288, 289, 290, 291, 292, 293, 294, 295, 296, 297, 298, 299, 300, 301, 302, 303, 304, 305, 306, 307, 308, 309, 310, 311, 312, 313, 314, 315, 316, 317, 318, 319, 320, 321, 322, 323, 324, 325, 326, 327, 328, 329, 330, 331, 332, 333, 334, 335, 336, 337, 338, 339, 340, 341, 342, 343, 344, 345, 346, 347, 348, 349, 350, 351, 352, 353, 354, 355, 356, 357, 358, 359, 360, 361, 362, 363, 364, 365, 366, 367, 368, 369, 370, 371, 372, 373, 374, 375, 376, 377, 378, 379, 380, 381, 382, 383, 384, 385, 386, 387, 388, 389, 390, 391, 392, 393, 394, 395, 396, 397, 398, 399, 400, 401, 402, 403, 404, 405, 406, 407, 408, 409, 410, 411, 412, 413, 414, 415, 416, 417, 418, 419, 420, 421, 422, 423, 424, 425, 426, 427, 428, 429, 430, 431, 432, 433, 434, 435, 436, 437, 438, 439, 440, 441, 442, 443, 444, 445, 446, 447, 448, 449, 450, 451, 452, 453, 454, 455, 456, 457, 458, 459, 460, 461, 462, 463, 464, 465, 466, 467, 468, 469, 470, 471, 472, 473, 474, 475, 476, 477, 478, 479, 480, 481, 482, 483, 484, 485, 486, 487, 488, 489, 490, 491, 492, 493, 494, 495, 496, 497, 498, 499, 500, 501, 502, 503, 504, 505, 506, 507, 508, 509, 510, 511, 512, 513, 514, 515, 516, 517, 518, 519, 520, 521, 522, 523, 524, 525, 526, 527, 528, 529, 530, 531, 532, 533, 534, 535, 536, 537, 538, 539, 540, 541, 542, 543, 544, 545, 546, 547, 548, 549, 550, 551, 552, 553, 554, 555, 556, 557, 558, 559, 560, 561, 562, 563, 564, 565, 566, 567, 568, 569, 570, 571, 572, 573, 574, 575, 576, 577, 578, 579, 580, 581, 582, 583, 584, 585, 586, 587, 588, 589, 590, 591, 592, 593, 594, 595, 596, 597, 598, 599, 600],
      "AcquisitionTime": ["144718.045000", "144719.535000", "144721.025000", "144722.515000", "144724.005000", "144725.495000", "144726.985000", "144728.475000", "144729.965000", "144731.455000", "144732.945000", "144734.435000", "144735.925000", "144737.415000", "144738.905000", "144740.395000", "144741.885000", "144743.375000", "144744.865000", "144746.355000", "144747.845000", "144749.335000", "144750.825000", "144752.315000", "144753.805000", "144755.295000", "144756.785000", "144758.275000", "144759.765000", "144801.255000", "144802.745000", "144804.235000", "144805.725000", "144807.215000", "144808.705000", "144810.195000", "144811.685000", "144813.175000", "144814.665000", "144816.155000", "144817.645000", "144819.135000", "144820.625000", "144822.115000", "144823.605000", "144825.095000", "144826.585000", "144828.075000", "144829.565000", "144831.055000", "144832.545000", "144834.035000", "144835.525000", "144837.015000", "144838.505000", "144839.995000", "144841.485000", "144842.975000", "144844.465000", "144845.955000", "144847.445000", "144848.935000", "144850.425000", "144851.915000", "144853.405000", "144854.895000", "144856.385000", "144857.875000", "144859.365000", "144900.855000", "144902.345000", "144903.835000", "144905.325000", "144906.815000", "144908.305000", "144909.795000", "144911.285000", "144912.775000", "144914.265000", "144915.755000", "144917.245000", "144918.735000", "144920.225000", "144921.715000", "144923.205000", "144924.695000", "144926.185000", "144927.675000", "144929.165000", "144930.655000", "144932.145000", "144933.635000", "144935.125000", "144936.615000", "144938.105000", "144939.595000", "144941.085000", "144942.575000", "144944.065000", "144945.555000", "144947.045000", "144948.535000", "144950.025000", "144951.515000", "144953.005000", "144954.495000", "144955.985000", "144957.475000", "144958.965000", "145000.455000", "145001.945000", "145003.435000", "145004.925000", "145006.415000", "145007.905000", "145009.395000", "145010.885000", "145012.375000", "145013.865000", "145015.355000", "145016.845000", "145018.335000", "145019.825000", "145021.315000", "145022.805000", "145024.295000", "145025.785000", "145027.275000", "145028.765000", "145030.255000", "145031.745000", "145033.235000", "145034.725000", "145036.215000", "145037.705000", "145039.195000", "145040.685000", "145042.175000", "145043.665000", "145045.155000", "145046.645000", "145048.135000", "145049.625000", "145051.115000", "145052.605000", "145054.095000", "145055.585000", "145057.075000", "145058.565000", "145100.055000", "145101.545000", "145103.035000", "145104.525000", "145106.015000", "145107.505000", "145108.995000", "145110.485000", "145111.975000", "145113.465000", "145114.955000", "145116.445000", "145117.935000", "145119.425000", "145120.915000", "145122.405000", "145123.895000", "145125.385000", "145126.875000", "145128.365000", "145129.855000", "145131.345000", "145132.835000", "145134.325000", "145135.815000", "145137.305000", "145138.795000", "145140.285000", "145141.775000", "145143.265000", "145144.755000", "145146.245000", "145147.735000", "145149.225000", "145150.715000", "145152.205000", "145153.695000", "145155.185000", "145156.675000", "145158.165000", "145159.655000", "145201.145000", "145202.635000", "145204.125000", "145205.615000", "145207.105000", "145208.595000", "145210.085000", "145211.575000", "145213.065000", "145214.555000", "145216.045000", "145217.535000", "145219.025000", "145220.515000", "145222.005000", "145223.495000", "145224.985000", "145226.475000", "145227.965000", "145229.455000", "145230.945000", "145232.435000", "145233.925000", "145235.415000", "145236.905000", "145238.395000", "145239.885000", "145241.375000", "145242.865000", "145244.355000", "145245.845000", "145247.335000", "145248.825000", "145250.315000", "145251.805000", "145253.295000", "145254.785000", "145256.275000", "145257.765000", "145259.255000", "145300.745000", "145302.235000", "145303.725000", "145305.215000", "145306.705000", "145308.195000", "145309.685000", "145311.175000", "145312.665000", "145314.155000", "145315.645000", "145317.135000", "145318.625000", "145320.115000", "145321.605000", "145323.095000", "145324.585000", "145326.075000", "145327.565000", "145329.055000", "145330.545000", "145332.035000", "145333.525000", "145335.015000", "145336.505000", "145337.995000", "145339.485000", "145340.975000", "145342.465000", "145343.955000", "145345.445000", "145346.935000", "145348.425000", "145349.915000", "145351.405000", "145352.895000", "145354.385000", "145355.875000", "145357.365000", "145358.855000", "145400.345000", "145401.835000", "145403.325000", "145404.815000", "145406.305000", "145407.795000", "145409.285000", "145410.775000", "145412.265000", "145413.755000", "145415.245000", "145416.735000", "145418.225000", "145419.715000", "145421.205000", "145422.695000", "145424.185000", "145425.675000", "145427.165000", "145428.655000", "145430.145000", "145431.635000", "145433.125000", "145434.615000", "145436.105000", "145437.595000", "145439.085000", "145440.575000", "145442.065000", "145443.555000", "145445.045000", "145446.535000", "145448.025000", "145449.515000", "145451.005000", "145452.495000", "145453.985000", "145455.475000", "145456.965000", "145458.455000", "145459.945000", "145501.435000", "145502.925000", "145504.415000", "145505.905000", "145507.395000", "145508.885000", "145510.375000", "145511.865000", "145513.355000", "145514.845000", "145516.335000", "145517.825000", "145519.315000", "145520.805000", "145522.295000", "145523.785000", "145525.275000", "145526.765000", "145528.255000", "145529.745000", "145531.235000", "145532.725000", "145534.215000", "145535.705000", "145537.195000", "145538.685000", "145540.175000", "145541.665000", "145543.155000", "145544.645000", "145546.135000", "145547.625000", "145549.115000", "145550.605000", "145552.095000", "145553.585000", "145555.075000", "145556.565000", "145558.055000", "145559.545000", "145601.035000", "145602.525000", "145604.015000", "145605.505000", "145606.995000", "145608.485000", "145609.975000", "145611.465000", "145612.955000", "145614.445000", "145615.935000", "145617.425000", "145618.915000", "145620.405000", "145621.895000", "145623.385000", "145624.875000", "145626.365000", "145627.855000", "145629.345000", "145630.835000", "145632.325000", "145633.815000", "145635.305000", "145636.795000", "145638.285000", "145639.775000", "145641.265000", "145642.755000", "145644.245000", "145645.735000", "145647.225000", "145648.715000", "145650.205000", "145651.695000", "145653.185000", "145654.675000", "145656.165000", "145657.655000", "145659.145000", "145700.635000", "145702.125000", "145703.615000", "145705.105000", "145706.595000", "145708.085000", "145709.575000", "145711.065000", "145712.555000", "145714.045000", "145715.535000", "145717.025000", "145718.515000", "145720.005000", "145721.495000", "145722.985000", "145724.475000", "145725.965000", "145727.455000", "145728.945000", "145730.435000", "145731.925000", "145733.415000", "145734.905000", "145736.395000", "145737.885000", "145739.375000", "145740.865000", "145742.355000", "145743.845000", "145745.335000", "145746.825000", "145748.315000", "145749.805000", "145751.295000", "145752.785000", "145754.275000", "145755.765000", "145757.255000", "145758.745000", "145800.235000", "145801.725000", "145803.215000", "145804.705000", "145806.195000", "145807.685000", "145809.175000", "145810.665000", "145812.155000", "145813.645000", "145815.135000", "145816.625000", "145818.115000", "145819.605000", "145821.095000", "145822.585000", "145824.075000", "145825.565000", "145827.055000", "145828.545000", "145830.035000", "145831.525000", "145833.015000", "145834.505000", "145835.995000", "145837.485000", "145838.975000", "145840.465000", "145841.955000", "145843.445000", "145844.935000", "145846.425000", "145847.915000", "145849.405000", "145850.895000", "145852.385000", "145853.875000", "145855.365000", "145856.855000", "145858.345000", "145859.835000", "145901.325000", "145902.815000", "145904.305000", "145905.795000", "145907.285000", "145908.775000", "145910.265000", "145911.755000", "145913.245000", "145914.735000", "145916.225000", "145917.715000", "145919.205000", "145920.695000", "145922.185000", "145923.675000", "145925.165000", "145926.655000", "145928.145000", "145929.635000", "145931.125000", "145932.615000", "145934.105000", "145935.595000", "145937.085000", "145938.575000", "145940.065000", "145941.555000", "145943.045000", "145944.535000", "145946.025000", "145947.515000", "145949.005000", "145950.495000", "145951.985000", "145953.475000", "145954.965000", "145956.455000", "145957.945000", "145959.435000", "150000.925000", "150002.415000", "150003.905000", "150005.395000", "150006.885000", "150008.375000", "150009.865000", "150011.355000", "150012.845000", "150014.335000", "150015.825000", "150017.315000", "150018.805000", "150020.295000", "150021.785000", "150023.275000", "150024.765000", "150026.255000", "150027.745000", "150029.235000", "150030.725000", "150032.215000", "150033.705000", "150035.195000", "150036.685000", "150038.175000", "150039.665000", "150041.155000", "150042.645000", "150044.135000", "150045.625000", "150047.115000", "150048.605000", "150050.095000", "150051.585000", "150053.075000", "150054.565000", "150056.055000", "150057.545000", "150059.035000", "150100.525000", "150102.015000", "150103.505000", "150104.995000", "150106.485000", "150107.975000", "150109.465000", "150110.955000", "150112.445000", "150113.935000", "150115.425000", "150116.915000", "150118.405000", "150119.895000", "150121.385000", "150122.875000", "150124.365000", "150125.855000", "150127.345000", "150128.835000", "150130.325000", "150131.815000", "150133.305000", "150134.795000", "150136.285000", "150137.775000", "150139.265000", "150140.755000", "150142.245000", "150143.735000", "150145.225000", "150146.715000", "150148.205000", "150149.695000", "150151.185000", "150152.675000", "150154.165000", "150155.655000", "150157.145000", "150158.635000", "150200.125000", "150201.615000", "150203.105000", "150204.595000", "150206.085000", "150207.575000", "150209.065000", "150210.555000"],
      "ContentTime": ["144834.783000", "144834.787000", "144834.790000", "144834.799000", "144834.802000", "144834.805000", "144834.808000", "144834.811000", "144834.814000", "144834.817000", "144834.820000", "144834.823000", "144834.826000", "144834.834000", "144834.837000", "144834.840000", "144834.843000", "144834.846000", "144834.849000", "144834.852000", "144834.855000", "144834.858000", "144834.861000", "144834.864000", "144854.750000", "144854.753000", "144854.756000", "144854.759000", "144854.762000", "144854.765000", "144854.768000", "144854.771000", "144854.774000", "144854.777000", "144854.780000", "144854.783000", "144854.786000", "144854.789000", "144854.792000", "144854.795000", "144854.798000", "144854.801000", "144854.804000", "144854.807000", "144854.810000", "144914.750000", "144914.753000", "144914.756000", "144914.759000", "144914.762000", "144914.765000", "144914.768000", "144914.771000", "144914.774000", "144914.777000", "144914.780000", "144914.783000", "144914.786000", "144914.789000", "144914.792000", "144914.795000", "144914.798000", "144914.801000", "144914.804000", "144914.807000", "144934.750000", "144934.753000", "144934.756000", "144934.759000", "144934.762000", "144934.765000", "144934.768000", "144934.771000", "144934.774000", "144934.777000", "144934.780000", "144934.783000", "144934.786000", "144934.789000", "144934.792000", "144934.795000", "144934.798000", "144934.801000", "144934.804000", "144934.807000", "144954.750000", "144954.753000", "144954.756000", "144954.759000", "144954.762000", "144954.765000", "144954.768000", "144954.771000", "144954.774000", "144954.777000", "144954.780000", "144954.783000", "144954.786000", "144954.789000", "144954.792000", "144954.795000", "144954.798000", "144954.801000", "144954.804000", "144954.807000", "145034.750000", "145034.753000", "145034.756000", "145034.759000", "145034.762000", "145034.765000", "145034.775000", "145034.778000", "145034.781000", "145034.784000", "145034.787000", "145034.790000", "145034.793000", "145034.796000", "145034.799000", "145034.802000", "145034.805000", "145034.808000", "145034.811000", "145034.814000", "145034.817000", "145034.820000", "145034.823000", "145034.826000", "145034.829000", "145034.832000", "145114.750000", "145114.753000", "145114.756000", "145114.759000", "145114.763000", "145114.765000", "145114.768000", "145114.771000", "145114.775000", "145114.777000", "145114.780000", "145114.783000", "145114.786000", "145114.789000", "145114.792000", "145114.795000", "145114.798000", "145114.801000", "145114.804000", "145114.807000", "145114.810000", "145114.813000", "145114.816000", "145114.819000", "145114.822000", "145114.825000", "145114.828000", "145154.750000", "145154.753000", "145154.773000", "145154.776000", "145154.779000", "145154.782000", "145154.785000", "145154.788000", "145154.791000", "145154.794000", "145154.797000", "145154.800000", "145154.803000", "145154.806000", "145154.809000", "145154.812000", "145154.815000", "145154.818000", "145154.821000", "145154.824000", "145154.827000", "145154.830000", "145154.833000", "145154.836000", "145154.839000", "145154.842000", "145154.845000", "145234.750000", "145234.753000", "145234.756000", "145234.759000", "145234.762000", "145234.765000", "145234.768000", "145234.771000", "145234.774000", "145234.777000", "145234.780000", "145234.783000", "145234.786000", "145234.789000", "145234.792000", "145234.796000", "145234.798000", "145234.801000", "145234.805000", "145234.808000", "145234.811000", "145234.813000", "145234.817000", "145234.820000", "145234.823000", "145234.826000", "145234.829000", "145314.750000", "145314.753000", "145314.756000", "145314.760000", "145314.763000", "145314.766000", "145314.769000", "145314.772000", "145314.775000", "145314.778000", "145314.781000", "145314.784000", "145314.787000", "145314.790000", "145314.793000", "145314.796000", "145314.799000", "145314.802000", "145314.805000", "145314.808000", "145314.811000", "145314.814000", "145314.817000", "145314.820000", "145314.823000", "145314.826000", "145314.829000", "145354.750000", "145354.753000", "145354.761000", "145354.764000", "145354.767000", "145354.770000", "145354.773000", "145354.776000", "145354.779000", "145354.782000", "145354.785000", "145354.788000", "145354.791000", "145354.794000", "145354.797000", "145354.801000", "145354.804000", "145354.807000", "145354.810000", "145354.813000", "145354.816000", "145354.819000", "145354.822000", "145354.825000", "145354.828000", "145354.831000", "145354.834000", "145434.750000", "145434.753000", "145434.756000", "145434.759000", "145434.762000", "145434.765000", "145434.768000", "145434.771000", "145434.774000", "145434.777000", "145434.780000", "145434.783000", "145434.786000", "145434.789000", "145434.792000", "145434.796000", "145434.798000", "145434.801000", "145434.804000", "145434.807000", "145434.810000", "145434.813000", "145434.816000", "145434.820000", "145434.823000", "145434.826000", "145434.829000", "145514.750000", "145514.753000", "145514.756000", "145514.759000", "145514.762000", "145514.765000", "145514.768000", "145514.771000", "145514.775000", "145514.778000", "145514.781000", "145514.784000", "145514.787000", "145514.790000", "145514.793000", "145514.796000", "145514.799000", "145514.802000", "145514.805000", "145514.808000", "145514.811000", "145514.814000", "145514.817000", "145514.820000", "145514.823000", "145514.826000", "145554.750000", "145554.753000", "145554.756000", "145554.760000", "145554.763000", "145554.766000", "145554.769000", "145554.772000", "145554.775000", "145554.778000", "145554.781000", "145554.784000", "145554.787000", "145554.790000", "145554.793000", "145554.796000", "145554.799000", "145554.802000", "145554.805000", "145554.808000", "145554.811000", "145554.814000", "145554.817000", "145554.820000", "145554.823000", "145554.826000", "145554.829000", "145634.750000", "145634.753000", "145634.771000", "145634.774000", "145634.777000", "145634.780000", "145634.783000", "145634.787000", "145634.790000", "145634.793000", "145634.796000", "145634.799000", "145634.802000", "145634.805000", "145634.808000", "145634.811000", "145634.814000", "145634.817000", "145634.820000", "145634.823000", "145634.826000", "145634.829000", "145634.832000", "145634.835000", "145634.839000", "145634.841000", "145634.844000", "145714.750000", "145714.753000", "145714.757000", "145714.760000", "145714.763000", "145714.766000", "145714.769000", "145714.772000", "145714.775000", "145714.778000", "145714.781000", "145714.784000", "145714.787000", "145714.790000", "145714.793000", "145714.796000", "145714.799000", "145714.802000", "145714.805000", "145714.808000", "145714.811000", "145714.814000", "145714.818000", "145714.821000", "145714.824000", "145714.827000", "145714.830000", "145754.750000", "145754.753000", "145754.756000", "145754.759000", "145754.763000", "145754.766000", "145754.769000", "145754.772000", "145754.775000", "145754.778000", "145754.781000", "145754.784000", "145754.787000", "145754.790000", "145754.793000", "145754.796000", "145754.799000", "145754.802000", "145754.805000", "145754.808000", "145754.811000", "145754.814000", "145754.817000", "145754.820000", "145754.823000", "145754.826000", "145754.829000", "145834.750000", "145834.753000", "145834.756000", "145834.759000", "145834.763000", "145834.766000", "145834.768000", "145834.771000", "145834.775000", "145834.778000", "145834.781000", "145834.784000", "145834.787000", "145834.790000", "145834.793000", "145834.796000", "145834.799000", "145834.802000", "145834.805000", "145834.808000", "145834.811000", "145834.814000", "145834.817000", "145834.820000", "145834.823000", "145834.826000", "145834.829000", "145914.750000", "145914.753000", "145914.757000", "145914.760000", "145914.763000", "145914.766000", "145914.769000", "145914.772000", "145914.775000", "145914.778000", "145914.781000", "145914.784000", "145914.787000", "145914.790000", "145914.793000", "145914.796000", "145914.799000", "145914.803000", "145914.806000", "145914.809000", "145914.812000", "145914.815000", "145914.818000", "145914.821000", "145914.824000", "145914.827000", "145954.750000", "145954.753000", "145954.756000", "145954.760000", "145954.763000", "145954.766000", "145954.769000", "145954.772000", "145954.775000", "145954.778000", "145954.781000", "145954.784000", "145954.787000", "145954.790000", "145954.793000", "145954.796000", "145954.799000", "145954.802000", "145954.805000", "145954.808000", "145954.811000", "145954.814000", "145954.817000", "145954.820000", "145954.823000", "145954.826000", "145954.830000", "150034.750000", "150034.753000", "150034.756000", "150034.759000", "150034.763000", "150034.766000", "150034.769000", "150034.772000", "150034.775000", "150034.778000", "150034.781000", "150034.784000", "150034.787000", "150034.790000", "150034.793000", "150034.796000", "150034.799000", "150034.802000", "150034.805000", "150034.808000", "150034.812000", "150034.815000", "150034.818000", "150034.821000", "150034.824000", "150034.827000", "150034.830000", "150114.750000", "150114.753000", "150114.757000", "150114.760000", "150114.763000", "150114.766000", "150114.769000", "150114.772000", "150114.775000", "150114.778000", "150114.781000", "150114.784000", "150114.787000", "150114.790000", "150114.793000", "150114.796000", "150114.800000", "150114.802000", "150114.806000", "150114.809000", "150114.812000", "150114.815000", "150114.818000", "150114.821000", "150114.824000", "150114.827000", "150114.830000", "150154.750000", "150154.753000", "150154.757000", "150154.760000", "150154.763000", "150154.766000", "150154.769000", "150154.772000", "150154.775000", "150154.778000", "150154.781000", "150154.784000", "150154.787000", "150154.790000", "150154.793000", "150154.796000", "150154.799000", "150154.802000", "150154.805000", "150154.808000", "150154.811000", "150154.814000", "150154.818000", "150154.821000", "150154.824000", "150154.826000", "150154.830000", "150212.219000", "150212.223000", "150212.226000", "150212.229000", "150212.232000", "150212.235000", "150212.238000", "150212.242000", "150212.245000", "150212.248000", "150212.251000", "150212.254000"],
