{
  "AcquisitionMatrixPE": 104,
  "AcquisitionNumber": 1,
  "AcquisitionTime": "15:47:24.547500",
  "BandwidthPerPixelPhaseEncode": 17.17,
  "BaseResolution": 104,
  "BodyPartExamined": "BRAIN",
  "CoilString": "HC1-7;NC1_2",
  "ConsistencyInfo": "N4_VE11C_LATEST_20160120",
  "ConversionSoftware": "dcm2niix",
  "ConversionSoftwareVersion": "v1.0.20190902",
  "DerivedVendorReportedEchoSpacing": 0.000560011,
  "DeviceSerialNumber": "167006",
  "DwellTime": 2.1e-06,
  "EchoTime": 0.037,
  "EchoTrainLength": 104,
  "EffectiveEchoSpacing": 0.000560011,
  "FlipAngle": 52,
  "ImageComments": "Unaliased_MB4_PE3_LB",
  "ImageOrientationPatientDICOM": [0.997372, -0.0720245, 0.00779126, 0.0699181, 0.92885, -0.363799],
  "ImageType": [
    "ORIGINAL",
    "PRIMARY",
    "M",
    "MB",
    "ND",
    "MOSAIC"
],
  "ImagingFrequency": 123.259,
  "InPlanePhaseEncodingDirectionDICOM": "COL",
  "InstitutionAddress": "Chemin_Queen-Mary_4565_Montreal_District_CA_H3W_1W5",
  "InstitutionName": "IUGM",
  "InstitutionalDepartmentName": "Department",
  "MRAcquisitionType": "2D",
  "MagneticFieldStrength": 3,
  "Manufacturer": "Siemens",
  "ManufacturersModelName": "Prisma_fit",
  "Modality": "MR",
  "MultibandAccelerationFactor": 4,
  "PartialFourier": 1,
  "PatientPosition": "HFS",
  "PercentPhaseFOV": 100,
  "PhaseEncodingDirection": "j",
  "PhaseEncodingSteps": 104,
  "PhaseResolution": 1,
  "PixelBandwidth": 2290,
  "ProcedureStepDescription": "hcptrt_generic",
  "ProtocolName": "func_task-gambling_run-1",
  "PulseSequenceDetails": "%CustomerSeq%_cmrr_mbep2d_bold",
  "ReceiveCoilActiveElements": "HC1-7;NC1,2",
  "ReceiveCoilName": "HeadNeck_64",
  "ReconMatrixPE": 104,
  "RepetitionTime": 1.49,
  "SAR": 0.0301137,
  "ScanOptions": "FS",
  "ScanningSequence": "EP",
  "SequenceName": "epfid2d1_104",
  "SequenceVariant": "SK_SS",
  "SeriesDescription": "func_task-gambling_run-1",
  "SeriesNumber": 33,
  "ShimSetting": [635, -7265, -8832, 598, -1, -229, -52, -9],
  "SliceThickness": 2,
  "SliceTiming": [0, 0.785, 0.0975, 0.8825, 0.195, 0.98, 0.295, 1.0775, 0.3925, 1.175, 0.49, 1.2725, 0.5875, 1.3725, 0.685, 0, 0.785, 0.0975, 0.8825, 0.195, 0.98, 0.295, 1.0775, 0.3925, 1.175, 0.49, 1.2725, 0.5875, 1.3725, 0.685, 0, 0.785, 0.0975, 0.8825, 0.195, 0.98, 0.295, 1.0775, 0.3925, 1.175, 0.49, 1.2725, 0.5875, 1.3725, 0.685, 0, 0.785, 0.0975, 0.8825, 0.195, 0.98, 0.295, 1.0775, 0.3925, 1.175, 0.49, 1.2725, 0.5875, 1.3725, 0.685],
  "SoftwareVersions": "syngo_MR_E11",
  "SpacingBetweenSlices": 2,
  "StationName": "MRC35049",
  "TaskName": "gambling",
  "TotalReadoutTime": 0.0576811,
  "TxRefAmp": 218.093,
  "WipMemBlock": "88128b02-22db-42df-b79a-177f1b5319c2||Sequence: R016 ve11c/master r/e634e98; Dec 19 2017 11:00:25 by eja",
  "dcmmeta_affine": [
    [-1.994744896888733, 0.1398361325263977, -0.03793108090758324, 100.38220977783203],
    [0.14404894411563873, 1.8576991558074951, -0.7267763018608093, -69.57462310791016],
    [0.015582527965307236, 0.7275986075401306, 1.8628895282745361, -65.5176773071289],
    [0.0, 0.0, 0.0, 1.0]
],
  "dcmmeta_reorient_transform": [
    [0.0, -1.0, 0.0, 103.0],
    [1.0, 0.0, 0.0, 0.0],
    [0.0, 0.0, 1.0, 0.0],
    [0.0, 0.0, 0.0, 1.0]
],
  "dcmmeta_shape": [104, 104, 60, 129],
  "dcmmeta_slice_dim": 2,
  "dcmmeta_version": 0.6,
  "global": {
    "const": {
      "AcquisitionMatrix": [104, 0, 0, 104],
      "AngioFlag": "N",
      "BitsAllocated": 16,
      "BitsStored": 16,
      "BodyPartExamined": "BRAIN",
      "Columns": 832,
      "EchoNumbers": 1,
      "EchoTime": 37.0,
      "EchoTrainLength": 104,
      "FlipAngle": 52.0,
      "HighBit": 15,
      "ImageOrientationPatient": [0.99737243390358, -0.0720244700973, 0.00779126411132, 0.06991806894735, 0.92884956983589, -0.3637993131527],
      "ImagePositionPatient": [-891.77281752213, -745.53706376251, 268.5988394721],
      "ImageType": [
        "ORIGINAL",
        "PRIMARY",
        "M",
        "MB",
        "ND",
        "MOSAIC"
],
      "ImagedNucleus": "1H",
      "ImagingFrequency": 123.259328,
      "InPlanePhaseEncodingDirection": "COL",
      "MRAcquisitionType": "2D",
      "MagneticFieldStrength": 3.0,
      "Manufacturer": "SIEMENS",
      "ManufacturerModelName": "Prisma_fit",
      "Modality": "MR",
      "NumberOfAverages": 1.0,
      "NumberOfPhaseEncodingSteps": 104,
      "PercentPhaseFieldOfView": 100.0,
      "PercentSampling": 100.0,
      "PerformedProcedureStepStartTime": "143307.958000",
      "PhotometricInterpretation": "MONOCHROME2",
      "PixelBandwidth": 2290.0,
      "PixelRepresentation": 0,
      "PixelSpacing": [2.0, 2.0],
      "ProtocolName": "func_task-gambling_run-1",
      "RepetitionTime": 1490.0,
      "Rows": 832,
      "SAR": 0.03011371004036,
      "SamplesPerPixel": 1,
      "ScanOptions": "FS",
      "ScanningSequence": "EP",
      "SequenceName": "epfid2d1_104",
      "SequenceVariant": [
        "SK",
        "SS"
],
      "SeriesDescription": "func_task-gambling_run-1",
      "SeriesNumber": 33,
      "SeriesTime": "154854.788000",
      "SliceLocation": -37.647308936288,
      "SliceThickness": 2.0,
      "SmallestImagePixelValue": 0,
      "SoftwareVersions": "syngo MR E11",
      "SpacingBetweenSlices": 1.9999999732819,
      "SpecificCharacterSet": "ISO_IR 100",
      "StudyID": "1",
      "StudyTime": "143307.853000",
      "TransmitCoilName": "Body",
      "VariableFlipAngleFlag": "N",
      "WindowCenterWidthExplanation": "Algo1",
      "dBdt": 0.0},
    "slices": {}
  },
  "time": {
    "samples": {
      "AcquisitionNumber": [1, 2, 3, 4, 5, 6, 7, 8, 9, 10, 11, 12, 13, 14, 15, 16, 17, 18, 19, 20, 21, 22, 23, 24, 25, 26, 27, 28, 29, 30, 31, 32, 33, 34, 35, 36, 37, 38, 39, 40, 41, 42, 43, 44, 45, 46, 47, 48, 49, 50, 51, 52, 53, 54, 55, 56, 57, 58, 59, 60, 61, 62, 63, 64, 65, 66, 67, 68, 69, 70, 71, 72, 73, 74, 75, 76, 77, 78, 79, 80, 81, 82, 83, 84, 85, 86, 87, 88, 89, 90, 91, 92, 93, 94, 95, 96, 97, 98, 99, 100, 101, 102, 103, 104, 105, 106, 107, 108, 109, 110, 111, 112, 113, 114, 115, 116, 117, 118, 119, 120, 121, 122, 123, 124, 125, 126, 127, 128, 129],
      "AcquisitionTime": ["154724.547500", "154726.037500", "154727.527500", "154729.017500", "154730.507500", "154731.997500", "154733.487500", "154734.977500", "154736.467500", "154737.957500", "154739.447500", "154740.937500", "154742.427500", "154743.917500", "154745.407500", "154746.897500", "154748.387500", "154749.877500", "154751.367500", "154752.857500", "154754.347500", "154755.837500", "154757.327500", "154758.817500", "154800.307500", "154801.797500", "154803.287500", "154804.777500", "154806.267500", "154807.757500", "154809.247500", "154810.737500", "154812.227500", "154813.717500", "154815.207500", "154816.697500", "154818.187500", "154819.677500", "154821.167500", "154822.657500", "154824.147500", "154825.637500", "154827.127500", "154828.617500", "154830.107500", "154831.597500", "154833.087500", "154834.577500", "154836.067500", "154837.557500", "154839.047500", "154840.537500", "154842.027500", "154843.517500", "154845.007500", "154846.497500", "154847.987500", "154849.477500", "154850.967500", "154852.457500", "154853.947500", "154855.437500", "154856.927500", "154858.417500", "154859.907500", "154901.397500", "154902.887500", "154904.377500", "154905.867500", "154907.357500", "154908.847500", "154910.337500", "154911.827500", "154913.317500", "154914.807500", "154916.297500", "154917.787500", "154919.277500", "154920.767500", "154922.257500", "154923.747500", "154925.237500", "154926.727500", "154928.217500", "154929.707500", "154931.197500", "154932.687500", "154934.177500", "154935.667500", "154937.157500", "154938.647500", "154940.137500", "154941.627500", "154943.117500", "154944.607500", "154946.097500", "154947.587500", "154949.077500", "154950.567500", "154952.057500", "154953.547500", "154955.037500", "154956.527500", "154958.017500", "154959.507500", "155000.997500", "155002.487500", "155003.977500", "155005.467500", "155006.957500", "155008.447500", "155009.937500", "155011.427500", "155012.917500", "155014.407500", "155015.897500", "155017.387500", "155018.877500", "155020.367500", "155021.857500", "155023.347500", "155024.837500", "155026.327500", "155027.817500", "155029.307500", "155030.797500", "155032.287500", "155033.777500", "155035.267500"],
      "ContentTime": ["154854.791000", "154854.794000", "154854.797000", "154854.800000", "154854.803000", "154854.806000", "154854.809000", "154854.812000", "154854.815000", "154854.821000", "154854.824000", "154854.827000", "154854.830000", "154854.833000", "154854.836000", "154854.839000", "154854.842000", "154854.845000", "154854.848000", "154854.851000", "154854.854000", "154854.857000", "154854.860000", "154854.863000", "154854.866000", "154854.886000", "154854.890000", "154854.893000", "154854.896000", "154854.898000", "154854.902000", "154854.905000", "154854.908000", "154854.911000", "154854.914000", "154854.917000", "154914.750000", "154914.753000", "154914.756000", "154914.759000", "154914.762000", "154914.765000", "154914.768000", "154914.771000", "154914.774000", "154914.777000", "154914.780000", "154914.783000", "154914.786000", "154914.789000", "154914.792000", "154914.795000", "154914.798000", "154914.802000", "154914.805000", "154914.808000", "154934.750000", "154934.753000", "154934.756000", "154934.759000", "154934.762000", "154934.765000", "154934.768000", "154934.771000", "154934.774000", "154934.777000", "154934.780000", "154934.783000", "154934.786000", "154934.789000", "154934.792000", "154934.795000", "154934.798000", "154934.801000", "154934.804000", "154934.807000", "154954.750000", "154954.753000", "154954.761000", "154954.764000", "154954.767000", "154954.770000", "154954.773000", "154954.776000", "154954.779000", "154954.782000", "154954.785000", "154954.788000", "154954.791000", "154954.794000", "154954.797000", "154954.800000", "154954.803000", "154954.806000", "154954.809000", "154954.812000", "155034.750000", "155034.753000", "155034.756000", "155034.759000", "155034.762000", "155034.765000", "155034.768000", "155034.772000", "155034.775000", "155034.778000", "155034.781000", "155034.784000", "155034.787000", "155034.790000", "155034.793000", "155034.796000", "155034.799000", "155034.802000", "155034.805000", "155034.808000", "155034.811000", "155034.814000", "155034.817000", "155034.820000", "155034.823000", "155034.826000", "155034.829000", "155034.832000", "155034.835000", "155034.838000", "155034.841000", "155037.018000", "155037.021000"],
      "InstanceCreationTime": ["154854.791000", "154854.794000", "154854.797000", "154854.800000", "154854.803000", "154854.806000", "154854.809000", "154854.812000", "154854.815000", "154854.821000", "154854.824000", "154854.827000", "154854.830000", "154854.833000", "154854.836000", "154854.839000", "154854.842000", "154854.845000", "154854.848000", "154854.851000", "154854.854000", "154854.857000", "154854.860000", "154854.863000", "154854.866000", "154854.886000", "154854.890000", "154854.893000", "154854.896000", "154854.898000", "154854.902000", "154854.905000", "154854.908000", "154854.911000", "154854.914000", "154854.917000", "154914.750000", "154914.753000", "154914.756000", "154914.759000", "154914.762000", "154914.765000", "154914.768000", "154914.771000", "154914.774000", "154914.777000", "154914.780000", "154914.783000", "154914.786000", "154914.789000", "154914.792000", "154914.795000", "154914.798000", "154914.802000", "154914.805000", "154914.808000", "154934.750000", "154934.753000", "154934.756000", "154934.759000", "154934.762000", "154934.765000", "154934.768000", "154934.771000", "154934.774000", "154934.777000", "154934.780000", "154934.783000", "154934.786000", "154934.789000", "154934.792000", "154934.795000", "154934.798000", "154934.801000", "154934.804000", "154934.807000", "154954.750000", "154954.753000", "154954.761000", "154954.764000", "154954.767000", "154954.770000", "154954.773000", "154954.776000", "154954.779000", "154954.782000", "154954.785000", "154954.788000", "154954.791000", "154954.794000", "154954.797000", "154954.800000", "154954.803000", "154954.806000", "154954.809000", "154954.812000", "155034.750000", "155034.753000", "155034.756000", "155034.759000", "155034.762000", "155034.765000", "155034.768000", "155034.772000", "155034.775000", "155034.778000", "155034.781000", "155034.784000", "155034.787000", "155034.790000", "155034.793000", "155034.796000", "155034.799000", "155034.802000", "155034.805000", "155034.808000", "155034.811000", "155034.814000", "155034.817000", "155034.820000", "155034.823000", "155034.826000", "155034.829000", "155034.832000", "155034.835000", "155034.838000", "155034.841000", "155037.018000", "155037.021000"],
      "InstanceNumber": [1, 2, 3, 4, 5, 6, 7, 8, 9, 10, 11, 12, 13, 14, 15, 16, 17, 18, 19, 20, 21, 22, 23, 24, 25, 26, 27, 28, 29, 30, 31, 32, 33, 34, 35, 36, 37, 38, 39, 40, 41, 42, 43, 44, 45, 46, 47, 48, 49, 50, 51, 52, 53, 54, 55, 56, 57, 58, 59, 60, 61, 62, 63, 64, 65, 66, 67, 68, 69, 70, 71, 72, 73, 74, 75, 76, 77, 78, 79, 80, 81, 82, 83, 84, 85, 86, 87, 88, 89, 90, 91, 92, 93, 94, 95, 96, 97, 98, 99, 100, 101, 102, 103, 104, 105, 106, 107, 108, 109, 110, 111, 112, 113, 114, 115, 116, 117, 118, 119, 120, 121, 122, 123, 124, 125, 126, 127, 128, 129],
      "LargestImagePixelValue": [38982, 37909, 37827, 36953, 37192, 36867, 36457, 38417, 37436, 37647, 37008, 36363, 36865, 36837, 37377, 37451, 36605, 37046, 37229, 36912, 37146, 36666, 36705, 37177, 37170, 36151, 36854, 37644, 36342, 36290, 36166, 36536, 36525, 37003, 36565, 36270, 37014, 36245, 36193, 36929, 36296, 36645, 36068, 36307, 37499, 36664, 36555, 35797, 36119, 36061, 36594, 36303, 37723, 36078, 36006, 35625, 36424, 36184, 36443, 38096, 36934, 37408, 38014, 36441, 35629, 36799, 37163, 37167, 37082, 36819, 36170, 36526, 36346, 36703, 35951, 35985, 36108, 36720, 37198, 36669, 36929, 36366, 36545, 36466, 35917, 35748, 36087, 35760, 37490, 39178, 37625, 36932, 37263, 37535, 37026, 37327, 36809, 36929, 37101, 36632, 37608, 36903, 37348, 37377, 37371, 37941, 36970, 37445, 37042, 36563, 37106, 37422, 36623, 37249, 37561, 36760, 37055, 36988, 37072, 36906, 36890, 37152, 37088, 37789, 37113, 36926, 35936, 36165, 36033],
      "WindowCenter": [9944.0, 9890.0, 9859.0, 9833.0, 9819.0, 9816.0, 9816.0, 9846.0, 9860.0, 9870.0, 9832.0, 9801.0, 9794.0, 9787.0, 9800.0, 9791.0, 9780.0, 9793.0, 9810.0, 9813.0, 9814.0, 9813.0, 9814.0, 9820.0, 9820.0, 9817.0, 9825.0, 9826.0, 9815.0, 9812.0, 9801.0, 9791.0, 9792.0, 9804.0, 9806.0, 9817.0, 9822.0, 9811.0, 9810.0, 9814.0, 9809.0, 9822.0, 9815.0, 9810.0, 9819.0, 9821.0, 9830.0, 9805.0, 9784.0, 9774.0, 9781.0, 9781.0, 9807.0, 9809.0, 9811.0, 9787.0, 9783.0, 9783.0, 9798.0, 9823.0, 9836.0, 9854.0, 9828.0, 9790.0, 9762.0, 9771.0, 9791.0, 9802.0, 9779.0, 9755.0, 9749.0, 9763.0, 9789.0, 9813.0, 9793.0, 9792.0, 9808.0, 9822.0, 9822.0, 9823.0, 9823.0, 9817.0, 9824.0, 9827.0, 9829.0, 9815.0, 9800.0, 9784.0, 9825.0, 9852.0, 9852.0, 9835.0, 9821.0, 9803.0, 9802.0, 9817.0, 9815.0, 9829.0, 9828.0, 9816.0, 9818.0, 9807.0, 9824.0, 9825.0, 9828.0, 9831.0, 9812.0, 9819.0, 9821.0, 9819.0, 9814.0, 9804.0, 9797.0, 9795.0, 9791.0, 9788.0, 9804.0, 9795.0, 9786.0, 9788.0, 9789.0, 9801.0, 9819.0, 9826.0, 9827.0, 9846.0, 9830.0, 9803.0, 9801.0],
      "WindowWidth": [21374.0, 21224.0, 21131.0, 21063.0, 21026.0, 21010.0, 21011.0, 21068.0, 21101.0, 21121.0, 21038.0, 20974.0, 20954.0, 20940.0, 20964.0, 20944.0, 20926.0, 20953.0, 20987.0, 21000.0, 21003.0, 20998.0, 21001.0, 21013.0, 21011.0, 21010.0, 21024.0, 21023.0, 21005.0, 21004.0, 20982.0, 20957.0, 20960.0, 20982.0, 20985.0, 21009.0, 21016.0, 20998.0, 20997.0, 21005.0, 20997.0, 21022.0, 21007.0, 20997.0, 21014.0, 21017.0, 21039.0, 20990.0, 20941.0, 20918.0, 20932.0, 20931.0, 20978.0, 20994.0, 20999.0, 20951.0, 20938.0, 20938.0, 20970.0, 21021.0, 21052.0, 21092.0, 21031.0, 20951.0, 20898.0, 20909.0, 20941.0, 20967.0, 20920.0, 20872.0, 20863.0, 20896.0, 20955.0, 21003.0, 20967.0, 20961.0, 20993.0, 21022.0, 21020.0, 21023.0, 21023.0, 21009.0, 21025.0, 21036.0, 21039.0, 21011.0, 20977.0, 20942.0, 21016.0, 21068.0, 21079.0, 21048.0, 21014.0, 20973.0, 20971.0, 21001.0, 21004.0, 21035.0, 21029.0, 21008.0, 21007.0, 20986.0, 21021.0, 21021.0, 21031.0, 21031.0, 20997.0, 21012.0, 21017.0, 21018.0, 21000.0, 20976.0, 20964.0, 20956.0, 20945.0, 20943.0, 20976.0, 20960.0, 20940.0, 20946.0, 20950.0, 20971.0, 21009.0, 21026.0, 21031.0, 21070.0, 21042.0, 20981.0, 20973.0]
    },
    "slices": {}
  }
}