{
  "AcquisitionMatrixPE": 104,
  "AcquisitionNumber": 1,
  "AcquisitionTime": "15:35:6.715000",
  "BandwidthPerPixelPhaseEncode": 17.17,
  "BaseResolution": 104,
  "BodyPartExamined": "BRAIN",
  "CoilString": "HC1-7;NC1_2",
  "ConsistencyInfo": "N4_VE11C_LATEST_20160120",
  "ConversionSoftware": "dcm2niix",
  "ConversionSoftwareVersion": "v1.0.20190902",
  "DerivedVendorReportedEchoSpacing": 0.000560011,
  "DeviceSerialNumber": "167006",
  "DwellTime": 2.1e-06,
  "EchoTime": 0.037,
  "EchoTrainLength": 104,
  "EffectiveEchoSpacing": 0.000560011,
  "FlipAngle": 52,
  "ImageComments": "Unaliased_MB4_PE3_LB",
  "ImageOrientationPatientDICOM": [0.997372, -0.0720245, 0.00779126, 0.0699181, 0.92885, -0.363799],
  "ImageType": [
    "ORIGINAL",
    "PRIMARY",
    "M",
    "MB",
    "ND",
    "MOSAIC"
],
  "ImagingFrequency": 123.259,
  "InPlanePhaseEncodingDirectionDICOM": "COL",
  "InstitutionAddress": "Chemin_Queen-Mary_4565_Montreal_District_CA_H3W_1W5",
  "InstitutionName": "IUGM",
  "InstitutionalDepartmentName": "Department",
  "MRAcquisitionType": "2D",
  "MagneticFieldStrength": 3,
  "Manufacturer": "Siemens",
  "ManufacturersModelName": "Prisma_fit",
  "Modality": "MR",
  "MultibandAccelerationFactor": 4,
  "PartialFourier": 1,
  "PatientPosition": "HFS",
  "PercentPhaseFOV": 100,
  "PhaseEncodingDirection": "j",
  "PhaseEncodingSteps": 104,
  "PhaseResolution": 1,
  "PixelBandwidth": 2290,
  "ProcedureStepDescription": "hcptrt_generic",
  "ProtocolName": "func_task-language_run-1",
  "PulseSequenceDetails": "%CustomerSeq%_cmrr_mbep2d_bold",
  "ReceiveCoilActiveElements": "HC1-7;NC1,2",
  "ReceiveCoilName": "HeadNeck_64",
  "ReconMatrixPE": 104,
  "RepetitionTime": 1.49,
  "SAR": 0.030196,
  "ScanOptions": "FS",
  "ScanningSequence": "EP",
  "SequenceName": "epfid2d1_104",
  "SequenceVariant": "SK_SS",
  "SeriesDescription": "func_task-language_run-1",
  "SeriesNumber": 27,
  "ShimSetting": [635, -7265, -8832, 598, -1, -229, -52, -9],
  "SliceThickness": 2,
  "SliceTiming": [0, 0.785, 0.1, 0.8825, 0.1975, 0.98, 0.295, 1.0775, 0.3925, 1.1775, 0.49, 1.275, 0.5875, 1.3725, 0.6875, 0, 0.785, 0.1, 0.8825, 0.1975, 0.98, 0.295, 1.0775, 0.3925, 1.1775, 0.49, 1.275, 0.5875, 1.3725, 0.6875, 0, 0.785, 0.1, 0.8825, 0.1975, 0.98, 0.295, 1.0775, 0.3925, 1.1775, 0.49, 1.275, 0.5875, 1.3725, 0.6875, 0, 0.785, 0.1, 0.8825, 0.1975, 0.98, 0.295, 1.0775, 0.3925, 1.1775, 0.49, 1.275, 0.5875, 1.3725, 0.6875],
  "SoftwareVersions": "syngo_MR_E11",
  "SpacingBetweenSlices": 2,
  "StationName": "MRC35049",
  "TaskName": "language",
  "TotalReadoutTime": 0.0576811,
  "TxRefAmp": 218.093,
  "WipMemBlock": "69ce353f-aac6-47ae-aa80-337c3263d536||Sequence: R016 ve11c/master r/e634e98; Dec 19 2017 11:00:25 by eja",
  "dcmmeta_affine": [
    [-1.994744896888733, 0.1398361325263977, -0.03793108090758324, 100.38220977783203],
    [0.14404894411563873, 1.8576991558074951, -0.7267763018608093, -69.57462310791016],
    [0.015582527965307236, 0.7275986075401306, 1.8628895282745361, -65.5176773071289],
    [0.0, 0.0, 0.0, 1.0]
],
  "dcmmeta_reorient_transform": [
    [0.0, -1.0, 0.0, 103.0],
    [1.0, 0.0, 0.0, 0.0],
    [0.0, 0.0, 1.0, 0.0],
    [0.0, 0.0, 0.0, 1.0]
],
  "dcmmeta_shape": [104, 104, 60, 159],
  "dcmmeta_slice_dim": 2,
  "dcmmeta_version": 0.6,
  "global": {
    "const": {
      "AcquisitionMatrix": [104, 0, 0, 104],
      "AngioFlag": "N",
      "BitsAllocated": 16,
      "BitsStored": 16,
      "BodyPartExamined": "BRAIN",
      "Columns": 832,
      "EchoNumbers": 1,
      "EchoTime": 37.0,
      "EchoTrainLength": 104,
      "FlipAngle": 52.0,
      "HighBit": 15,
      "ImageOrientationPatient": [0.99737243390358, -0.0720244700973, 0.00779126411132, 0.06991806894735, 0.92884956983589, -0.3637993131527],
      "ImagePositionPatient": [-891.77281752213, -745.53706376251, 268.5988394721],
      "ImageType": [
        "ORIGINAL",
        "PRIMARY",
        "M",
        "MB",
        "ND",
        "MOSAIC"
],
      "ImagedNucleus": "1H",
      "ImagingFrequency": 123.259324,
      "InPlanePhaseEncodingDirection": "COL",
      "MRAcquisitionType": "2D",
      "MagneticFieldStrength": 3.0,
      "Manufacturer": "SIEMENS",
      "ManufacturerModelName": "Prisma_fit",
      "Modality": "MR",
      "NumberOfAverages": 1.0,
      "NumberOfPhaseEncodingSteps": 104,
      "PercentPhaseFieldOfView": 100.0,
      "PercentSampling": 100.0,
      "PerformedProcedureStepStartTime": "143307.958000",
      "PhotometricInterpretation": "MONOCHROME2",
      "PixelBandwidth": 2290.0,
      "PixelRepresentation": 0,
      "PixelSpacing": [2.0, 2.0],
      "ProtocolName": "func_task-language_run-1",
      "RepetitionTime": 1490.0,
      "Rows": 832,
      "SAR": 0.03019601455466,
      "SamplesPerPixel": 1,
      "ScanOptions": "FS",
      "ScanningSequence": "EP",
      "SequenceName": "epfid2d1_104",
      "SequenceVariant": [
        "SK",
        "SS"
],
      "SeriesDescription": "func_task-language_run-1",
      "SeriesNumber": 27,
      "SeriesTime": "153614.780000",
      "SliceLocation": -37.647308936288,
      "SliceThickness": 2.0,
      "SmallestImagePixelValue": 0,
      "SoftwareVersions": "syngo MR E11",
      "SpacingBetweenSlices": 1.9999999732819,
      "SpecificCharacterSet": "ISO_IR 100",
      "StudyID": "1",
      "StudyTime": "143307.853000",
      "TransmitCoilName": "Body",
      "VariableFlipAngleFlag": "N",
      "WindowCenterWidthExplanation": "Algo1",
      "dBdt": 0.0},
    "slices": {}
  },
  "time": {
    "samples": {
      "AcquisitionNumber": [1, 2, 3, 4, 5, 6, 7, 8, 9, 10, 11, 12, 13, 14, 15, 16, 17, 18, 19, 20, 21, 22, 23, 24, 25, 26, 27, 28, 29, 30, 31, 32, 33, 34, 35, 36, 37, 38, 39, 40, 41, 42, 43, 44, 45, 46, 47, 48, 49, 50, 51, 52, 53, 54, 55, 56, 57, 58, 59, 60, 61, 62, 63, 64, 65, 66, 67, 68, 69, 70, 71, 72, 73, 74, 75, 76, 77, 78, 79, 80, 81, 82, 83, 84, 85, 86, 87, 88, 89, 90, 91, 92, 93, 94, 95, 96, 97, 98, 99, 100, 101, 102, 103, 104, 105, 106, 107, 108, 109, 110, 111, 112, 113, 114, 115, 116, 117, 118, 119, 120, 121, 122, 123, 124, 125, 126, 127, 128, 129, 130, 131, 132, 133, 134, 135, 136, 137, 138, 139, 140, 141, 142, 143, 144, 145, 146, 147, 148, 149, 150, 151, 152, 153, 154, 155, 156, 157, 158, 159],
      "AcquisitionTime": ["153506.715000", "153508.205000", "153509.695000", "153511.185000", "153512.675000", "153514.165000", "153515.655000", "153517.145000", "153518.635000", "153520.125000", "153521.615000", "153523.105000", "153524.595000", "153526.085000", "153527.575000", "153529.065000", "153530.555000", "153532.045000", "153533.535000", "153535.025000", "153536.515000", "153538.005000", "153539.495000", "153540.985000", "153542.475000", "153543.965000", "153545.455000", "153546.945000", "153548.435000", "153549.925000", "153551.415000", "153552.905000", "153554.395000", "153555.885000", "153557.375000", "153558.865000", "153600.355000", "153601.845000", "153603.335000", "153604.825000", "153606.315000", "153607.805000", "153609.295000", "153610.785000", "153612.275000", "153613.765000", "153615.255000", "153616.745000", "153618.235000", "153619.725000", "153621.215000", "153622.705000", "153624.195000", "153625.685000", "153627.175000", "153628.665000", "153630.155000", "153631.645000", "153633.135000", "153634.625000", "153636.115000", "153637.605000", "153639.095000", "153640.585000", "153642.075000", "153643.565000", "153645.055000", "153646.545000", "153648.035000", "153649.525000", "153651.015000", "153652.505000", "153653.995000", "153655.485000", "153656.975000", "153658.465000", "153659.955000", "153701.445000", "153702.935000", "153704.425000", "153705.915000", "153707.405000", "153708.895000", "153710.385000", "153711.875000", "153713.365000", "153714.855000", "153716.345000", "153717.835000", "153719.325000", "153720.815000", "153722.305000", "153723.795000", "153725.285000", "153726.775000", "153728.265000", "153729.755000", "153731.245000", "153732.735000", "153734.225000", "153735.715000", "153737.205000", "153738.695000", "153740.185000", "153741.675000", "153743.165000", "153744.655000", "153746.145000", "153747.635000", "153749.125000", "153750.615000", "153752.105000", "153753.595000", "153755.085000", "153756.575000", "153758.065000", "153759.555000", "153801.045000", "153802.535000", "153804.025000", "153805.515000", "153807.005000", "153808.495000", "153809.985000", "153811.475000", "153812.965000", "153814.455000", "153815.945000", "153817.435000", "153818.925000", "153820.415000", "153821.905000", "153823.395000", "153824.885000", "153826.375000", "153827.865000", "153829.355000", "153830.845000", "153832.335000", "153833.825000", "153835.315000", "153836.805000", "153838.295000", "153839.785000", "153841.275000", "153842.765000", "153844.255000", "153845.745000", "153847.235000", "153848.725000", "153850.215000", "153851.705000", "153853.195000", "153854.685000", "153856.175000", "153857.665000", "153859.155000", "153900.645000", "153902.135000"],
      "ContentTime": ["153614.783000", "153614.786000", "153614.794000", "153614.797000", "153614.800000", "153614.803000", "153614.806000", "153614.809000", "153614.812000", "153614.815000", "153614.818000", "153614.821000", "153614.824000", "153634.750000", "153634.753000", "153634.756000", "153634.759000", "153634.762000", "153634.765000", "153634.768000", "153634.771000", "153634.774000", "153634.777000", "153634.780000", "153634.783000", "153634.814000", "153634.817000", "153634.828000", "153634.831000", "153634.834000", "153634.837000", "153634.840000", "153634.843000", "153654.750000", "153654.753000", "153654.756000", "153654.759000", "153654.762000", "153654.765000", "153654.768000", "153654.771000", "153654.774000", "153654.777000", "153654.780000", "153654.783000", "153654.786000", "153654.789000", "153654.792000", "153654.795000", "153654.798000", "153654.801000", "153654.812000", "153654.815000", "153714.750000", "153714.753000", "153714.756000", "153714.759000", "153714.762000", "153714.765000", "153714.768000", "153714.771000", "153714.774000", "153714.777000", "153714.780000", "153714.783000", "153714.787000", "153714.790000", "153714.793000", "153714.796000", "153714.799000", "153714.802000", "153714.805000", "153714.808000", "153714.811000", "153734.750000", "153734.753000", "153734.756000", "153734.759000", "153734.762000", "153734.769000", "153734.772000", "153734.776000", "153734.778000", "153734.781000", "153734.784000", "153734.788000", "153734.790000", "153734.793000", "153734.796000", "153734.800000", "153734.803000", "153734.806000", "153734.809000", "153734.812000", "153814.750000", "153814.753000", "153814.756000", "153814.759000", "153814.762000", "153814.765000", "153814.768000", "153814.772000", "153814.775000", "153814.778000", "153814.780000", "153814.784000", "153814.787000", "153814.790000", "153814.793000", "153814.796000", "153814.799000", "153814.802000", "153814.805000", "153814.808000", "153814.811000", "153814.814000", "153814.817000", "153814.820000", "153814.823000", "153814.826000", "153814.829000", "153814.832000", "153814.835000", "153814.838000", "153814.841000", "153814.844000", "153854.750000", "153854.753000", "153854.756000", "153854.759000", "153854.762000", "153854.765000", "153854.768000", "153854.772000", "153854.775000", "153854.778000", "153854.781000", "153854.784000", "153854.787000", "153854.790000", "153854.793000", "153854.796000", "153854.799000", "153854.802000", "153854.805000", "153854.808000", "153854.811000", "153854.814000", "153854.817000", "153854.821000", "153854.824000", "153854.826000", "153903.855000", "153903.859000", "153903.862000", "153903.865000", "153903.868000", "153903.871000", "153903.874000"],
      "InstanceCreationTime": ["153614.783000", "153614.786000", "153614.794000", "153614.797000", "153614.800000", "153614.803000", "153614.806000", "153614.809000", "153614.812000", "153614.815000", "153614.818000", "153614.821000", "153614.824000", "153634.750000", "153634.753000", "153634.756000", "153634.759000", "153634.762000", "153634.765000", "153634.768000", "153634.771000", "153634.774000", "153634.777000", "153634.780000", "153634.783000", "153634.814000", "153634.817000", "153634.828000", "153634.831000", "153634.834000", "153634.837000", "153634.840000", "153634.843000", "153654.750000", "153654.753000", "153654.756000", "153654.759000", "153654.762000", "153654.765000", "153654.768000", "153654.771000", "153654.774000", "153654.777000", "153654.780000", "153654.783000", "153654.786000", "153654.789000", "153654.792000", "153654.795000", "153654.798000", "153654.801000", "153654.812000", "153654.815000", "153714.750000", "153714.753000", "153714.756000", "153714.759000", "153714.762000", "153714.765000", "153714.768000", "153714.771000", "153714.774000", "153714.777000", "153714.780000", "153714.783000", "153714.787000", "153714.790000", "153714.793000", "153714.796000", "153714.799000", "153714.802000", "153714.805000", "153714.808000", "153714.811000", "153734.750000", "153734.753000", "153734.756000", "153734.759000", "153734.762000", "153734.769000", "153734.772000", "153734.776000", "153734.778000", "153734.781000", "153734.784000", "153734.788000", "153734.790000", "153734.793000", "153734.796000", "153734.800000", "153734.803000", "153734.806000", "153734.809000", "153734.812000", "153814.750000", "153814.753000", "153814.756000", "153814.759000", "153814.762000", "153814.765000", "153814.768000", "153814.772000", "153814.775000", "153814.778000", "153814.780000", "153814.784000", "153814.787000", "153814.790000", "153814.793000", "153814.796000", "153814.799000", "153814.802000", "153814.805000", "153814.808000", "153814.811000", "153814.814000", "153814.817000", "153814.820000", "153814.823000", "153814.826000", "153814.829000", "153814.832000", "153814.835000", "153814.838000", "153814.841000", "153814.844000", "153854.750000", "153854.753000", "153854.756000", "153854.759000", "153854.762000", "153854.765000", "153854.768000", "153854.772000", "153854.775000", "153854.778000", "153854.781000", "153854.784000", "153854.787000", "153854.790000", "153854.793000", "153854.796000", "153854.799000", "153854.802000", "153854.805000", "153854.808000", "153854.811000", "153854.814000", "153854.817000", "153854.821000", "153854.824000", "153854.826000", "153903.855000", "153903.859000", "153903.862000", "153903.865000", "153903.868000", "153903.871000", "153903.874000"],
      "InstanceNumber": [1, 2, 3, 4, 5, 6, 7, 8, 9, 10, 11, 12, 13, 14, 15, 16, 17, 18, 19, 20, 21, 22, 23, 24, 25, 26, 27, 28, 29, 30, 31, 32, 33, 34, 35, 36, 37, 38, 39, 40, 41, 42, 43, 44, 45, 46, 47, 48, 49, 50, 51, 52, 53, 54, 55, 56, 57, 58, 59, 60, 61, 62, 63, 64, 65, 66, 67, 68, 69, 70, 71, 72, 73, 74, 75, 76, 77, 78, 79, 80, 81, 82, 83, 84, 85, 86, 87, 88, 89, 90, 91, 92, 93, 94, 95, 96, 97, 98, 99, 100, 101, 102, 103, 104, 105, 106, 107, 108, 109, 110, 111, 112, 113, 114, 115, 116, 117, 118, 119, 120, 121, 122, 123, 124, 125, 126, 127, 128, 129, 130, 131, 132, 133, 134, 135, 136, 137, 138, 139, 140, 141, 142, 143, 144, 145, 146, 147, 148, 149, 150, 151, 152, 153, 154, 155, 156, 157, 158, 159],
      "LargestImagePixelValue": [43261, 40886, 40648, 38523, 39093, 38705, 39840, 39243, 39633, 40124, 39281, 39626, 39187, 40042, 39634, 39879, 39841, 39484, 37203, 38278, 38129, 38351, 38538, 37988, 38069, 38832, 38460, 38222, 38275, 38180, 38674, 38218, 38058, 37666, 38116, 38561, 38201, 38719, 38868, 38181, 38219, 38188, 37951, 38069, 38546, 38400, 38557, 38489, 38233, 38217, 38686, 38550, 38364, 38385, 38227, 38073, 38583, 38266, 38328, 38073, 38374, 38119, 37658, 38086, 37877, 37813, 37468, 38005, 37679, 38011, 38291, 38215, 37957, 38116, 38313, 38096, 38649, 37984, 38700, 38546, 38166, 38502, 38267, 37767, 38572, 38504, 37935, 37584, 38340, 37631, 37106, 37241, 37550, 37402, 37385, 37630, 37902, 37807, 37287, 37726, 37778, 37608, 37571, 38250, 38058, 37676, 37565, 37953, 37818, 37934, 38042, 38038, 38161, 37570, 37994, 37950, 38244, 37889, 37839, 37763, 37657, 37699, 37681, 37243, 37643, 37386, 37682, 36997, 37458, 37894, 37250, 37719, 37790, 37394, 37691, 37974, 37649, 37579, 37655, 37814, 37095, 37492, 36611, 37125, 37231, 37241, 36984, 37317, 37482, 37421, 37853, 37352, 36629, 39766, 38736, 38231, 38891, 39132, 37995],
      "WindowCenter": [10054.0, 10006.0, 9968.0, 9915.0, 9928.0, 9928.0, 9948.0, 9935.0, 9935.0, 9948.0, 9943.0, 9935.0, 9920.0, 9923.0, 9922.0, 9929.0, 9937.0, 9925.0, 9887.0, 9882.0, 9877.0, 9885.0, 9877.0, 9876.0, 9868.0, 9857.0, 9848.0, 9833.0, 9838.0, 9834.0, 9839.0, 9847.0, 9855.0, 9851.0, 9852.0, 9855.0, 9857.0, 9872.0, 9874.0, 9866.0, 9850.0, 9848.0, 9847.0, 9848.0, 9848.0, 9855.0, 9848.0, 9838.0, 9830.0, 9828.0, 9846.0, 9857.0, 9841.0, 9814.0, 9806.0, 9804.0, 9815.0, 9803.0, 9796.0, 9789.0, 9817.0, 9838.0, 9841.0, 9853.0, 9858.0, 9843.0, 9827.0, 9831.0, 9832.0, 9840.0, 9857.0, 9876.0, 9860.0, 9851.0, 9848.0, 9833.0, 9829.0, 9829.0, 9853.0, 9870.0, 9857.0, 9825.0, 9812.0, 9800.0, 9825.0, 9814.0, 9798.0, 9776.0, 9800.0, 9848.0, 9848.0, 9832.0, 9825.0, 9825.0, 9828.0, 9819.0, 9817.0, 9835.0, 9845.0, 9835.0, 9828.0, 9841.0, 9836.0, 9841.0, 9834.0, 9827.0, 9829.0, 9836.0, 9825.0, 9825.0, 9840.0, 9849.0, 9865.0, 9851.0, 9824.0, 9804.0, 9833.0, 9847.0, 9834.0, 9810.0, 9800.0, 9807.0, 9814.0, 9818.0, 9834.0, 9827.0, 9824.0, 9820.0, 9819.0, 9817.0, 9812.0, 9815.0, 9801.0, 9819.0, 9824.0, 9847.0, 9828.0, 9818.0, 9822.0, 9839.0, 9861.0, 9846.0, 9801.0, 9786.0, 9791.0, 9801.0, 9796.0, 9793.0, 9784.0, 9776.0, 9796.0, 9845.0, 9831.0, 9806.0, 9842.0, 9845.0, 9852.0, 9845.0, 9814.0],
      "WindowWidth": [21630.0, 21499.0, 21392.0, 21271.0, 21287.0, 21275.0, 21313.0, 21286.0, 21284.0, 21311.0, 21301.0, 21284.0, 21250.0, 21252.0, 21249.0, 21263.0, 21281.0, 21262.0, 21187.0, 21158.0, 21137.0, 21150.0, 21134.0, 21131.0, 21115.0, 21088.0, 21066.0, 21038.0, 21044.0, 21039.0, 21047.0, 21064.0, 21084.0, 21078.0, 21080.0, 21085.0, 21088.0, 21118.0, 21123.0, 21109.0, 21075.0, 21069.0, 21069.0, 21069.0, 21070.0, 21080.0, 21066.0, 21045.0, 21028.0, 21022.0, 21063.0, 21090.0, 21055.0, 20995.0, 20976.0, 20970.0, 20987.0, 20965.0, 20949.0, 20938.0, 20995.0, 21041.0, 21055.0, 21074.0, 21092.0, 21059.0, 21023.0, 21027.0, 21029.0, 21051.0, 21086.0, 21128.0, 21097.0, 21075.0, 21067.0, 21035.0, 21022.0, 21022.0, 21074.0, 21114.0, 21091.0, 21022.0, 20985.0, 20963.0, 21008.0, 20990.0, 20955.0, 20911.0, 20956.0, 21069.0, 21074.0, 21034.0, 21017.0, 21015.0, 21024.0, 21004.0, 20998.0, 21040.0, 21061.0, 21039.0, 21025.0, 21052.0, 21044.0, 21052.0, 21038.0, 21024.0, 21030.0, 21043.0, 21019.0, 21017.0, 21047.0, 21068.0, 21105.0, 21078.0, 21015.0, 20972.0, 21028.0, 21063.0, 21034.0, 20981.0, 20960.0, 20976.0, 20991.0, 21005.0, 21035.0, 21022.0, 21011.0, 21006.0, 21003.0, 20997.0, 20989.0, 20992.0, 20965.0, 21007.0, 21016.0, 21065.0, 21027.0, 21002.0, 21006.0, 21045.0, 21099.0, 21067.0, 20971.0, 20934.0, 20942.0, 20963.0, 20953.0, 20943.0, 20925.0, 20906.0, 20948.0, 21062.0, 21022.0, 20962.0, 21055.0, 21057.0, 21066.0, 21055.0, 20989.0]
    },
    "slices": {}
  }
}