{
  "AcquisitionMatrixPE": 104,
  "AcquisitionNumber": 1,
  "AcquisitionTime": "15:51:31.807500",
  "BandwidthPerPixelPhaseEncode": 17.17,
  "BaseResolution": 104,
  "BodyPartExamined": "BRAIN",
  "CoilString": "HC1-7;NC1_2",
  "ConsistencyInfo": "N4_VE11C_LATEST_20160120",
  "ConversionSoftware": "dcm2niix",
  "ConversionSoftwareVersion": "v1.0.20190902",
  "DerivedVendorReportedEchoSpacing": 0.000560011,
  "DeviceSerialNumber": "167006",
  "DwellTime": 2.1e-06,
  "EchoTime": 0.037,
  "EchoTrainLength": 104,
  "EffectiveEchoSpacing": 0.000560011,
  "FlipAngle": 52,
  "ImageComments": "Unaliased_MB4_PE3_LB",
  "ImageOrientationPatientDICOM": [0.997372, -0.0720245, 0.00779126, 0.0699181, 0.92885, -0.363799],
  "ImageType": [
    "ORIGINAL",
    "PRIMARY",
    "M",
    "MB",
    "ND",
    "MOSAIC"
],
  "ImagingFrequency": 123.259,
  "InPlanePhaseEncodingDirectionDICOM": "COL",
  "InstitutionAddress": "Chemin_Queen-Mary_4565_Montreal_District_CA_H3W_1W5",
  "InstitutionName": "IUGM",
  "InstitutionalDepartmentName": "Department",
  "MRAcquisitionType": "2D",
  "MagneticFieldStrength": 3,
  "Manufacturer": "Siemens",
  "ManufacturersModelName": "Prisma_fit",
  "Modality": "MR",
  "MultibandAccelerationFactor": 4,
  "PartialFourier": 1,
  "PatientPosition": "HFS",
  "PercentPhaseFOV": 100,
  "PhaseEncodingDirection": "j",
  "PhaseEncodingSteps": 104,
  "PhaseResolution": 1,
  "PixelBandwidth": 2290,
  "ProcedureStepDescription": "hcptrt_generic",
  "ProtocolName": "func_task-relational_run-1",
  "PulseSequenceDetails": "%CustomerSeq%_cmrr_mbep2d_bold",
  "ReceiveCoilActiveElements": "HC1-7;NC1,2",
  "ReceiveCoilName": "HeadNeck_64",
  "ReconMatrixPE": 104,
  "RepetitionTime": 1.49,
  "SAR": 0.0300776,
  "ScanOptions": "FS",
  "ScanningSequence": "EP",
  "SequenceName": "epfid2d1_104",
  "SequenceVariant": "SK_SS",
  "SeriesDescription": "func_task-relational_run-1",
  "SeriesNumber": 35,
  "ShimSetting": [635, -7265, -8832, 598, -1, -229, -52, -9],
  "SliceThickness": 2,
  "SliceTiming": [0, 0.785, 0.0975, 0.8825, 0.1975, 0.98, 0.295, 1.0775, 0.3925, 1.175, 0.49, 1.275, 0.5875, 1.3725, 0.6875, 0, 0.785, 0.0975, 0.8825, 0.1975, 0.98, 0.295, 1.0775, 0.3925, 1.175, 0.49, 1.275, 0.5875, 1.3725, 0.6875, 0, 0.785, 0.0975, 0.8825, 0.1975, 0.98, 0.295, 1.0775, 0.3925, 1.175, 0.49, 1.275, 0.5875, 1.3725, 0.6875, 0, 0.785, 0.0975, 0.8825, 0.1975, 0.98, 0.295, 1.0775, 0.3925, 1.175, 0.49, 1.275, 0.5875, 1.3725, 0.6875],
  "SoftwareVersions": "syngo_MR_E11",
  "SpacingBetweenSlices": 2,
  "StationName": "MRC35049",
  "TaskName": "relational",
  "TotalReadoutTime": 0.0576811,
  "TxRefAmp": 218.093,
  "WipMemBlock": "fb731572-b7b3-4751-bc7a-54493e53098a||Sequence: R016 ve11c/master r/e634e98; Dec 19 2017 11:00:25 by eja",
  "dcmmeta_affine": [
    [-1.994744896888733, 0.1398361325263977, -0.03793108090758324, 100.38220977783203],
    [0.14404894411563873, 1.8576991558074951, -0.7267763018608093, -69.57462310791016],
    [0.015582527965307236, 0.7275986075401306, 1.8628895282745361, -65.5176773071289],
    [0.0, 0.0, 0.0, 1.0]
],
  "dcmmeta_reorient_transform": [
    [0.0, -1.0, 0.0, 103.0],
    [1.0, 0.0, 0.0, 0.0],
    [0.0, 0.0, 1.0, 0.0],
    [0.0, 0.0, 0.0, 1.0]
],
  "dcmmeta_shape": [104, 104, 60, 119],
  "dcmmeta_slice_dim": 2,
  "dcmmeta_version": 0.6,
  "global": {
    "const": {
      "AcquisitionMatrix": [104, 0, 0, 104],
      "AngioFlag": "N",
      "BitsAllocated": 16,
      "BitsStored": 16,
      "BodyPartExamined": "BRAIN",
      "Columns": 832,
      "EchoNumbers": 1,
      "EchoTime": 37.0,
      "EchoTrainLength": 104,
      "FlipAngle": 52.0,
      "HighBit": 15,
      "ImageOrientationPatient": [0.99737243390358, -0.0720244700973, 0.00779126411132, 0.06991806894735, 0.92884956983589, -0.3637993131527],
      "ImagePositionPatient": [-891.77281752213, -745.53706376251, 268.5988394721],
      "ImageType": [
        "ORIGINAL",
        "PRIMARY",
        "M",
        "MB",
        "ND",
        "MOSAIC"
],
      "ImagedNucleus": "1H",
      "ImagingFrequency": 123.259329,
      "InPlanePhaseEncodingDirection": "COL",
      "MRAcquisitionType": "2D",
      "MagneticFieldStrength": 3.0,
      "Manufacturer": "SIEMENS",
      "ManufacturerModelName": "Prisma_fit",
      "Modality": "MR",
      "NumberOfAverages": 1.0,
      "NumberOfPhaseEncodingSteps": 104,
      "PercentPhaseFieldOfView": 100.0,
      "PercentSampling": 100.0,
      "PerformedProcedureStepStartTime": "143307.958000",
      "PhotometricInterpretation": "MONOCHROME2",
      "PixelBandwidth": 2290.0,
      "PixelRepresentation": 0,
      "PixelSpacing": [2.0, 2.0],
      "ProtocolName": "func_task-relational_run-1",
      "RepetitionTime": 1490.0,
      "Rows": 832,
      "SAR": 0.03007756713345,
      "SamplesPerPixel": 1,
      "ScanOptions": "FS",
      "ScanningSequence": "EP",
      "SequenceName": "epfid2d1_104",
      "SequenceVariant": [
        "SK",
        "SS"
],
      "SeriesDescription": "func_task-relational_run-1",
      "SeriesNumber": 35,
      "SeriesTime": "155258.348000",
      "SliceLocation": -37.647308936288,
      "SliceThickness": 2.0,
      "SmallestImagePixelValue": 0,
      "SoftwareVersions": "syngo MR E11",
      "SpacingBetweenSlices": 1.9999999732819,
      "SpecificCharacterSet": "ISO_IR 100",
      "StudyID": "1",
      "StudyTime": "143307.853000",
      "TransmitCoilName": "Body",
      "VariableFlipAngleFlag": "N",
      "WindowCenterWidthExplanation": "Algo1",
      "dBdt": 0.0},
    "slices": {}
  },
  "time": {
    "samples": {
      "AcquisitionNumber": [1, 2, 3, 4, 5, 6, 7, 8, 9, 10, 11, 12, 13, 14, 15, 16, 17, 18, 19, 20, 21, 22, 23, 24, 25, 26, 27, 28, 29, 30, 31, 32, 33, 34, 35, 36, 37, 38, 39, 40, 41, 42, 43, 44, 45, 46, 47, 48, 49, 50, 51, 52, 53, 54, 55, 56, 57, 58, 59, 60, 61, 62, 63, 64, 65, 66, 67, 68, 69, 70, 71, 72, 73, 74, 75, 76, 77, 78, 79, 80, 81, 82, 83, 84, 85, 86, 87, 88, 89, 90, 91, 92, 93, 94, 95, 96, 97, 98, 99, 100, 101, 102, 103, 104, 105, 106, 107, 108, 109, 110, 111, 112, 113, 114, 115, 116, 117, 118, 119],
      "AcquisitionTime": ["155131.807500", "155133.297500", "155134.787500", "155136.277500", "155137.767500", "155139.257500", "155140.747500", "155142.237500", "155143.727500", "155145.217500", "155146.707500", "155148.197500", "155149.687500", "155151.177500", "155152.667500", "155154.157500", "155155.647500", "155157.137500", "155158.627500", "155200.117500", "155201.607500", "155203.097500", "155204.587500", "155206.077500", "155207.567500", "155209.057500", "155210.547500", "155212.037500", "155213.527500", "155215.017500", "155216.507500", "155217.997500", "155219.487500", "155220.977500", "155222.467500", "155223.957500", "155225.447500", "155226.937500", "155228.427500", "155229.917500", "155231.407500", "155232.897500", "155234.387500", "155235.877500", "155237.367500", "155238.857500", "155240.347500", "155241.837500", "155243.327500", "155244.817500", "155246.307500", "155247.797500", "155249.287500", "155250.777500", "155252.267500", "155253.757500", "155255.247500", "155256.737500", "155258.227500", "155259.717500", "155301.207500", "155302.697500", "155304.187500", "155305.677500", "155307.167500", "155308.657500", "155310.147500", "155311.637500", "155313.127500", "155314.617500", "155316.107500", "155317.597500", "155319.087500", "155320.577500", "155322.067500", "155323.557500", "155325.047500", "155326.537500", "155328.027500", "155329.517500", "155331.007500", "155332.497500", "155333.987500", "155335.477500", "155336.967500", "155338.457500", "155339.947500", "155341.437500", "155342.927500", "155344.417500", "155345.907500", "155347.397500", "155348.887500", "155350.377500", "155351.867500", "155353.357500", "155354.847500", "155356.337500", "155357.827500", "155359.317500", "155400.807500", "155402.297500", "155403.787500", "155405.277500", "155406.767500", "155408.257500", "155409.747500", "155411.237500", "155412.727500", "155414.217500", "155415.707500", "155417.197500", "155418.687500", "155420.177500", "155421.667500", "155423.157500", "155424.647500", "155426.137500", "155427.627500"],
      "ContentTime": ["155258.351000", "155258.355000", "155258.358000", "155258.361000", "155258.363000", "155258.367000", "155258.370000", "155258.373000", "155258.376000", "155258.379000", "155258.382000", "155258.385000", "155258.388000", "155258.391000", "155258.401000", "155258.404000", "155258.407000", "155258.410000", "155258.413000", "155258.416000", "155258.419000", "155258.422000", "155258.425000", "155258.428000", "155258.431000", "155258.434000", "155258.437000", "155258.440000", "155258.443000", "155258.446000", "155258.449000", "155258.452000", "155318.320000", "155318.323000", "155318.326000", "155318.329000", "155318.332000", "155318.335000", "155318.338000", "155318.341000", "155318.344000", "155318.347000", "155318.350000", "155318.353000", "155318.356000", "155318.359000", "155318.362000", "155318.365000", "155318.368000", "155318.371000", "155318.374000", "155318.377000", "155338.320000", "155338.323000", "155338.326000", "155338.329000", "155338.332000", "155338.335000", "155338.345000", "155338.348000", "155338.351000", "155338.354000", "155338.357000", "155338.360000", "155338.363000", "155338.366000", "155338.369000", "155338.372000", "155338.375000", "155338.378000", "155338.381000", "155338.383000", "155358.320000", "155358.331000", "155358.334000", "155358.337000", "155358.340000", "155358.343000", "155358.346000", "155358.349000", "155358.352000", "155358.355000", "155358.358000", "155358.361000", "155358.364000", "155358.367000", "155358.370000", "155358.373000", "155358.376000", "155358.379000", "155358.382000", "155358.385000", "155429.474000", "155429.477000", "155429.488000", "155429.491000", "155429.504000", "155429.507000", "155429.510000", "155429.513000", "155429.516000", "155429.520000", "155429.523000", "155429.526000", "155429.529000", "155429.532000", "155429.535000", "155429.538000", "155429.541000", "155429.544000", "155429.547000", "155429.550000", "155429.553000", "155429.556000", "155429.559000", "155429.562000", "155429.565000", "155429.568000", "155429.572000"],
      "InstanceCreationTime": ["155258.351000", "155258.355000", "155258.358000", "155258.361000", "155258.363000", "155258.367000", "155258.370000", "155258.373000", "155258.376000", "155258.379000", "155258.382000", "155258.385000", "155258.388000", "155258.391000", "155258.401000", "155258.404000", "155258.407000", "155258.410000", "155258.413000", "155258.416000", "155258.419000", "155258.422000", "155258.425000", "155258.428000", "155258.431000", "155258.434000", "155258.437000", "155258.440000", "155258.443000", "155258.446000", "155258.449000", "155258.452000", "155318.320000", "155318.323000", "155318.326000", "155318.329000", "155318.332000", "155318.335000", "155318.338000", "155318.341000", "155318.344000", "155318.347000", "155318.350000", "155318.353000", "155318.356000", "155318.359000", "155318.362000", "155318.365000", "155318.368000", "155318.371000", "155318.374000", "155318.377000", "155338.320000", "155338.323000", "155338.326000", "155338.329000", "155338.332000", "155338.335000", "155338.345000", "155338.348000", "155338.351000", "155338.354000", "155338.357000", "155338.360000", "155338.363000", "155338.366000", "155338.369000", "155338.372000", "155338.375000", "155338.378000", "155338.381000", "155338.383000", "155358.320000", "155358.331000", "155358.334000", "155358.337000", "155358.340000", "155358.343000", "155358.346000", "155358.349000", "155358.352000", "155358.355000", "155358.358000", "155358.361000", "155358.364000", "155358.367000", "155358.370000", "155358.373000", "155358.376000", "155358.379000", "155358.382000", "155358.385000", "155429.474000", "155429.477000", "155429.488000", "155429.491000", "155429.504000", "155429.507000", "155429.510000", "155429.513000", "155429.516000", "155429.520000", "155429.523000", "155429.526000", "155429.529000", "155429.532000", "155429.535000", "155429.538000", "155429.541000", "155429.544000", "155429.547000", "155429.550000", "155429.553000", "155429.556000", "155429.559000", "155429.562000", "155429.565000", "155429.568000", "155429.572000"],
      "InstanceNumber": [1, 2, 3, 4, 5, 6, 7, 8, 9, 10, 11, 12, 13, 14, 15, 16, 17, 18, 19, 20, 21, 22, 23, 24, 25, 26, 27, 28, 29, 30, 31, 32, 33, 34, 35, 36, 37, 38, 39, 40, 41, 42, 43, 44, 45, 46, 47, 48, 49, 50, 51, 52, 53, 54, 55, 56, 57, 58, 59, 60, 61, 62, 63, 64, 65, 66, 67, 68, 69, 70, 71, 72, 73, 74, 75, 76, 77, 78, 79, 80, 81, 82, 83, 84, 85, 86, 87, 88, 89, 90, 91, 92, 93, 94, 95, 96, 97, 98, 99, 100, 101, 102, 103, 104, 105, 106, 107, 108, 109, 110, 111, 112, 113, 114, 115, 116, 117, 118, 119],
      "LargestImagePixelValue": [44217, 42834, 41656, 41272, 41410, 41530, 41383, 41223, 40965, 40777, 40989, 41146, 40481, 41389, 40308, 40698, 40929, 40986, 40786, 40828, 40608, 41256, 40490, 40446, 40492, 40144, 40426, 40757, 40246, 40198, 39922, 40202, 40478, 40010, 40496, 40791, 40167, 40142, 40627, 40977, 40603, 40264, 40404, 40289, 40632, 40664, 40343, 39464, 39733, 40131, 39714, 39979, 40179, 40132, 40751, 40467, 40651, 40192, 40834, 40404, 39690, 39935, 39549, 39986, 40127, 39785, 40114, 40321, 40534, 41095, 40586, 40096, 40336, 40631, 40026, 40776, 40756, 39786, 40778, 40491, 39876, 40218, 40310, 40291, 40111, 40147, 40484, 40264, 40091, 39680, 39660, 40277, 40141, 39669, 40224, 39360, 40209, 39858, 40213, 40873, 40316, 39358, 40565, 39840, 39182, 40489, 39948, 39934, 39342, 39626, 39875, 39425, 39806, 40224, 39513, 39570, 40684, 39718, 40075],
      "WindowCenter": [9987.0, 9933.0, 9912.0, 9923.0, 9942.0, 9941.0, 9924.0, 9929.0, 9939.0, 9958.0, 9964.0, 9956.0, 9938.0, 9935.0, 9930.0, 9937.0, 9938.0, 9930.0, 9921.0, 9914.0, 9913.0, 9924.0, 9936.0, 9938.0, 9945.0, 9927.0, 9915.0, 9910.0, 9912.0, 9914.0, 9908.0, 9891.0, 9880.0, 9890.0, 9913.0, 9929.0, 9933.0, 9912.0, 9898.0, 9896.0, 9904.0, 9903.0, 9905.0, 9929.0, 9940.0, 9941.0, 9925.0, 9909.0, 9908.0, 9920.0, 9933.0, 9941.0, 9939.0, 9917.0, 9911.0, 9909.0, 9928.0, 9933.0, 9915.0, 9898.0, 9889.0, 9898.0, 9906.0, 9914.0, 9914.0, 9910.0, 9922.0, 9924.0, 9924.0, 9928.0, 9936.0, 9942.0, 9934.0, 9916.0, 9901.0, 9897.0, 9894.0, 9899.0, 9920.0, 9930.0, 9934.0, 9929.0, 9914.0, 9914.0, 9916.0, 9915.0, 9911.0, 9896.0, 9903.0, 9907.0, 9910.0, 9913.0, 9915.0, 9916.0, 9921.0, 9918.0, 9929.0, 9916.0, 9914.0, 9911.0, 9906.0, 9903.0, 9914.0, 9923.0, 9914.0, 9914.0, 9899.0, 9912.0, 9903.0, 9901.0, 9898.0, 9901.0, 9911.0, 9923.0, 9929.0, 9945.0, 9958.0, 9956.0, 9944.0],
      "WindowWidth": [21492.0, 21332.0, 21265.0, 21276.0, 21313.0, 21306.0, 21267.0, 21274.0, 21297.0, 21339.0, 21351.0, 21331.0, 21293.0, 21283.0, 21277.0, 21290.0, 21294.0, 21277.0, 21255.0, 21241.0, 21239.0, 21260.0, 21289.0, 21296.0, 21307.0, 21275.0, 21245.0, 21230.0, 21237.0, 21241.0, 21230.0, 21193.0, 21167.0, 21191.0, 21240.0, 21272.0, 21286.0, 21243.0, 21207.0, 21201.0, 21217.0, 21216.0, 21224.0, 21271.0, 21299.0, 21301.0, 21267.0, 21234.0, 21233.0, 21257.0, 21288.0, 21304.0, 21299.0, 21253.0, 21235.0, 21229.0, 21271.0, 21289.0, 21245.0, 21207.0, 21190.0, 21208.0, 21227.0, 21245.0, 21243.0, 21240.0, 21261.0, 21266.0, 21268.0, 21271.0, 21286.0, 21305.0, 21288.0, 21247.0, 21217.0, 21205.0, 21194.0, 21211.0, 21254.0, 21276.0, 21286.0, 21273.0, 21243.0, 21243.0, 21247.0, 21246.0, 21231.0, 21199.0, 21215.0, 21226.0, 21235.0, 21236.0, 21243.0, 21248.0, 21258.0, 21256.0, 21274.0, 21250.0, 21244.0, 21231.0, 21225.0, 21222.0, 21240.0, 21265.0, 21251.0, 21240.0, 21208.0, 21235.0, 21220.0, 21213.0, 21204.0, 21213.0, 21237.0, 21257.0, 21276.0, 21315.0, 21338.0, 21340.0, 21309.0]
    },
    "slices": {}
  }
}