{
  "AcquisitionMatrixPE": 104,
  "AcquisitionNumber": 1,
  "AcquisitionTime": "15:55:28.422500",
  "BandwidthPerPixelPhaseEncode": 17.17,
  "BaseResolution": 104,
  "BodyPartExamined": "BRAIN",
  "CoilString": "HC1-7;NC1_2",
  "ConsistencyInfo": "N4_VE11C_LATEST_20160120",
  "ConversionSoftware": "dcm2niix",
  "ConversionSoftwareVersion": "v1.0.20190902",
  "DerivedVendorReportedEchoSpacing": 0.000560011,
  "DeviceSerialNumber": "167006",
  "DwellTime": 2.1e-06,
  "EchoTime": 0.037,
  "EchoTrainLength": 104,
  "EffectiveEchoSpacing": 0.000560011,
  "FlipAngle": 52,
  "ImageComments": "Unaliased_MB4_PE3_LB",
  "ImageOrientationPatientDICOM": [0.997372, -0.0720245, 0.00779126, 0.0699181, 0.92885, -0.363799],
  "ImageType": [
    "ORIGINAL",
    "PRIMARY",
    "M",
    "MB",
    "ND",
    "MOSAIC"
],
  "ImagingFrequency": 123.259,
  "InPlanePhaseEncodingDirectionDICOM": "COL",
  "InstitutionAddress": "Chemin_Queen-Mary_4565_Montreal_District_CA_H3W_1W5",
  "InstitutionName": "IUGM",
  "InstitutionalDepartmentName": "Department",
  "MRAcquisitionType": "2D",
  "MagneticFieldStrength": 3,
  "Manufacturer": "Siemens",
  "ManufacturersModelName": "Prisma_fit",
  "Modality": "MR",
  "MultibandAccelerationFactor": 4,
  "PartialFourier": 1,
  "PatientPosition": "HFS",
  "PercentPhaseFOV": 100,
  "PhaseEncodingDirection": "j",
  "PhaseEncodingSteps": 104,
  "PhaseResolution": 1,
  "PixelBandwidth": 2290,
  "ProcedureStepDescription": "hcptrt_generic",
  "ProtocolName": "func_task-motor_run-1",
  "PulseSequenceDetails": "%CustomerSeq%_cmrr_mbep2d_bold",
  "ReceiveCoilActiveElements": "HC1-7;NC1,2",
  "ReceiveCoilName": "HeadNeck_64",
  "ReconMatrixPE": 104,
  "RepetitionTime": 1.49,
  "SAR": 0.030159,
  "ScanOptions": "FS",
  "ScanningSequence": "EP",
  "SequenceName": "epfid2d1_104",
  "SequenceVariant": "SK_SS",
  "SeriesDescription": "func_task-motor_run-1",
  "SeriesNumber": 37,
  "ShimSetting": [635, -7265, -8832, 598, -1, -229, -52, -9],
  "SliceThickness": 2,
  "SliceTiming": [0, 0.785, 0.0975, 0.8825, 0.195, 0.98, 0.295, 1.0775, 0.3925, 1.175, 0.49, 1.275, 0.5875, 1.3725, 0.685, 0, 0.785, 0.0975, 0.8825, 0.195, 0.98, 0.295, 1.0775, 0.3925, 1.175, 0.49, 1.275, 0.5875, 1.3725, 0.685, 0, 0.785, 0.0975, 0.8825, 0.195, 0.98, 0.295, 1.0775, 0.3925, 1.175, 0.49, 1.275, 0.5875, 1.3725, 0.685, 0, 0.785, 0.0975, 0.8825, 0.195, 0.98, 0.295, 1.0775, 0.3925, 1.175, 0.49, 1.275, 0.5875, 1.3725, 0.685],
  "SoftwareVersions": "syngo_MR_E11",
  "SpacingBetweenSlices": 2,
  "StationName": "MRC35049",
  "TaskName": "motor",
  "TotalReadoutTime": 0.0576811,
  "TxRefAmp": 218.093,
  "WipMemBlock": "d7931192-cc36-4a6b-b2c0-a33efd61b078||Sequence: R016 ve11c/master r/e634e98; Dec 19 2017 11:00:25 by eja",
  "dcmmeta_affine": [
    [-1.994744896888733, 0.1398361325263977, -0.03793108090758324, 100.38220977783203],
    [0.14404894411563873, 1.8576991558074951, -0.7267763018608093, -69.57462310791016],
    [0.015582527965307236, 0.7275986075401306, 1.8628895282745361, -65.5176773071289],
    [0.0, 0.0, 0.0, 1.0]
],
  "dcmmeta_reorient_transform": [
    [0.0, -1.0, 0.0, 103.0],
    [1.0, 0.0, 0.0, 0.0],
    [0.0, 0.0, 1.0, 0.0],
    [0.0, 0.0, 0.0, 1.0]
],
  "dcmmeta_shape": [104, 104, 60, 144],
  "dcmmeta_slice_dim": 2,
  "dcmmeta_version": 0.6,
  "global": {
    "const": {
      "AcquisitionMatrix": [104, 0, 0, 104],
      "AngioFlag": "N",
      "BitsAllocated": 16,
      "BitsStored": 16,
      "BodyPartExamined": "BRAIN",
      "Columns": 832,
      "EchoNumbers": 1,
      "EchoTime": 37.0,
      "EchoTrainLength": 104,
      "FlipAngle": 52.0,
      "HighBit": 15,
      "ImageOrientationPatient": [0.99737243390358, -0.0720244700973, 0.00779126411132, 0.06991806894735, 0.92884956983589, -0.3637993131527],
      "ImagePositionPatient": [-891.77281752213, -745.53706376251, 268.5988394721],
      "ImageType": [
        "ORIGINAL",
        "PRIMARY",
        "M",
        "MB",
        "ND",
        "MOSAIC"
],
      "ImagedNucleus": "1H",
      "ImagingFrequency": 123.259329,
      "InPlanePhaseEncodingDirection": "COL",
      "MRAcquisitionType": "2D",
      "MagneticFieldStrength": 3.0,
      "Manufacturer": "SIEMENS",
      "ManufacturerModelName": "Prisma_fit",
      "Modality": "MR",
      "NumberOfAverages": 1.0,
      "NumberOfPhaseEncodingSteps": 104,
      "PercentPhaseFieldOfView": 100.0,
      "PercentSampling": 100.0,
      "PerformedProcedureStepStartTime": "143307.958000",
      "PhotometricInterpretation": "MONOCHROME2",
      "PixelBandwidth": 2290.0,
      "PixelRepresentation": 0,
      "PixelSpacing": [2.0, 2.0],
      "ProtocolName": "func_task-motor_run-1",
      "RepetitionTime": 1490.0,
      "Rows": 832,
      "SAR": 0.0301589527443,
      "SamplesPerPixel": 1,
      "ScanOptions": "FS",
      "ScanningSequence": "EP",
      "SequenceName": "epfid2d1_104",
      "SequenceVariant": [
        "SK",
        "SS"
],
      "SeriesDescription": "func_task-motor_run-1",
      "SeriesNumber": 37,
      "SeriesTime": "155637.862000",
      "SliceLocation": -37.647308936288,
      "SliceThickness": 2.0,
      "SmallestImagePixelValue": 0,
      "SoftwareVersions": "syngo MR E11",
      "SpacingBetweenSlices": 1.9999999732819,
      "SpecificCharacterSet": "ISO_IR 100",
      "StudyID": "1",
      "StudyTime": "143307.853000",
      "TransmitCoilName": "Body",
      "VariableFlipAngleFlag": "N",
      "WindowCenterWidthExplanation": "Algo1",
      "dBdt": 0.0},
    "slices": {}
  },
  "time": {
    "samples": {
      "AcquisitionNumber": [1, 2, 3, 4, 5, 6, 7, 8, 9, 10, 11, 12, 13, 14, 15, 16, 17, 18, 19, 20, 21, 22, 23, 24, 25, 26, 27, 28, 29, 30, 31, 32, 33, 34, 35, 36, 37, 38, 39, 40, 41, 42, 43, 44, 45, 46, 47, 48, 49, 50, 51, 52, 53, 54, 55, 56, 57, 58, 59, 60, 61, 62, 63, 64, 65, 66, 67, 68, 69, 70, 71, 72, 73, 74, 75, 76, 77, 78, 79, 80, 81, 82, 83, 84, 85, 86, 87, 88, 89, 90, 91, 92, 93, 94, 95, 96, 97, 98, 99, 100, 101, 102, 103, 104, 105, 106, 107, 108, 109, 110, 111, 112, 113, 114, 115, 116, 117, 118, 119, 120, 121, 122, 123, 124, 125, 126, 127, 128, 129, 130, 131, 132, 133, 134, 135, 136, 137, 138, 139, 140, 141, 142, 143, 144],
      "AcquisitionTime": ["155528.422500", "155529.912500", "155531.402500", "155532.892500", "155534.382500", "155535.872500", "155537.362500", "155538.852500", "155540.342500", "155541.832500", "155543.322500", "155544.812500", "155546.302500", "155547.792500", "155549.282500", "155550.772500", "155552.262500", "155553.752500", "155555.242500", "155556.732500", "155558.222500", "155559.712500", "155601.202500", "155602.692500", "155604.182500", "155605.672500", "155607.162500", "155608.652500", "155610.142500", "155611.632500", "155613.122500", "155614.612500", "155616.102500", "155617.592500", "155619.082500", "155620.572500", "155622.062500", "155623.552500", "155625.042500", "155626.532500", "155628.022500", "155629.512500", "155631.002500", "155632.492500", "155633.982500", "155635.472500", "155636.962500", "155638.452500", "155639.942500", "155641.432500", "155642.922500", "155644.412500", "155645.902500", "155647.392500", "155648.882500", "155650.372500", "155651.862500", "155653.352500", "155654.842500", "155656.332500", "155657.822500", "155659.312500", "155700.802500", "155702.292500", "155703.782500", "155705.272500", "155706.762500", "155708.252500", "155709.742500", "155711.232500", "155712.722500", "155714.212500", "155715.702500", "155717.192500", "155718.682500", "155720.172500", "155721.662500", "155723.152500", "155724.642500", "155726.132500", "155727.622500", "155729.112500", "155730.602500", "155732.092500", "155733.582500", "155735.072500", "155736.562500", "155738.052500", "155739.542500", "155741.032500", "155742.522500", "155744.012500", "155745.502500", "155746.992500", "155748.482500", "155749.972500", "155751.462500", "155752.952500", "155754.442500", "155755.932500", "155757.422500", "155758.912500", "155800.402500", "155801.892500", "155803.382500", "155804.872500", "155806.362500", "155807.852500", "155809.342500", "155810.832500", "155812.322500", "155813.812500", "155815.302500", "155816.792500", "155818.282500", "155819.772500", "155821.262500", "155822.752500", "155824.242500", "155825.732500", "155827.222500", "155828.712500", "155830.202500", "155831.692500", "155833.182500", "155834.672500", "155836.162500", "155837.652500", "155839.142500", "155840.632500", "155842.122500", "155843.612500", "155845.102500", "155846.592500", "155848.082500", "155849.572500", "155851.062500", "155852.552500", "155854.042500", "155855.532500", "155857.022500", "155858.512500", "155900.002500", "155901.492500"],
      "ContentTime": ["155637.864000", "155637.868000", "155637.871000", "155637.874000", "155637.881000", "155637.884000", "155637.892000", "155637.895000", "155637.898000", "155637.901000", "155637.904000", "155637.907000", "155637.910000", "155657.826000", "155657.830000", "155657.833000", "155657.836000", "155657.839000", "155657.844000", "155657.847000", "155657.850000", "155657.853000", "155657.856000", "155657.859000", "155657.862000", "155657.866000", "155657.869000", "155657.871000", "155657.874000", "155657.878000", "155657.880000", "155657.883000", "155657.886000", "155657.889000", "155717.826000", "155717.829000", "155717.832000", "155717.835000", "155717.838000", "155717.841000", "155717.844000", "155717.847000", "155717.850000", "155717.853000", "155717.856000", "155717.859000", "155717.862000", "155717.865000", "155717.868000", "155717.871000", "155717.874000", "155717.877000", "155717.880000", "155717.888000", "155737.826000", "155737.829000", "155737.832000", "155737.835000", "155737.838000", "155737.841000", "155737.844000", "155737.847000", "155737.850000", "155737.853000", "155737.856000", "155737.859000", "155737.862000", "155737.865000", "155737.868000", "155737.871000", "155737.874000", "155737.877000", "155737.880000", "155737.883000", "155757.826000", "155757.829000", "155757.832000", "155757.835000", "155757.838000", "155757.841000", "155757.844000", "155757.847000", "155757.850000", "155757.853000", "155757.856000", "155757.859000", "155757.862000", "155757.865000", "155757.868000", "155757.871000", "155757.874000", "155757.877000", "155757.880000", "155757.883000", "155837.826000", "155837.829000", "155837.832000", "155837.835000", "155837.838000", "155837.841000", "155837.844000", "155837.847000", "155837.850000", "155837.853000", "155837.856000", "155837.860000", "155837.863000", "155837.866000", "155837.869000", "155837.880000", "155837.883000", "155837.886000", "155837.889000", "155837.892000", "155837.895000", "155837.898000", "155837.901000", "155837.904000", "155837.907000", "155837.910000", "155837.913000", "155837.916000", "155837.919000", "155837.922000", "155837.925000", "155837.928000", "155903.906000", "155903.910000", "155903.913000", "155903.916000", "155903.919000", "155903.922000", "155903.925000", "155903.928000", "155903.931000", "155903.934000", "155903.937000", "155903.940000", "155903.943000", "155903.946000", "155903.949000", "155903.952000", "155903.955000", "155903.958000"],
      "InstanceCreationTime": ["155637.864000", "155637.868000", "155637.871000", "155637.874000", "155637.881000", "155637.884000", "155637.892000", "155637.895000", "155637.898000", "155637.901000", "155637.904000", "155637.907000", "155637.910000", "155657.826000", "155657.830000", "155657.833000", "155657.836000", "155657.839000", "155657.844000", "155657.847000", "155657.850000", "155657.853000", "155657.856000", "155657.859000", "155657.862000", "155657.866000", "155657.869000", "155657.871000", "155657.874000", "155657.878000", "155657.880000", "155657.883000", "155657.886000", "155657.889000", "155717.826000", "155717.829000", "155717.832000", "155717.835000", "155717.838000", "155717.841000", "155717.844000", "155717.847000", "155717.850000", "155717.853000", "155717.856000", "155717.859000", "155717.862000", "155717.865000", "155717.868000", "155717.871000", "155717.874000", "155717.877000", "155717.880000", "155717.888000", "155737.826000", "155737.829000", "155737.832000", "155737.835000", "155737.838000", "155737.841000", "155737.844000", "155737.847000", "155737.850000", "155737.853000", "155737.856000", "155737.859000", "155737.862000", "155737.865000", "155737.868000", "155737.871000", "155737.874000", "155737.877000", "155737.880000", "155737.883000", "155757.826000", "155757.829000", "155757.832000", "155757.835000", "155757.838000", "155757.841000", "155757.844000", "155757.847000", "155757.850000", "155757.853000", "155757.856000", "155757.859000", "155757.862000", "155757.865000", "155757.868000", "155757.871000", "155757.874000", "155757.877000", "155757.880000", "155757.883000", "155837.826000", "155837.829000", "155837.832000", "155837.835000", "155837.838000", "155837.841000", "155837.844000", "155837.847000", "155837.850000", "155837.853000", "155837.856000", "155837.860000", "155837.863000", "155837.866000", "155837.869000", "155837.880000", "155837.883000", "155837.886000", "155837.889000", "155837.892000", "155837.895000", "155837.898000", "155837.901000", "155837.904000", "155837.907000", "155837.910000", "155837.913000", "155837.916000", "155837.919000", "155837.922000", "155837.925000", "155837.928000", "155903.906000", "155903.910000", "155903.913000", "155903.916000", "155903.919000", "155903.922000", "155903.925000", "155903.928000", "155903.931000", "155903.934000", "155903.937000", "155903.940000", "155903.943000", "155903.946000", "155903.949000", "155903.952000", "155903.955000", "155903.958000"],
      "InstanceNumber": [1, 2, 3, 4, 5, 6, 7, 8, 9, 10, 11, 12, 13, 14, 15, 16, 17, 18, 19, 20, 21, 22, 23, 24, 25, 26, 27, 28, 29, 30, 31, 32, 33, 34, 35, 36, 37, 38, 39, 40, 41, 42, 43, 44, 45, 46, 47, 48, 49, 50, 51, 52, 53, 54, 55, 56, 57, 58, 59, 60, 61, 62, 63, 64, 65, 66, 67, 68, 69, 70, 71, 72, 73, 74, 75, 76, 77, 78, 79, 80, 81, 82, 83, 84, 85, 86, 87, 88, 89, 90, 91, 92, 93, 94, 95, 96, 97, 98, 99, 100, 101, 102, 103, 104, 105, 106, 107, 108, 109, 110, 111, 112, 113, 114, 115, 116, 117, 118, 119, 120, 121, 122, 123, 124, 125, 126, 127, 128, 129, 130, 131, 132, 133, 134, 135, 136, 137, 138, 139, 140, 141, 142, 143, 144],
      "LargestImagePixelValue": [42761, 41254, 40588, 40618, 39887, 39114, 39577, 39399, 38845, 40194, 39499, 38116, 37661, 39283, 39156, 39721, 39896, 39937, 40196, 39779, 37325, 37882, 37924, 39738, 40125, 39973, 39885, 39703, 39815, 39465, 39431, 39634, 40194, 40460, 40373, 40339, 40516, 40423, 40604, 40045, 39459, 38601, 40090, 39157, 39539, 39831, 39878, 39967, 39337, 40418, 40241, 39407, 39385, 39397, 38533, 38876, 39298, 39750, 39900, 39596, 39017, 39094, 39513, 38169, 38602, 39081, 38919, 38653, 39823, 39911, 40398, 40918, 40672, 40350, 39895, 40311, 39901, 39877, 40610, 40381, 41006, 40205, 39835, 39724, 40122, 40199, 40912, 40791, 39899, 39610, 40371, 39978, 40243, 40444, 40618, 40359, 40737, 40828, 40025, 40762, 40075, 39886, 40316, 40137, 40293, 40229, 39860, 39987, 40382, 40797, 39927, 40776, 40142, 40227, 39723, 39893, 40232, 39824, 39771, 40519, 40638, 39673, 39697, 39266, 38906, 40140, 39841, 39898, 39910, 39688, 39292, 39855, 39260, 40796, 40600, 40597, 41601, 40961, 40324, 38194, 41242, 42248, 39170, 36859],
      "WindowCenter": [10011.0, 9959.0, 9932.0, 9927.0, 9920.0, 9908.0, 9887.0, 9876.0, 9885.0, 9918.0, 9940.0, 9911.0, 9869.0, 9884.0, 9876.0, 9850.0, 9831.0, 9833.0, 9874.0, 9923.0, 9896.0, 9865.0, 9852.0, 9869.0, 9868.0, 9859.0, 9846.0, 9836.0, 9827.0, 9836.0, 9870.0, 9904.0, 9906.0, 9886.0, 9872.0, 9887.0, 9937.0, 9952.0, 9943.0, 9927.0, 9919.0, 9927.0, 9941.0, 9927.0, 9916.0, 9888.0, 9867.0, 9891.0, 9903.0, 9924.0, 9933.0, 9945.0, 9949.0, 9952.0, 9906.0, 9876.0, 9864.0, 9845.0, 9827.0, 9842.0, 9873.0, 9900.0, 9918.0, 9927.0, 9914.0, 9898.0, 9912.0, 9933.0, 9931.0, 9912.0, 9893.0, 9874.0, 9858.0, 9871.0, 9880.0, 9900.0, 9895.0, 9897.0, 9900.0, 9892.0, 9890.0, 9899.0, 9927.0, 9923.0, 9921.0, 9928.0, 9927.0, 9912.0, 9904.0, 9904.0, 9903.0, 9901.0, 9887.0, 9886.0, 9892.0, 9883.0, 9898.0, 9907.0, 9878.0, 9879.0, 9882.0, 9899.0, 9892.0, 9886.0, 9874.0, 9866.0, 9867.0, 9865.0, 9863.0, 9892.0, 9917.0, 9922.0, 9894.0, 9888.0, 9886.0, 9867.0, 9839.0, 9822.0, 9835.0, 9874.0, 9918.0, 9910.0, 9871.0, 9850.0, 9849.0, 9861.0, 9855.0, 9852.0, 9845.0, 9848.0, 9882.0, 9931.0, 9929.0, 9908.0, 9895.0, 9909.0, 9937.0, 9914.0, 9901.0, 9691.0, 9845.0, 9970.0, 9663.0, 9794.0],
      "WindowWidth": [21522.0, 21369.0, 21292.0, 21264.0, 21243.0, 21215.0, 21165.0, 21137.0, 21159.0, 21223.0, 21276.0, 21226.0, 21131.0, 21150.0, 21133.0, 21078.0, 21033.0, 21032.0, 21123.0, 21240.0, 21196.0, 21126.0, 21090.0, 21115.0, 21112.0, 21091.0, 21066.0, 21041.0, 21023.0, 21045.0, 21121.0, 21195.0, 21201.0, 21159.0, 21127.0, 21154.0, 21265.0, 21304.0, 21284.0, 21245.0, 21234.0, 21260.0, 21283.0, 21258.0, 21234.0, 21168.0, 21118.0, 21171.0, 21203.0, 21245.0, 21265.0, 21303.0, 21310.0, 21325.0, 21220.0, 21148.0, 21114.0, 21071.0, 21029.0, 21061.0, 21135.0, 21198.0, 21239.0, 21269.0, 21234.0, 21194.0, 21222.0, 21272.0, 21260.0, 21214.0, 21174.0, 21131.0, 21097.0, 21122.0, 21151.0, 21189.0, 21184.0, 21190.0, 21189.0, 21173.0, 21165.0, 21187.0, 21249.0, 21246.0, 21240.0, 21254.0, 21254.0, 21220.0, 21201.0, 21206.0, 21199.0, 21192.0, 21164.0, 21161.0, 21172.0, 21155.0, 21183.0, 21202.0, 21143.0, 21139.0, 21151.0, 21188.0, 21176.0, 21163.0, 21134.0, 21114.0, 21119.0, 21112.0, 21110.0, 21167.0, 21229.0, 21234.0, 21180.0, 21161.0, 21160.0, 21118.0, 21053.0, 21016.0, 21041.0, 21126.0, 21224.0, 21214.0, 21127.0, 21079.0, 21077.0, 21099.0, 21086.0, 21077.0, 21062.0, 21071.0, 21151.0, 21255.0, 21251.0, 21202.0, 21172.0, 21205.0, 21269.0, 21211.0, 21184.0, 20696.0, 21067.0, 21403.0, 20674.0, 20918.0]
    },
    "slices": {}
  }
}