{
  "AcquisitionMatrixPE": 104,
  "AcquisitionNumber": 1,
  "AcquisitionTime": "15:03:39.442500",
  "BandwidthPerPixelPhaseEncode": 17.17,
  "BaseResolution": 104,
  "BodyPartExamined": "BRAIN",
  "CoilString": "HC1-7;NC1_2",
  "ConsistencyInfo": "N4_VE11C_LATEST_20160120",
  "ConversionSoftware": "dcm2niix",
  "ConversionSoftwareVersion": "v1.0.20190902",
  "DerivedVendorReportedEchoSpacing": 0.000560011,
  "DeviceSerialNumber": "167006",
  "DwellTime": 2.1e-06,
  "EchoTime": 0.037,
  "EchoTrainLength": 104,
  "EffectiveEchoSpacing": 0.000560011,
  "FlipAngle": 52,
  "ImageComments": "Unaliased_MB4_PE3_LB",
  "ImageOrientationPatientDICOM": [0.997372, -0.0720245, 0.00779126, 0.0699181, 0.92885, -0.363799],
  "ImageType": [
    "ORIGINAL",
    "PRIMARY",
    "M",
    "MB",
    "ND",
    "MOSAIC"
],
  "ImagingFrequency": 123.259,
  "InPlanePhaseEncodingDirectionDICOM": "COL",
  "InstitutionAddress": "Chemin_Queen-Mary_4565_Montreal_District_CA_H3W_1W5",
  "InstitutionName": "IUGM",
  "InstitutionalDepartmentName": "Department",
  "MRAcquisitionType": "2D",
  "MagneticFieldStrength": 3,
  "Manufacturer": "Siemens",
  "ManufacturersModelName": "Prisma_fit",
  "Modality": "MR",
  "MultibandAccelerationFactor": 4,
  "PartialFourier": 1,
  "PatientPosition": "HFS",
  "PercentPhaseFOV": 100,
  "PhaseEncodingDirection": "j",
  "PhaseEncodingSteps": 104,
  "PhaseResolution": 1,
  "PixelBandwidth": 2290,
  "ProcedureStepDescription": "hcptrt_generic",
  "ProtocolName": "func_task-motor_run-1",
  "PulseSequenceDetails": "%CustomerSeq%_cmrr_mbep2d_bold",
  "ReceiveCoilActiveElements": "HC1-7;NC1,2",
  "ReceiveCoilName": "HeadNeck_64",
  "ReconMatrixPE": 104,
  "RepetitionTime": 1.49,
  "SAR": 0.030159,
  "ScanOptions": "FS",
  "ScanningSequence": "EP",
  "SequenceName": "epfid2d1_104",
  "SequenceVariant": "SK_SS",
  "SeriesDescription": "func_task-motor_run-1",
  "SeriesNumber": 11,
  "ShimSetting": [635, -7265, -8832, 598, -1, -229, -52, -9],
  "SliceThickness": 2,
  "SliceTiming": [0, 0.7825, 0.0975, 0.8825, 0.195, 0.98, 0.2925, 1.0775, 0.3925, 1.175, 0.49, 1.2725, 0.5875, 1.3725, 0.685, 0, 0.7825, 0.0975, 0.8825, 0.195, 0.98, 0.2925, 1.0775, 0.3925, 1.175, 0.49, 1.2725, 0.5875, 1.3725, 0.685, 0, 0.7825, 0.0975, 0.8825, 0.195, 0.98, 0.2925, 1.0775, 0.3925, 1.175, 0.49, 1.2725, 0.5875, 1.3725, 0.685, 0, 0.7825, 0.0975, 0.8825, 0.195, 0.98, 0.2925, 1.0775, 0.3925, 1.175, 0.49, 1.2725, 0.5875, 1.3725, 0.685],
  "SoftwareVersions": "syngo_MR_E11",
  "SpacingBetweenSlices": 2,
  "StationName": "MRC35049",
  "TaskName": "motor",
  "TotalReadoutTime": 0.0576811,
  "TxRefAmp": 218.093,
  "WipMemBlock": "bf40c90d-4085-482e-9ac5-b1d645690046||Sequence: R016 ve11c/master r/e634e98; Dec 19 2017 11:00:25 by eja",
  "dcmmeta_affine": [
    [-1.994744896888733, 0.1398361325263977, -0.03793108090758324, 100.38220977783203],
    [0.14404894411563873, 1.8576991558074951, -0.7267763018608093, -69.57462310791016],
    [0.015582527965307236, 0.7275986075401306, 1.8628895282745361, -65.5176773071289],
    [0.0, 0.0, 0.0, 1.0]
],
  "dcmmeta_reorient_transform": [
    [0.0, -1.0, 0.0, 103.0],
    [1.0, 0.0, 0.0, 0.0],
    [0.0, 0.0, 1.0, 0.0],
    [0.0, 0.0, 0.0, 1.0]
],
  "dcmmeta_shape": [104, 104, 60, 144],
  "dcmmeta_slice_dim": 2,
  "dcmmeta_version": 0.6,
  "global": {
    "const": {
      "AcquisitionMatrix": [104, 0, 0, 104],
      "AngioFlag": "N",
      "BitsAllocated": 16,
      "BitsStored": 16,
      "BodyPartExamined": "BRAIN",
      "Columns": 832,
      "EchoNumbers": 1,
      "EchoTime": 37.0,
      "EchoTrainLength": 104,
      "FlipAngle": 52.0,
      "HighBit": 15,
      "ImageOrientationPatient": [0.99737243390358, -0.0720244700973, 0.00779126411132, 0.06991806894735, 0.92884956983589, -0.3637993131527],
      "ImagePositionPatient": [-891.77281752213, -745.53706376251, 268.5988394721],
      "ImageType": [
        "ORIGINAL",
        "PRIMARY",
        "M",
        "MB",
        "ND",
        "MOSAIC"
],
      "ImagedNucleus": "1H",
      "ImagingFrequency": 123.259314,
      "InPlanePhaseEncodingDirection": "COL",
      "MRAcquisitionType": "2D",
      "MagneticFieldStrength": 3.0,
      "Manufacturer": "SIEMENS",
      "ManufacturerModelName": "Prisma_fit",
      "Modality": "MR",
      "NumberOfAverages": 1.0,
      "NumberOfPhaseEncodingSteps": 104,
      "PercentPhaseFieldOfView": 100.0,
      "PercentSampling": 100.0,
      "PerformedProcedureStepStartTime": "143307.958000",
      "PhotometricInterpretation": "MONOCHROME2",
      "PixelBandwidth": 2290.0,
      "PixelRepresentation": 0,
      "PixelSpacing": [2.0, 2.0],
      "ProtocolName": "func_task-motor_run-1",
      "RepetitionTime": 1490.0,
      "Rows": 832,
      "SAR": 0.0301589527443,
      "SamplesPerPixel": 1,
      "ScanOptions": "FS",
      "ScanningSequence": "EP",
      "SequenceName": "epfid2d1_104",
      "SequenceVariant": [
        "SK",
        "SS"
],
      "SeriesDescription": "func_task-motor_run-1",
      "SeriesNumber": 11,
      "SeriesTime": "150458.348000",
      "SliceLocation": -37.647308936288,
      "SliceThickness": 2.0,
      "SmallestImagePixelValue": 0,
      "SoftwareVersions": "syngo MR E11",
      "SpacingBetweenSlices": 1.9999999732819,
      "SpecificCharacterSet": "ISO_IR 100",
      "StudyID": "1",
      "StudyTime": "143307.853000",
      "TransmitCoilName": "Body",
      "VariableFlipAngleFlag": "N",
      "WindowCenterWidthExplanation": "Algo1",
      "dBdt": 0.0},
    "slices": {}
  },
  "time": {
    "samples": {
      "AcquisitionNumber": [1, 2, 3, 4, 5, 6, 7, 8, 9, 10, 11, 12, 13, 14, 15, 16, 17, 18, 19, 20, 21, 22, 23, 24, 25, 26, 27, 28, 29, 30, 31, 32, 33, 34, 35, 36, 37, 38, 39, 40, 41, 42, 43, 44, 45, 46, 47, 48, 49, 50, 51, 52, 53, 54, 55, 56, 57, 58, 59, 60, 61, 62, 63, 64, 65, 66, 67, 68, 69, 70, 71, 72, 73, 74, 75, 76, 77, 78, 79, 80, 81, 82, 83, 84, 85, 86, 87, 88, 89, 90, 91, 92, 93, 94, 95, 96, 97, 98, 99, 100, 101, 102, 103, 104, 105, 106, 107, 108, 109, 110, 111, 112, 113, 114, 115, 116, 117, 118, 119, 120, 121, 122, 123, 124, 125, 126, 127, 128, 129, 130, 131, 132, 133, 134, 135, 136, 137, 138, 139, 140, 141, 142, 143, 144],
      "AcquisitionTime": ["150339.442500", "150340.932500", "150342.422500", "150343.912500", "150345.402500", "150346.892500", "150348.382500", "150349.872500", "150351.362500", "150352.852500", "150354.342500", "150355.832500", "150357.322500", "150358.812500", "150400.302500", "150401.792500", "150403.282500", "150404.772500", "150406.262500", "150407.752500", "150409.242500", "150410.732500", "150412.222500", "150413.712500", "150415.202500", "150416.692500", "150418.182500", "150419.672500", "150421.162500", "150422.652500", "150424.142500", "150425.632500", "150427.122500", "150428.612500", "150430.102500", "150431.592500", "150433.082500", "150434.572500", "150436.062500", "150437.552500", "150439.042500", "150440.532500", "150442.022500", "150443.512500", "150445.002500", "150446.492500", "150447.982500", "150449.472500", "150450.962500", "150452.452500", "150453.942500", "150455.432500", "150456.922500", "150458.412500", "150459.902500", "150501.392500", "150502.882500", "150504.372500", "150505.862500", "150507.352500", "150508.842500", "150510.332500", "150511.822500", "150513.312500", "150514.802500", "150516.292500", "150517.782500", "150519.272500", "150520.762500", "150522.252500", "150523.742500", "150525.232500", "150526.722500", "150528.212500", "150529.702500", "150531.192500", "150532.682500", "150534.172500", "150535.662500", "150537.152500", "150538.642500", "150540.132500", "150541.622500", "150543.112500", "150544.602500", "150546.092500", "150547.582500", "150549.072500", "150550.562500", "150552.052500", "150553.542500", "150555.032500", "150556.522500", "150558.012500", "150559.502500", "150600.992500", "150602.482500", "150603.972500", "150605.462500", "150606.952500", "150608.442500", "150609.932500", "150611.422500", "150612.912500", "150614.402500", "150615.892500", "150617.382500", "150618.872500", "150620.362500", "150621.852500", "150623.342500", "150624.832500", "150626.322500", "150627.812500", "150629.302500", "150630.792500", "150632.282500", "150633.772500", "150635.262500", "150636.752500", "150638.242500", "150639.732500", "150641.222500", "150642.712500", "150644.202500", "150645.692500", "150647.182500", "150648.672500", "150650.162500", "150651.652500", "150653.142500", "150654.632500", "150656.122500", "150657.612500", "150659.102500", "150700.592500", "150702.082500", "150703.572500", "150705.062500", "150706.552500", "150708.042500", "150709.532500", "150711.022500", "150712.512500"],
      "ContentTime": ["150458.351000", "150458.354000", "150458.357000", "150458.360000", "150458.363000", "150458.366000", "150458.370000", "150458.373000", "150458.376000", "150458.379000", "150458.387000", "150458.390000", "150458.393000", "150458.396000", "150458.399000", "150458.402000", "150458.411000", "150458.414000", "150458.417000", "150458.423000", "150458.425000", "150458.428000", "150458.432000", "150458.435000", "150458.437000", "150458.440000", "150518.320000", "150518.323000", "150518.326000", "150518.329000", "150518.332000", "150518.335000", "150518.338000", "150518.349000", "150518.352000", "150518.355000", "150518.358000", "150518.362000", "150518.365000", "150518.368000", "150518.370000", "150518.374000", "150518.377000", "150518.380000", "150518.383000", "150518.386000", "150538.320000", "150538.323000", "150538.326000", "150538.329000", "150538.332000", "150538.335000", "150538.338000", "150538.341000", "150538.344000", "150538.347000", "150538.350000", "150538.353000", "150538.356000", "150538.368000", "150538.371000", "150538.374000", "150538.377000", "150538.380000", "150538.383000", "150538.386000", "150558.321000", "150558.324000", "150558.327000", "150558.340000", "150558.343000", "150558.347000", "150558.350000", "150558.353000", "150558.356000", "150558.359000", "150558.362000", "150558.365000", "150558.368000", "150558.371000", "150558.374000", "150558.377000", "150558.380000", "150558.383000", "150558.386000", "150558.389000", "150618.321000", "150618.324000", "150618.327000", "150618.330000", "150618.333000", "150618.336000", "150618.339000", "150618.342000", "150618.345000", "150618.348000", "150618.351000", "150618.355000", "150618.357000", "150618.361000", "150618.363000", "150618.367000", "150618.370000", "150618.373000", "150618.376000", "150618.379000", "150658.335000", "150658.338000", "150658.341000", "150658.344000", "150658.347000", "150658.350000", "150658.353000", "150658.356000", "150658.359000", "150658.362000", "150658.365000", "150658.368000", "150658.371000", "150658.374000", "150658.377000", "150658.380000", "150658.383000", "150658.386000", "150658.389000", "150658.392000", "150658.398000", "150658.401000", "150658.404000", "150658.407000", "150658.410000", "150658.413000", "150658.416000", "150714.408000", "150714.411000", "150714.414000", "150714.417000", "150714.420000", "150714.423000", "150714.426000", "150714.429000", "150714.432000", "150714.435000", "150714.438000"],
      "InstanceCreationTime": ["150458.351000", "150458.354000", "150458.357000", "150458.360000", "150458.363000", "150458.366000", "150458.370000", "150458.373000", "150458.376000", "150458.379000", "150458.387000", "150458.390000", "150458.393000", "150458.396000", "150458.399000", "150458.402000", "150458.411000", "150458.414000", "150458.417000", "150458.423000", "150458.425000", "150458.428000", "150458.432000", "150458.435000", "150458.437000", "150458.440000", "150518.320000", "150518.323000", "150518.326000", "150518.329000", "150518.332000", "150518.335000", "150518.338000", "150518.349000", "150518.352000", "150518.355000", "150518.358000", "150518.362000", "150518.365000", "150518.368000", "150518.370000", "150518.374000", "150518.377000", "150518.380000", "150518.383000", "150518.386000", "150538.320000", "150538.323000", "150538.326000", "150538.329000", "150538.332000", "150538.335000", "150538.338000", "150538.341000", "150538.344000", "150538.347000", "150538.350000", "150538.353000", "150538.356000", "150538.368000", "150538.371000", "150538.374000", "150538.377000", "150538.380000", "150538.383000", "150538.386000", "150558.321000", "150558.324000", "150558.327000", "150558.340000", "150558.343000", "150558.347000", "150558.350000", "150558.353000", "150558.356000", "150558.359000", "150558.362000", "150558.365000", "150558.368000", "150558.371000", "150558.374000", "150558.377000", "150558.380000", "150558.383000", "150558.386000", "150558.389000", "150618.321000", "150618.324000", "150618.327000", "150618.330000", "150618.333000", "150618.336000", "150618.339000", "150618.342000", "150618.345000", "150618.348000", "150618.351000", "150618.355000", "150618.357000", "150618.361000", "150618.363000", "150618.367000", "150618.370000", "150618.373000", "150618.376000", "150618.379000", "150658.335000", "150658.338000", "150658.341000", "150658.344000", "150658.347000", "150658.350000", "150658.353000", "150658.356000", "150658.359000", "150658.362000", "150658.365000", "150658.368000", "150658.371000", "150658.374000", "150658.377000", "150658.380000", "150658.383000", "150658.386000", "150658.389000", "150658.392000", "150658.398000", "150658.401000", "150658.404000", "150658.407000", "150658.410000", "150658.413000", "150658.416000", "150714.408000", "150714.411000", "150714.414000", "150714.417000", "150714.420000", "150714.423000", "150714.426000", "150714.429000", "150714.432000", "150714.435000", "150714.438000"],
      "InstanceNumber": [1, 2, 3, 4, 5, 6, 7, 8, 9, 10, 11, 12, 13, 14, 15, 16, 17, 18, 19, 20, 21, 22, 23, 24, 25, 26, 27, 28, 29, 30, 31, 32, 33, 34, 35, 36, 37, 38, 39, 40, 41, 42, 43, 44, 45, 46, 47, 48, 49, 50, 51, 52, 53, 54, 55, 56, 57, 58, 59, 60, 61, 62, 63, 64, 65, 66, 67, 68, 69, 70, 71, 72, 73, 74, 75, 76, 77, 78, 79, 80, 81, 82, 83, 84, 85, 86, 87, 88, 89, 90, 91, 92, 93, 94, 95, 96, 97, 98, 99, 100, 101, 102, 103, 104, 105, 106, 107, 108, 109, 110, 111, 112, 113, 114, 115, 116, 117, 118, 119, 120, 121, 122, 123, 124, 125, 126, 127, 128, 129, 130, 131, 132, 133, 134, 135, 136, 137, 138, 139, 140, 141, 142, 143, 144],
      "LargestImagePixelValue": [44833, 43395, 41981, 41880, 41837, 41963, 41544, 43259, 43361, 41447, 41051, 41701, 41683, 41691, 41857, 41207, 42453, 40620, 40370, 40585, 40341, 41390, 41290, 40370, 40499, 41375, 41029, 42201, 40877, 40998, 41534, 40506, 40596, 40779, 41026, 40370, 41214, 41247, 40642, 42314, 41880, 41150, 40399, 40765, 41370, 40242, 41949, 41491, 40280, 41301, 41816, 40986, 40332, 41011, 43097, 40791, 42305, 41341, 40882, 41011, 42480, 41437, 42272, 41785, 41850, 42457, 40106, 40069, 40846, 41368, 41828, 40858, 41381, 41461, 42820, 41792, 40490, 40555, 41083, 41522, 42930, 42979, 41833, 42098, 42202, 41201, 41050, 42907, 42039, 42209, 40984, 41127, 42451, 41505, 42330, 41236, 42801, 40631, 40450, 40932, 41094, 41261, 41554, 42274, 41383, 40196, 40681, 41119, 41336, 42420, 40983, 41133, 40927, 41780, 41190, 41366, 40960, 41396, 41465, 41407, 41019, 41701, 40541, 41742, 41717, 40556, 41292, 42063, 41261, 42459, 41826, 41105, 41683, 40469, 41028, 40157, 41644, 41022, 39882, 40170, 41315, 42206, 42389, 41325],
      "WindowCenter": [10271.0, 10247.0, 10205.0, 10159.0, 10146.0, 10159.0, 10151.0, 10156.0, 10179.0, 10215.0, 10198.0, 10177.0, 10158.0, 10152.0, 10147.0, 10127.0, 10150.0, 10147.0, 10127.0, 10123.0, 10122.0, 10149.0, 10177.0, 10159.0, 10141.0, 10128.0, 10128.0, 10154.0, 10160.0, 10147.0, 10135.0, 10130.0, 10154.0, 10166.0, 10187.0, 10170.0, 10163.0, 10161.0, 10171.0, 10177.0, 10168.0, 10169.0, 10159.0, 10141.0, 10136.0, 10137.0, 10165.0, 10176.0, 10150.0, 10122.0, 10114.0, 10125.0, 10147.0, 10156.0, 10166.0, 10151.0, 10178.0, 10178.0, 10147.0, 10115.0, 10142.0, 10172.0, 10204.0, 10193.0, 10162.0, 10150.0, 10143.0, 10144.0, 10137.0, 10120.0, 10136.0, 10145.0, 10153.0, 10148.0, 10151.0, 10157.0, 10148.0, 10140.0, 10138.0, 10144.0, 10161.0, 10171.0, 10183.0, 10190.0, 10183.0, 10172.0, 10166.0, 10169.0, 10157.0, 10165.0, 10163.0, 10162.0, 10162.0, 10151.0, 10176.0, 10169.0, 10188.0, 10168.0, 10136.0, 10111.0, 10125.0, 10168.0, 10176.0, 10158.0, 10145.0, 10135.0, 10116.0, 10112.0, 10123.0, 10167.0, 10181.0, 10157.0, 10130.0, 10124.0, 10111.0, 10131.0, 10144.0, 10143.0, 10128.0, 10126.0, 10135.0, 10158.0, 10174.0, 10193.0, 10193.0, 10176.0, 10157.0, 10149.0, 10151.0, 10171.0, 10160.0, 10146.0, 10135.0, 10130.0, 10147.0, 10169.0, 10175.0, 10124.0, 10099.0, 10111.0, 10102.0, 10089.0, 10085.0, 10092.0],
      "WindowWidth": [22192.0, 22102.0, 21997.0, 21880.0, 21839.0, 21865.0, 21845.0, 21839.0, 21893.0, 21983.0, 21951.0, 21897.0, 21854.0, 21839.0, 21824.0, 21783.0, 21830.0, 21836.0, 21797.0, 21780.0, 21780.0, 21835.0, 21900.0, 21866.0, 21825.0, 21789.0, 21791.0, 21844.0, 21863.0, 21835.0, 21807.0, 21795.0, 21850.0, 21879.0, 21925.0, 21893.0, 21868.0, 21863.0, 21886.0, 21891.0, 21873.0, 21880.0, 21864.0, 21825.0, 21810.0, 21814.0, 21870.0, 21896.0, 21845.0, 21777.0, 21757.0, 21784.0, 21838.0, 21856.0, 21865.0, 21840.0, 21896.0, 21902.0, 21834.0, 21763.0, 21812.0, 21886.0, 21956.0, 21933.0, 21865.0, 21837.0, 21832.0, 21833.0, 21811.0, 21773.0, 21802.0, 21827.0, 21846.0, 21829.0, 21833.0, 21849.0, 21837.0, 21819.0, 21814.0, 21824.0, 21856.0, 21880.0, 21912.0, 21925.0, 21907.0, 21888.0, 21878.0, 21873.0, 21853.0, 21869.0, 21869.0, 21868.0, 21859.0, 21836.0, 21887.0, 21880.0, 21917.0, 21883.0, 21812.0, 21752.0, 21780.0, 21875.0, 21893.0, 21851.0, 21825.0, 21811.0, 21767.0, 21753.0, 21774.0, 21867.0, 21908.0, 21854.0, 21790.0, 21775.0, 21751.0, 21790.0, 21823.0, 21820.0, 21788.0, 21783.0, 21804.0, 21853.0, 21893.0, 21934.0, 21932.0, 21902.0, 21856.0, 21832.0, 21839.0, 21879.0, 21855.0, 21827.0, 21800.0, 21794.0, 21824.0, 21879.0, 21895.0, 21782.0, 21724.0, 21747.0, 21726.0, 21693.0, 21681.0, 21701.0]
    },
    "slices": {}
  }
}