{
  "AcquisitionMatrixPE": 104,
  "AcquisitionNumber": 1,
  "AcquisitionTime": "15:37:25.687500",
  "BandwidthPerPixelPhaseEncode": 17.17,
  "BaseResolution": 104,
  "BodyPartExamined": "BRAIN",
  "CoilString": "HC1-7;NC1_2",
  "ConsistencyInfo": "N4_VE11C_LATEST_20160120",
  "ConversionSoftware": "dcm2niix",
  "ConversionSoftwareVersion": "v1.0.20190720  (JP2:OpenJPEG) GCC7.3.0",
  "DerivedVendorReportedEchoSpacing": 0.000560011,
  "DeviceSerialNumber": "167006",
  "DwellTime": 2.1e-06,
  "EchoTime": 0.037,
  "EchoTrainLength": 104,
  "EffectiveEchoSpacing": 0.000560011,
  "FlipAngle": 52,
  "ImageComments": "Unaliased_MB4_PE3_LB",
  "ImageOrientationPatientDICOM": [0.997306, 0.0685924, 0.0259994, -0.0578536, 0.953403, -0.296102],
  "ImageType": [
    "ORIGINAL",
    "PRIMARY",
    "M",
    "MB",
    "ND",
    "MOSAIC"
],
  "ImagingFrequency": 123.259,
  "InPlanePhaseEncodingDirectionDICOM": "COL",
  "InstitutionAddress": "Chemin_Queen-Mary_4565_Montreal_District_CA_H3W_1W5",
  "InstitutionName": "IUGM",
  "InstitutionalDepartmentName": "Department",
  "MRAcquisitionType": "2D",
  "MagneticFieldStrength": 3,
  "Manufacturer": "Siemens",
  "ManufacturersModelName": "Prisma_fit",
  "Modality": "MR",
  "MultibandAccelerationFactor": 4,
  "PartialFourier": 1,
  "PatientPosition": "HFS",
  "PercentPhaseFOV": 100,
  "PhaseEncodingDirection": "j",
  "PhaseEncodingSteps": 104,
  "PhaseResolution": 1,
  "PixelBandwidth": 2290,
  "ProcedureStepDescription": "hcptrt_generic",
  "ProtocolName": "func_task-relational_run-1",
  "PulseSequenceDetails": "%CustomerSeq%_cmrr_mbep2d_bold",
  "ReceiveCoilActiveElements": "HC1-7;NC1,2",
  "ReceiveCoilName": "HeadNeck_64",
  "ReconMatrixPE": 104,
  "RepetitionTime": 1.49,
  "SAR": 0.0384891,
  "ScanOptions": "FS",
  "ScanningSequence": "EP",
  "SequenceName": "epfid2d1_104",
  "SequenceVariant": "SK_SS",
  "SeriesDescription": "func_task-relational_run-1",
  "SeriesNumber": 7,
  "ShimSetting": [632, -7200, -8814, 740, 87, -20, 0, -16],
  "SliceThickness": 2,
  "SliceTiming": [0, 0.7825, 0.0975, 0.8825, 0.195, 0.98, 0.2925, 1.0775, 0.3925, 1.175, 0.49, 1.2725, 0.5875, 1.3725, 0.685, 0, 0.7825, 0.0975, 0.8825, 0.195, 0.98, 0.2925, 1.0775, 0.3925, 1.175, 0.49, 1.2725, 0.5875, 1.3725, 0.685, 0, 0.7825, 0.0975, 0.8825, 0.195, 0.98, 0.2925, 1.0775, 0.3925, 1.175, 0.49, 1.2725, 0.5875, 1.3725, 0.685, 0, 0.7825, 0.0975, 0.8825, 0.195, 0.98, 0.2925, 1.0775, 0.3925, 1.175, 0.49, 1.2725, 0.5875, 1.3725, 0.685],
  "SoftwareVersions": "syngo_MR_E11",
  "SpacingBetweenSlices": 2,
  "StationName": "MRC35049",
  "TaskName": "relational",
  "TotalReadoutTime": 0.0576811,
  "TxRefAmp": 250.247,
  "WipMemBlock": "abae23e8-4d25-457c-946b-de3e159a622d||Sequence: R016 ve11c/master r/e634e98; Dec 19 2017 11:00:25 by eja",
  "dcmmeta_affine": [
    [-1.9946118593215942, -0.1157071441411972, 0.09019646048545837, 107.48059844970703],
    [-0.13718479871749878, 1.906805396080017, -0.5875996351242065, -62.41413497924805],
    [0.0519988089799881, 0.5922034382820129, 1.9096050262451172, -62.254295349121094],
    [0.0, 0.0, 0.0, 1.0]
],
  "dcmmeta_reorient_transform": [
    [0.0, -1.0, 0.0, 103.0],
    [1.0, 0.0, 0.0, 0.0],
    [0.0, 0.0, 1.0, 0.0],
    [0.0, 0.0, 0.0, 1.0]
],
  "dcmmeta_shape": [104, 104, 60, 119],
  "dcmmeta_slice_dim": 2,
  "dcmmeta_version": 0.6,
  "global": {
    "const": {
      "AcquisitionMatrix": [104, 0, 0, 104],
      "AngioFlag": "N",
      "BitsAllocated": 16,
      "BitsStored": 16,
      "BodyPartExamined": "BRAIN",
      "Columns": 832,
      "EchoNumbers": 1,
      "EchoTime": 37.0,
      "EchoTrainLength": 104,
      "FlipAngle": 52.0,
      "HighBit": 15,
      "ImageOrientationPatient": [0.99730592797451, 0.06859239765282, 0.02599940405347, -0.0578535722545, 0.95340271901818, -0.2961017047336],
      "ImagePositionPatient": [-779.4840754208, -877.99927026119, 195.3771298519],
      "ImageType": [
        "ORIGINAL",
        "PRIMARY",
        "M",
        "MB",
        "ND",
        "MOSAIC"
],
      "ImagedNucleus": "1H",
      "ImagingFrequency": 123.259424,
      "InPlanePhaseEncodingDirection": "COL",
      "MRAcquisitionType": "2D",
      "MagneticFieldStrength": 3.0,
      "Manufacturer": "SIEMENS",
      "ManufacturerModelName": "Prisma_fit",
      "Modality": "MR",
      "NumberOfAverages": 1.0,
      "NumberOfPhaseEncodingSteps": 104,
      "PercentPhaseFieldOfView": 100.0,
      "PercentSampling": 100.0,
      "PerformedProcedureStepStartTime": "151932.804000",
      "PhotometricInterpretation": "MONOCHROME2",
      "PixelBandwidth": 2290.0,
      "PixelRepresentation": 0,
      "PixelSpacing": [2.0, 2.0],
      "ProtocolName": "func_task-relational_run-1",
      "RepetitionTime": 1490.0,
      "Rows": 832,
      "SAR": 0.03848909605032,
      "SamplesPerPixel": 1,
      "ScanOptions": "FS",
      "ScanningSequence": "EP",
      "SequenceName": "epfid2d1_104",
      "SequenceVariant": [
        "SK",
        "SS"
],
      "SeriesDescription": "func_task-relational_run-1",
      "SeriesNumber": 7,
      "SeriesTime": "153846.015000",
      "SliceLocation": -36.256111094345,
      "SliceThickness": 2.0,
      "SmallestImagePixelValue": 0,
      "SoftwareVersions": "syngo MR E11",
      "SpacingBetweenSlices": 2.0000000007972,
      "SpecificCharacterSet": "ISO_IR 100",
      "StudyID": "1",
      "StudyTime": "151932.711000",
      "TransmitCoilName": "Body",
      "VariableFlipAngleFlag": "N",
      "WindowCenterWidthExplanation": "Algo1",
      "dBdt": 0.0},
    "slices": {}
  },
  "time": {
    "samples": {
      "AcquisitionNumber": [1, 2, 3, 4, 5, 6, 7, 8, 9, 10, 11, 12, 13, 14, 15, 16, 17, 18, 19, 20, 21, 22, 23, 24, 25, 26, 27, 28, 29, 30, 31, 32, 33, 34, 35, 36, 37, 38, 39, 40, 41, 42, 43, 44, 45, 46, 47, 48, 49, 50, 51, 52, 53, 54, 55, 56, 57, 58, 59, 60, 61, 62, 63, 64, 65, 66, 67, 68, 69, 70, 71, 72, 73, 74, 75, 76, 77, 78, 79, 80, 81, 82, 83, 84, 85, 86, 87, 88, 89, 90, 91, 92, 93, 94, 95, 96, 97, 98, 99, 100, 101, 102, 103, 104, 105, 106, 107, 108, 109, 110, 111, 112, 113, 114, 115, 116, 117, 118, 119],
      "AcquisitionTime": ["153725.687500", "153727.177500", "153728.667500", "153730.157500", "153731.647500", "153733.137500", "153734.627500", "153736.117500", "153737.607500", "153739.097500", "153740.587500", "153742.077500", "153743.567500", "153745.057500", "153746.547500", "153748.037500", "153749.527500", "153751.017500", "153752.507500", "153753.997500", "153755.487500", "153756.977500", "153758.467500", "153759.957500", "153801.447500", "153802.937500", "153804.427500", "153805.917500", "153807.407500", "153808.897500", "153810.387500", "153811.877500", "153813.367500", "153814.857500", "153816.347500", "153817.837500", "153819.327500", "153820.817500", "153822.307500", "153823.797500", "153825.287500", "153826.777500", "153828.267500", "153829.757500", "153831.247500", "153832.737500", "153834.227500", "153835.717500", "153837.207500", "153838.697500", "153840.187500", "153841.677500", "153843.167500", "153844.657500", "153846.147500", "153847.637500", "153849.127500", "153850.617500", "153852.107500", "153853.597500", "153855.087500", "153856.577500", "153858.067500", "153859.557500", "153901.047500", "153902.537500", "153904.027500", "153905.517500", "153907.007500", "153908.497500", "153909.987500", "153911.477500", "153912.967500", "153914.457500", "153915.947500", "153917.437500", "153918.927500", "153920.417500", "153921.907500", "153923.397500", "153924.887500", "153926.377500", "153927.867500", "153929.357500", "153930.847500", "153932.337500", "153933.827500", "153935.317500", "153936.807500", "153938.297500", "153939.787500", "153941.277500", "153942.767500", "153944.257500", "153945.747500", "153947.237500", "153948.727500", "153950.217500", "153951.707500", "153953.197500", "153954.687500", "153956.177500", "153957.667500", "153959.157500", "154000.647500", "154002.137500", "154003.627500", "154005.117500", "154006.607500", "154008.097500", "154009.587500", "154011.077500", "154012.567500", "154014.057500", "154015.547500", "154017.037500", "154018.527500", "154020.017500", "154021.507500"],
      "ContentTime": ["153846.017000", "153846.021000", "153846.024000", "153846.027000", "153846.030000", "153846.033000", "153846.036000", "153846.039000", "153846.042000", "153846.045000", "153846.048000", "153846.051000", "153846.054000", "153846.057000", "153846.060000", "153846.062000", "153846.065000", "153846.068000", "153846.072000", "153846.078000", "153846.081000", "153846.084000", "153846.087000", "153846.090000", "153846.093000", "153846.096000", "153905.975000", "153905.978000", "153905.981000", "153905.984000", "153905.987000", "153905.990000", "153905.993000", "153905.996000", "153905.999000", "153906.002000", "153906.005000", "153906.007000", "153906.010000", "153906.013000", "153906.016000", "153906.019000", "153906.022000", "153906.025000", "153906.028000", "153906.031000", "153925.975000", "153925.978000", "153925.981000", "153925.984000", "153925.987000", "153925.990000", "153925.993000", "153925.996000", "153925.999000", "153926.002000", "153926.005000", "153926.008000", "153926.011000", "153926.014000", "153926.017000", "153926.020000", "153926.023000", "153926.026000", "153926.030000", "153926.033000", "153945.975000", "153945.978000", "153945.981000", "153945.984000", "153945.987000", "153945.990000", "153945.993000", "153945.996000", "153946.000000", "153946.003000", "153946.006000", "153946.009000", "153946.012000", "153946.015000", "153946.017000", "153946.020000", "153946.023000", "153946.026000", "153946.029000", "153946.032000", "153946.035000", "154005.974000", "154005.977000", "154005.980000", "154005.983000", "154005.986000", "154005.989000", "154005.992000", "154005.995000", "154005.998000", "154006.001000", "154006.003000", "154006.006000", "154006.009000", "154006.012000", "154006.015000", "154006.018000", "154006.021000", "154006.024000", "154006.027000", "154006.035000", "154023.562000", "154023.566000", "154023.569000", "154023.572000", "154023.576000", "154023.579000", "154023.583000", "154023.586000", "154023.590000", "154023.594000", "154023.597000", "154023.601000"],
      "InstanceCreationTime": ["153846.017000", "153846.021000", "153846.024000", "153846.027000", "153846.030000", "153846.033000", "153846.036000", "153846.039000", "153846.042000", "153846.045000", "153846.048000", "153846.051000", "153846.054000", "153846.057000", "153846.060000", "153846.062000", "153846.065000", "153846.068000", "153846.072000", "153846.078000", "153846.081000", "153846.084000", "153846.087000", "153846.090000", "153846.093000", "153846.096000", "153905.975000", "153905.978000", "153905.981000", "153905.984000", "153905.987000", "153905.990000", "153905.993000", "153905.996000", "153905.999000", "153906.002000", "153906.005000", "153906.007000", "153906.010000", "153906.013000", "153906.016000", "153906.019000", "153906.022000", "153906.025000", "153906.028000", "153906.031000", "153925.975000", "153925.978000", "153925.981000", "153925.984000", "153925.987000", "153925.990000", "153925.993000", "153925.996000", "153925.999000", "153926.002000", "153926.005000", "153926.008000", "153926.011000", "153926.014000", "153926.017000", "153926.020000", "153926.023000", "153926.026000", "153926.030000", "153926.033000", "153945.975000", "153945.978000", "153945.981000", "153945.984000", "153945.987000", "153945.990000", "153945.993000", "153945.996000", "153946.000000", "153946.003000", "153946.006000", "153946.009000", "153946.012000", "153946.015000", "153946.017000", "153946.020000", "153946.023000", "153946.026000", "153946.029000", "153946.032000", "153946.035000", "154005.974000", "154005.977000", "154005.980000", "154005.983000", "154005.986000", "154005.989000", "154005.992000", "154005.995000", "154005.998000", "154006.001000", "154006.003000", "154006.006000", "154006.009000", "154006.012000", "154006.015000", "154006.018000", "154006.021000", "154006.024000", "154006.027000", "154006.035000", "154023.562000", "154023.566000", "154023.569000", "154023.572000", "154023.576000", "154023.579000", "154023.583000", "154023.586000", "154023.590000", "154023.594000", "154023.597000", "154023.601000"],
      "InstanceNumber": [1, 2, 3, 4, 5, 6, 7, 8, 9, 10, 11, 12, 13, 14, 15, 16, 17, 18, 19, 20, 21, 22, 23, 24, 25, 26, 27, 28, 29, 30, 31, 32, 33, 34, 35, 36, 37, 38, 39, 40, 41, 42, 43, 44, 45, 46, 47, 48, 49, 50, 51, 52, 53, 54, 55, 56, 57, 58, 59, 60, 61, 62, 63, 64, 65, 66, 67, 68, 69, 70, 71, 72, 73, 74, 75, 76, 77, 78, 79, 80, 81, 82, 83, 84, 85, 86, 87, 88, 89, 90, 91, 92, 93, 94, 95, 96, 97, 98, 99, 100, 101, 102, 103, 104, 105, 106, 107, 108, 109, 110, 111, 112, 113, 114, 115, 116, 117, 118, 119],
      "LargestImagePixelValue": [44398, 43280, 42758, 42633, 41991, 42329, 41956, 42020, 42552, 42106, 42055, 42060, 42048, 41895, 44032, 42569, 42468, 42546, 42168, 42588, 42194, 41590, 42592, 42686, 42267, 41921, 42076, 41961, 41856, 42453, 42258, 42698, 42566, 41956, 41904, 41646, 41780, 42031, 41966, 42081, 41892, 41791, 41304, 41324, 41919, 42120, 42209, 41846, 41995, 41544, 41620, 42269, 42829, 42394, 42110, 42424, 42310, 42629, 42571, 42494, 42159, 42067, 41970, 42332, 42623, 41995, 42066, 41987, 42126, 42076, 42003, 42446, 42385, 42456, 42414, 42567, 42420, 41866, 42003, 42206, 41761, 42160, 42206, 42213, 42392, 42629, 42372, 41991, 42074, 42354, 42653, 42452, 41997, 42447, 42530, 42332, 42529, 42013, 42138, 42250, 42132, 41779, 42220, 42251, 42475, 42718, 42577, 42891, 42409, 42595, 41940, 42573, 42590, 42345, 42169, 41976, 42348, 41741, 42150],
      "WindowCenter": [10290.0, 10247.0, 10225.0, 10223.0, 10207.0, 10211.0, 10219.0, 10220.0, 10243.0, 10237.0, 10237.0, 10249.0, 10248.0, 10257.0, 10287.0, 10264.0, 10264.0, 10245.0, 10232.0, 10222.0, 10219.0, 10224.0, 10245.0, 10244.0, 10237.0, 10223.0, 10222.0, 10229.0, 10239.0, 10238.0, 10231.0, 10247.0, 10241.0, 10223.0, 10222.0, 10205.0, 10201.0, 10213.0, 10211.0, 10203.0, 10203.0, 10200.0, 10197.0, 10222.0, 10221.0, 10220.0, 10228.0, 10219.0, 10226.0, 10232.0, 10234.0, 10238.0, 10222.0, 10213.0, 10211.0, 10217.0, 10229.0, 10228.0, 10219.0, 10209.0, 10209.0, 10221.0, 10230.0, 10249.0, 10237.0, 10225.0, 10209.0, 10206.0, 10205.0, 10204.0, 10207.0, 10213.0, 10205.0, 10203.0, 10193.0, 10206.0, 10203.0, 10191.0, 10195.0, 10186.0, 10203.0, 10220.0, 10224.0, 10226.0, 10216.0, 10221.0, 10223.0, 10224.0, 10233.0, 10224.0, 10227.0, 10219.0, 10213.0, 10220.0, 10212.0, 10212.0, 10221.0, 10209.0, 10220.0, 10206.0, 10213.0, 10214.0, 10215.0, 10215.0, 10205.0, 10194.0, 10177.0, 10184.0, 10201.0, 10203.0, 10199.0, 10203.0, 10210.0, 10217.0, 10224.0, 10217.0, 10214.0, 10202.0, 10213.0],
      "WindowWidth": [21796.0, 21685.0, 21623.0, 21628.0, 21584.0, 21587.0, 21602.0, 21604.0, 21653.0, 21641.0, 21640.0, 21671.0, 21665.0, 21689.0, 21770.0, 21704.0, 21704.0, 21657.0, 21633.0, 21609.0, 21598.0, 21617.0, 21661.0, 21654.0, 21642.0, 21611.0, 21610.0, 21626.0, 21649.0, 21651.0, 21630.0, 21665.0, 21658.0, 21613.0, 21609.0, 21570.0, 21560.0, 21590.0, 21585.0, 21564.0, 21565.0, 21553.0, 21551.0, 21609.0, 21605.0, 21602.0, 21620.0, 21600.0, 21617.0, 21633.0, 21642.0, 21644.0, 21613.0, 21590.0, 21583.0, 21593.0, 21623.0, 21622.0, 21597.0, 21574.0, 21573.0, 21606.0, 21628.0, 21680.0, 21639.0, 21618.0, 21582.0, 21575.0, 21574.0, 21571.0, 21583.0, 21589.0, 21573.0, 21564.0, 21542.0, 21582.0, 21563.0, 21540.0, 21542.0, 21523.0, 21562.0, 21599.0, 21610.0, 21619.0, 21593.0, 21607.0, 21611.0, 21614.0, 21635.0, 21609.0, 21614.0, 21596.0, 21584.0, 21597.0, 21583.0, 21583.0, 21604.0, 21582.0, 21599.0, 21571.0, 21587.0, 21587.0, 21594.0, 21591.0, 21572.0, 21546.0, 21504.0, 21520.0, 21562.0, 21565.0, 21558.0, 21563.0, 21578.0, 21612.0, 21624.0, 21606.0, 21594.0, 21575.0, 21592.0]
    },
    "slices": {}
  }
}