{
  "AcquisitionMatrixPE": 104,
  "AcquisitionNumber": 1,
  "AcquisitionTime": "16:43:7.947500",
  "BandwidthPerPixelPhaseEncode": 17.17,
  "BaseResolution": 104,
  "BodyPartExamined": "BRAIN",
  "CoilString": "HC1-7;NC1_2",
  "ConsistencyInfo": "N4_VE11C_LATEST_20160120",
  "ConversionSoftware": "dcm2niix",
  "ConversionSoftwareVersion": "v1.0.20190720  (JP2:OpenJPEG) GCC7.3.0",
  "DerivedVendorReportedEchoSpacing": 0.000560011,
  "DeviceSerialNumber": "167006",
  "DwellTime": 2.1e-06,
  "EchoTime": 0.037,
  "EchoTrainLength": 104,
  "EffectiveEchoSpacing": 0.000560011,
  "FlipAngle": 52,
  "ImageComments": "Unaliased_MB4_PE3_LB",
  "ImageOrientationPatientDICOM": [0.997306, 0.0685924, 0.0259994, -0.0578536, 0.953403, -0.296102],
  "ImageType": [
    "ORIGINAL",
    "PRIMARY",
    "M",
    "MB",
    "ND",
    "MOSAIC"
],
  "ImagingFrequency": 123.259,
  "InPlanePhaseEncodingDirectionDICOM": "COL",
  "InstitutionAddress": "Chemin_Queen-Mary_4565_Montreal_District_CA_H3W_1W5",
  "InstitutionName": "IUGM",
  "InstitutionalDepartmentName": "Department",
  "MRAcquisitionType": "2D",
  "MagneticFieldStrength": 3,
  "Manufacturer": "Siemens",
  "ManufacturersModelName": "Prisma_fit",
  "Modality": "MR",
  "MultibandAccelerationFactor": 4,
  "PartialFourier": 1,
  "PatientPosition": "HFS",
  "PercentPhaseFOV": 100,
  "PhaseEncodingDirection": "j",
  "PhaseEncodingSteps": 104,
  "PhaseResolution": 1,
  "PixelBandwidth": 2290,
  "ProcedureStepDescription": "hcptrt_generic",
  "ProtocolName": "func_task-motor_run-2",
  "PulseSequenceDetails": "%CustomerSeq%_cmrr_mbep2d_bold",
  "ReceiveCoilActiveElements": "HC1-7;NC1,2",
  "ReceiveCoilName": "HeadNeck_64",
  "ReconMatrixPE": 104,
  "RepetitionTime": 1.49,
  "SAR": 0.0391272,
  "ScanOptions": "FS",
  "ScanningSequence": "EP",
  "SequenceName": "epfid2d1_104",
  "SequenceVariant": "SK_SS",
  "SeriesDescription": "func_task-motor_run-2",
  "SeriesNumber": 33,
  "ShimSetting": [619, -7208, -8824, 713, 42, -54, -51, -21],
  "SliceThickness": 2,
  "SliceTiming": [0, 0.7825, 0.0975, 0.88, 0.195, 0.98, 0.2925, 1.0775, 0.3925, 1.175, 0.49, 1.2725, 0.5875, 1.37, 0.685, 0, 0.7825, 0.0975, 0.88, 0.195, 0.98, 0.2925, 1.0775, 0.3925, 1.175, 0.49, 1.2725, 0.5875, 1.37, 0.685, 0, 0.7825, 0.0975, 0.88, 0.195, 0.98, 0.2925, 1.0775, 0.3925, 1.175, 0.49, 1.2725, 0.5875, 1.37, 0.685, 0, 0.7825, 0.0975, 0.88, 0.195, 0.98, 0.2925, 1.0775, 0.3925, 1.175, 0.49, 1.2725, 0.5875, 1.37, 0.685],
  "SoftwareVersions": "syngo_MR_E11",
  "SpacingBetweenSlices": 2,
  "StationName": "MRC35049",
  "TaskName": "motor",
  "TotalReadoutTime": 0.0576811,
  "TxRefAmp": 251.639,
  "WipMemBlock": "665204c4-db7f-4628-b3ec-e0c5c33c8c54||Sequence: R016 ve11c/master r/e634e98; Dec 19 2017 11:00:25 by eja",
  "dcmmeta_affine": [
    [-1.9946118593215942, -0.1157071441411972, 0.09019646048545837, 107.48059844970703],
    [-0.13718479871749878, 1.906805396080017, -0.5875996351242065, -62.41413497924805],
    [0.0519988089799881, 0.5922034382820129, 1.9096050262451172, -62.254295349121094],
    [0.0, 0.0, 0.0, 1.0]
],
  "dcmmeta_reorient_transform": [
    [0.0, -1.0, 0.0, 103.0],
    [1.0, 0.0, 0.0, 0.0],
    [0.0, 0.0, 1.0, 0.0],
    [0.0, 0.0, 0.0, 1.0]
],
  "dcmmeta_shape": [104, 104, 60, 144],
  "dcmmeta_slice_dim": 2,
  "dcmmeta_version": 0.6,
  "global": {
    "const": {
      "AcquisitionMatrix": [104, 0, 0, 104],
      "AngioFlag": "N",
      "BitsAllocated": 16,
      "BitsStored": 16,
      "BodyPartExamined": "BRAIN",
      "Columns": 832,
      "EchoNumbers": 1,
      "EchoTime": 37.0,
      "EchoTrainLength": 104,
      "FlipAngle": 52.0,
      "HighBit": 15,
      "ImageOrientationPatient": [0.99730592797451, 0.06859239765282, 0.02599940405347, -0.0578535722545, 0.95340271901818, -0.2961017047336],
      "ImagePositionPatient": [-779.4840754208, -877.99927026119, 195.3771298519],
      "ImageType": [
        "ORIGINAL",
        "PRIMARY",
        "M",
        "MB",
        "ND",
        "MOSAIC"
],
      "ImagedNucleus": "1H",
      "ImagingFrequency": 123.259439,
      "InPlanePhaseEncodingDirection": "COL",
      "MRAcquisitionType": "2D",
      "MagneticFieldStrength": 3.0,
      "Manufacturer": "SIEMENS",
      "ManufacturerModelName": "Prisma_fit",
      "Modality": "MR",
      "NumberOfAverages": 1.0,
      "NumberOfPhaseEncodingSteps": 104,
      "PercentPhaseFieldOfView": 100.0,
      "PercentSampling": 100.0,
      "PerformedProcedureStepStartTime": "151932.804000",
      "PhotometricInterpretation": "MONOCHROME2",
      "PixelBandwidth": 2290.0,
      "PixelRepresentation": 0,
      "PixelSpacing": [2.0, 2.0],
      "ProtocolName": "func_task-motor_run-2",
      "RepetitionTime": 1490.0,
      "Rows": 832,
      "SAR": 0.0391272450092,
      "SamplesPerPixel": 1,
      "ScanOptions": "FS",
      "ScanningSequence": "EP",
      "SequenceName": "epfid2d1_104",
      "SequenceVariant": [
        "SK",
        "SS"
],
      "SeriesDescription": "func_task-motor_run-2",
      "SeriesNumber": 33,
      "SeriesTime": "164406.005000",
      "SliceLocation": -36.256111094345,
      "SliceThickness": 2.0,
      "SmallestImagePixelValue": 0,
      "SoftwareVersions": "syngo MR E11",
      "SpacingBetweenSlices": 2.0000000007972,
      "SpecificCharacterSet": "ISO_IR 100",
      "StudyID": "1",
      "StudyTime": "151932.711000",
      "TransmitCoilName": "Body",
      "VariableFlipAngleFlag": "N",
      "WindowCenterWidthExplanation": "Algo1",
      "dBdt": 0.0},
    "slices": {}
  },
  "time": {
    "samples": {
      "AcquisitionNumber": [1, 2, 3, 4, 5, 6, 7, 8, 9, 10, 11, 12, 13, 14, 15, 16, 17, 18, 19, 20, 21, 22, 23, 24, 25, 26, 27, 28, 29, 30, 31, 32, 33, 34, 35, 36, 37, 38, 39, 40, 41, 42, 43, 44, 45, 46, 47, 48, 49, 50, 51, 52, 53, 54, 55, 56, 57, 58, 59, 60, 61, 62, 63, 64, 65, 66, 67, 68, 69, 70, 71, 72, 73, 74, 75, 76, 77, 78, 79, 80, 81, 82, 83, 84, 85, 86, 87, 88, 89, 90, 91, 92, 93, 94, 95, 96, 97, 98, 99, 100, 101, 102, 103, 104, 105, 106, 107, 108, 109, 110, 111, 112, 113, 114, 115, 116, 117, 118, 119, 120, 121, 122, 123, 124, 125, 126, 127, 128, 129, 130, 131, 132, 133, 134, 135, 136, 137, 138, 139, 140, 141, 142, 143, 144],
      "AcquisitionTime": ["164307.947500", "164309.437500", "164310.927500", "164312.417500", "164313.907500", "164315.397500", "164316.887500", "164318.377500", "164319.867500", "164321.357500", "164322.847500", "164324.337500", "164325.827500", "164327.317500", "164328.807500", "164330.297500", "164331.787500", "164333.277500", "164334.767500", "164336.257500", "164337.747500", "164339.237500", "164340.727500", "164342.217500", "164343.707500", "164345.197500", "164346.687500", "164348.177500", "164349.667500", "164351.157500", "164352.647500", "164354.137500", "164355.627500", "164357.117500", "164358.607500", "164400.097500", "164401.587500", "164403.077500", "164404.567500", "164406.057500", "164407.547500", "164409.037500", "164410.527500", "164412.017500", "164413.507500", "164414.997500", "164416.487500", "164417.977500", "164419.467500", "164420.957500", "164422.447500", "164423.937500", "164425.427500", "164426.917500", "164428.407500", "164429.897500", "164431.387500", "164432.877500", "164434.367500", "164435.857500", "164437.347500", "164438.837500", "164440.327500", "164441.817500", "164443.307500", "164444.797500", "164446.287500", "164447.777500", "164449.267500", "164450.757500", "164452.247500", "164453.737500", "164455.227500", "164456.717500", "164458.207500", "164459.697500", "164501.187500", "164502.677500", "164504.167500", "164505.657500", "164507.147500", "164508.637500", "164510.127500", "164511.617500", "164513.107500", "164514.597500", "164516.087500", "164517.577500", "164519.067500", "164520.557500", "164522.047500", "164523.537500", "164525.027500", "164526.517500", "164528.007500", "164529.497500", "164530.987500", "164532.477500", "164533.967500", "164535.457500", "164536.947500", "164538.437500", "164539.927500", "164541.417500", "164542.907500", "164544.397500", "164545.887500", "164547.377500", "164548.867500", "164550.357500", "164551.847500", "164553.337500", "164554.827500", "164556.317500", "164557.807500", "164559.297500", "164600.787500", "164602.277500", "164603.767500", "164605.257500", "164606.747500", "164608.237500", "164609.727500", "164611.217500", "164612.707500", "164614.197500", "164615.687500", "164617.177500", "164618.667500", "164620.157500", "164621.647500", "164623.137500", "164624.627500", "164626.117500", "164627.607500", "164629.097500", "164630.587500", "164632.077500", "164633.567500", "164635.057500", "164636.547500", "164638.037500", "164639.527500", "164641.017500"],
      "ContentTime": ["164406.007000", "164406.011000", "164406.014000", "164425.975000", "164425.978000", "164425.981000", "164425.984000", "164425.987000", "164425.990000", "164425.993000", "164425.995000", "164426.000000", "164426.003000", "164426.006000", "164426.009000", "164426.012000", "164426.015000", "164426.018000", "164426.021000", "164426.029000", "164426.032000", "164426.035000", "164426.038000", "164445.975000", "164445.978000", "164445.982000", "164445.985000", "164445.988000", "164445.991000", "164445.994000", "164445.997000", "164446.001000", "164446.004000", "164446.013000", "164446.015000", "164446.018000", "164446.021000", "164446.024000", "164446.027000", "164446.030000", "164446.033000", "164446.036000", "164446.039000", "164505.974000", "164505.977000", "164505.980000", "164505.983000", "164505.986000", "164505.989000", "164505.992000", "164505.995000", "164505.998000", "164506.001000", "164506.005000", "164506.008000", "164506.011000", "164506.014000", "164506.018000", "164506.021000", "164506.024000", "164506.027000", "164506.030000", "164506.033000", "164506.037000", "164525.974000", "164525.977000", "164525.980000", "164525.983000", "164525.986000", "164525.989000", "164525.992000", "164525.995000", "164525.997000", "164526.000000", "164526.003000", "164526.006000", "164526.009000", "164526.012000", "164526.015000", "164526.018000", "164526.021000", "164526.024000", "164526.027000", "164526.030000", "164545.974000", "164545.977000", "164545.980000", "164545.983000", "164545.986000", "164545.989000", "164545.992000", "164545.995000", "164545.997000", "164546.001000", "164546.004000", "164546.007000", "164546.010000", "164546.013000", "164546.016000", "164546.019000", "164546.022000", "164546.025000", "164546.028000", "164546.031000", "164625.975000", "164625.978000", "164625.981000", "164625.984000", "164625.987000", "164625.990000", "164625.993000", "164625.996000", "164625.999000", "164626.002000", "164626.005000", "164626.008000", "164626.010000", "164626.013000", "164626.016000", "164626.019000", "164626.022000", "164626.025000", "164626.028000", "164626.031000", "164626.034000", "164626.037000", "164626.040000", "164626.043000", "164626.046000", "164626.049000", "164626.052000", "164626.054000", "164643.273000", "164643.294000", "164643.297000", "164643.300000", "164643.303000", "164643.306000", "164643.309000", "164643.312000", "164643.315000", "164643.318000", "164643.321000", "164643.324000"],
      "InstanceCreationTime": ["164406.007000", "164406.011000", "164406.014000", "164425.975000", "164425.978000", "164425.981000", "164425.984000", "164425.987000", "164425.990000", "164425.993000", "164425.995000", "164426.000000", "164426.003000", "164426.006000", "164426.009000", "164426.012000", "164426.015000", "164426.018000", "164426.021000", "164426.029000", "164426.032000", "164426.035000", "164426.038000", "164445.975000", "164445.978000", "164445.982000", "164445.985000", "164445.988000", "164445.991000", "164445.994000", "164445.997000", "164446.001000", "164446.004000", "164446.013000", "164446.015000", "164446.018000", "164446.021000", "164446.024000", "164446.027000", "164446.030000", "164446.033000", "164446.036000", "164446.039000", "164505.974000", "164505.977000", "164505.980000", "164505.983000", "164505.986000", "164505.989000", "164505.992000", "164505.995000", "164505.998000", "164506.001000", "164506.005000", "164506.008000", "164506.011000", "164506.014000", "164506.018000", "164506.021000", "164506.024000", "164506.027000", "164506.030000", "164506.033000", "164506.037000", "164525.974000", "164525.977000", "164525.980000", "164525.983000", "164525.986000", "164525.989000", "164525.992000", "164525.995000", "164525.997000", "164526.000000", "164526.003000", "164526.006000", "164526.009000", "164526.012000", "164526.015000", "164526.018000", "164526.021000", "164526.024000", "164526.027000", "164526.030000", "164545.974000", "164545.977000", "164545.980000", "164545.983000", "164545.986000", "164545.989000", "164545.992000", "164545.995000", "164545.997000", "164546.001000", "164546.004000", "164546.007000", "164546.010000", "164546.013000", "164546.016000", "164546.019000", "164546.022000", "164546.025000", "164546.028000", "164546.031000", "164625.975000", "164625.978000", "164625.981000", "164625.984000", "164625.987000", "164625.990000", "164625.993000", "164625.996000", "164625.999000", "164626.002000", "164626.005000", "164626.008000", "164626.010000", "164626.013000", "164626.016000", "164626.019000", "164626.022000", "164626.025000", "164626.028000", "164626.031000", "164626.034000", "164626.037000", "164626.040000", "164626.043000", "164626.046000", "164626.049000", "164626.052000", "164626.054000", "164643.273000", "164643.294000", "164643.297000", "164643.300000", "164643.303000", "164643.306000", "164643.309000", "164643.312000", "164643.315000", "164643.318000", "164643.321000", "164643.324000"],
      "InstanceNumber": [1, 2, 3, 4, 5, 6, 7, 8, 9, 10, 11, 12, 13, 14, 15, 16, 17, 18, 19, 20, 21, 22, 23, 24, 25, 26, 27, 28, 29, 30, 31, 32, 33, 34, 35, 36, 37, 38, 39, 40, 41, 42, 43, 44, 45, 46, 47, 48, 49, 50, 51, 52, 53, 54, 55, 56, 57, 58, 59, 60, 61, 62, 63, 64, 65, 66, 67, 68, 69, 70, 71, 72, 73, 74, 75, 76, 77, 78, 79, 80, 81, 82, 83, 84, 85, 86, 87, 88, 89, 90, 91, 92, 93, 94, 95, 96, 97, 98, 99, 100, 101, 102, 103, 104, 105, 106, 107, 108, 109, 110, 111, 112, 113, 114, 115, 116, 117, 118, 119, 120, 121, 122, 123, 124, 125, 126, 127, 128, 129, 130, 131, 132, 133, 134, 135, 136, 137, 138, 139, 140, 141, 142, 143, 144],
      "LargestImagePixelValue": [42467, 42103, 40551, 40939, 41361, 40585, 40273, 40611, 39791, 40342, 41479, 40325, 40541, 40374, 39945, 40949, 40871, 41166, 40648, 39988, 41203, 40544, 40082, 41582, 40281, 40544, 40957, 40378, 39864, 40097, 40191, 40953, 40260, 39835, 40892, 39874, 39253, 40450, 40299, 39204, 40051, 39616, 40301, 40290, 39783, 40715, 39817, 39802, 39834, 39618, 40136, 39508, 39628, 40412, 39557, 40184, 39756, 39497, 40195, 39392, 40179, 39859, 39261, 39733, 39559, 40005, 39817, 39753, 41065, 40129, 39887, 40244, 39416, 39682, 38972, 38982, 39378, 39264, 38869, 39126, 39752, 40331, 40481, 39318, 39157, 39880, 38990, 39317, 39679, 39134, 39077, 39281, 38619, 38764, 38680, 39211, 39422, 38872, 38977, 39625, 39196, 39354, 39040, 38788, 39340, 39122, 38714, 39080, 39236, 39807, 39849, 38980, 39693, 39503, 39418, 39983, 39450, 39446, 38809, 39160, 38777, 38934, 38617, 38761, 38597, 39197, 39731, 38998, 39671, 38881, 38698, 39128, 38389, 39358, 39060, 38579, 38442, 38299, 38691, 39649, 38813, 39653, 39140, 38653],
      "WindowCenter": [10203.0, 10167.0, 10129.0, 10137.0, 10140.0, 10117.0, 10110.0, 10104.0, 10094.0, 10115.0, 10137.0, 10128.0, 10137.0, 10128.0, 10115.0, 10127.0, 10124.0, 10124.0, 10127.0, 10122.0, 10134.0, 10118.0, 10113.0, 10117.0, 10102.0, 10118.0, 10127.0, 10104.0, 10095.0, 10093.0, 10083.0, 10105.0, 10102.0, 10110.0, 10123.0, 10104.0, 10087.0, 10090.0, 10098.0, 10117.0, 10131.0, 10125.0, 10133.0, 10115.0, 10107.0, 10112.0, 10100.0, 10111.0, 10109.0, 10109.0, 10115.0, 10101.0, 10106.0, 10104.0, 10091.0, 10102.0, 10087.0, 10090.0, 10128.0, 10128.0, 10134.0, 10116.0, 10100.0, 10106.0, 10100.0, 10099.0, 10088.0, 10089.0, 10135.0, 10118.0, 10115.0, 10112.0, 10101.0, 10123.0, 10119.0, 10124.0, 10119.0, 10101.0, 10094.0, 10110.0, 10140.0, 10152.0, 10150.0, 10114.0, 10102.0, 10106.0, 10076.0, 10089.0, 10106.0, 10116.0, 10126.0, 10125.0, 10119.0, 10110.0, 10101.0, 10109.0, 10116.0, 10094.0, 10098.0, 10107.0, 10085.0, 10099.0, 10093.0, 10096.0, 10101.0, 10079.0, 10068.0, 10084.0, 10090.0, 10117.0, 10117.0, 10092.0, 10085.0, 10069.0, 10067.0, 10083.0, 10088.0, 10100.0, 10096.0, 10094.0, 10095.0, 10097.0, 10094.0, 10115.0, 10114.0, 10112.0, 10102.0, 10086.0, 10079.0, 10080.0, 10076.0, 10101.0, 10105.0, 10117.0, 10101.0, 10094.0, 10104.0, 10108.0, 10126.0, 10147.0, 10127.0, 10129.0, 10116.0, 10097.0],
      "WindowWidth": [21595.0, 21493.0, 21401.0, 21417.0, 21416.0, 21363.0, 21349.0, 21331.0, 21316.0, 21363.0, 21405.0, 21390.0, 21413.0, 21390.0, 21365.0, 21391.0, 21383.0, 21381.0, 21390.0, 21380.0, 21402.0, 21364.0, 21359.0, 21363.0, 21330.0, 21369.0, 21388.0, 21337.0, 21318.0, 21313.0, 21288.0, 21338.0, 21334.0, 21351.0, 21376.0, 21338.0, 21303.0, 21304.0, 21322.0, 21375.0, 21403.0, 21389.0, 21407.0, 21365.0, 21350.0, 21359.0, 21335.0, 21369.0, 21359.0, 21355.0, 21368.0, 21335.0, 21344.0, 21338.0, 21313.0, 21334.0, 21300.0, 21309.0, 21390.0, 21397.0, 21409.0, 21365.0, 21331.0, 21345.0, 21336.0, 21337.0, 21307.0, 21309.0, 21413.0, 21375.0, 21364.0, 21354.0, 21340.0, 21387.0, 21379.0, 21395.0, 21378.0, 21334.0, 21324.0, 21358.0, 21423.0, 21448.0, 21439.0, 21361.0, 21335.0, 21340.0, 21277.0, 21308.0, 21348.0, 21372.0, 21398.0, 21394.0, 21384.0, 21364.0, 21339.0, 21354.0, 21379.0, 21329.0, 21332.0, 21342.0, 21297.0, 21326.0, 21315.0, 21323.0, 21333.0, 21284.0, 21260.0, 21301.0, 21310.0, 21375.0, 21374.0, 21311.0, 21293.0, 21260.0, 21252.0, 21289.0, 21303.0, 21334.0, 21328.0, 21319.0, 21327.0, 21323.0, 21321.0, 21373.0, 21367.0, 21361.0, 21338.0, 21309.0, 21287.0, 21290.0, 21284.0, 21339.0, 21348.0, 21370.0, 21337.0, 21324.0, 21351.0, 21362.0, 21412.0, 21452.0, 21408.0, 21408.0, 21381.0, 21338.0]
    },
    "slices": {}
  }
}