{
  "AcquisitionMatrixPE": 104,
  "AcquisitionNumber": 1,
  "AcquisitionTime": "16:33:21.560000",
  "BandwidthPerPixelPhaseEncode": 17.17,
  "BaseResolution": 104,
  "BodyPartExamined": "BRAIN",
  "CoilString": "HC1-7;NC1_2",
  "ConsistencyInfo": "N4_VE11C_LATEST_20160120",
  "ConversionSoftware": "dcm2niix",
  "ConversionSoftwareVersion": "v1.0.20190720  (JP2:OpenJPEG) GCC7.3.0",
  "DerivedVendorReportedEchoSpacing": 0.000560011,
  "DeviceSerialNumber": "167006",
  "DwellTime": 2.1e-06,
  "EchoTime": 0.037,
  "EchoTrainLength": 104,
  "EffectiveEchoSpacing": 0.000560011,
  "FlipAngle": 52,
  "ImageComments": "Unaliased_MB4_PE3_LB",
  "ImageOrientationPatientDICOM": [0.998709, 0.050667, -0.00358224, -0.0491945, 0.947305, -0.316532],
  "ImageType": [
    "ORIGINAL",
    "PRIMARY",
    "M",
    "MB",
    "ND",
    "MOSAIC"
],
  "ImagingFrequency": 123.259,
  "InPlanePhaseEncodingDirectionDICOM": "COL",
  "InstitutionAddress": "Chemin_Queen-Mary_4565_Montreal_District_CA_H3W_1W5",
  "InstitutionName": "IUGM",
  "InstitutionalDepartmentName": "Department",
  "MRAcquisitionType": "2D",
  "MagneticFieldStrength": 3,
  "Manufacturer": "Siemens",
  "ManufacturersModelName": "Prisma_fit",
  "Modality": "MR",
  "MultibandAccelerationFactor": 4,
  "PartialFourier": 1,
  "PatientPosition": "HFS",
  "PercentPhaseFOV": 100,
  "PhaseEncodingDirection": "j",
  "PhaseEncodingSteps": 104,
  "PhaseResolution": 1,
  "PixelBandwidth": 2290,
  "ProcedureStepDescription": "hcptrt_generic",
  "ProtocolName": "func_task-language_run-2",
  "PulseSequenceDetails": "%CustomerSeq%_cmrr_mbep2d_bold",
  "ReceiveCoilActiveElements": "HC1-7;NC1,2",
  "ReceiveCoilName": "HeadNeck_64",
  "ReconMatrixPE": 104,
  "RepetitionTime": 1.49,
  "SAR": 0.0391753,
  "ScanOptions": "FS",
  "ScanningSequence": "EP",
  "SequenceName": "epfid2d1_104",
  "SequenceVariant": "SK_SS",
  "SeriesDescription": "func_task-language_run-2",
  "SeriesNumber": 29,
  "ShimSetting": [618, -7211, -8827, 703, 34, -71, -51, -22],
  "SliceThickness": 2,
  "SliceTiming": [0, 0.785, 0.0975, 0.8825, 0.1975, 0.98, 0.295, 1.0775, 0.3925, 1.1775, 0.49, 1.275, 0.5875, 1.3725, 0.6875, 0, 0.785, 0.0975, 0.8825, 0.1975, 0.98, 0.295, 1.0775, 0.3925, 1.1775, 0.49, 1.275, 0.5875, 1.3725, 0.6875, 0, 0.785, 0.0975, 0.8825, 0.1975, 0.98, 0.295, 1.0775, 0.3925, 1.1775, 0.49, 1.275, 0.5875, 1.3725, 0.6875, 0, 0.785, 0.0975, 0.8825, 0.1975, 0.98, 0.295, 1.0775, 0.3925, 1.1775, 0.49, 1.275, 0.5875, 1.3725, 0.6875],
  "SoftwareVersions": "syngo_MR_E11",
  "SpacingBetweenSlices": 2,
  "StationName": "MRC35049",
  "TaskName": "language",
  "TotalReadoutTime": 0.0576811,
  "TxRefAmp": 251.639,
  "WipMemBlock": "fa775c43-fddd-49cc-aa66-887fab4f2c32||Sequence: R016 ve11c/master r/e634e98; Dec 19 2017 11:00:25 by eja",
  "dcmmeta_affine": [
    [-1.9974184036254883, -0.09838898479938507, 0.025288453325629234, 109.07282257080078],
    [-0.10133394598960876, 1.8946107625961304, -0.6325988173484802, -62.67988586425781],
    [-0.007164489012211561, 0.633063554763794, 1.8971502780914307, -61.335872650146484],
    [0.0, 0.0, 0.0, 1.0]
],
  "dcmmeta_reorient_transform": [
    [0.0, -1.0, 0.0, 103.0],
    [1.0, 0.0, 0.0, 0.0],
    [0.0, 0.0, 1.0, 0.0],
    [0.0, 0.0, 0.0, 1.0]
],
  "dcmmeta_shape": [104, 104, 60, 159],
  "dcmmeta_slice_dim": 2,
  "dcmmeta_version": 0.6,
  "global": {
    "const": {
      "AcquisitionMatrix": [104, 0, 0, 104],
      "AngioFlag": "N",
      "BitsAllocated": 16,
      "BitsStored": 16,
      "BodyPartExamined": "BRAIN",
      "Columns": 832,
      "EchoNumbers": 1,
      "EchoTime": 37.0,
      "EchoTrainLength": 104,
      "FlipAngle": 52.0,
      "HighBit": 15,
      "ImageOrientationPatient": [0.99870917966008, 0.05066697135622, -0.0035822445878, -0.0491944914919, 0.9473054085818, -0.3165317754642],
      "ImagePositionPatient": [-790.18544822632, -858.9889215214, 236.91268069275],
      "ImageType": [
        "ORIGINAL",
        "PRIMARY",
        "M",
        "MB",
        "ND",
        "MOSAIC"
],
      "ImagedNucleus": "1H",
      "ImagingFrequency": 123.259433,
      "InPlanePhaseEncodingDirection": "COL",
      "MRAcquisitionType": "2D",
      "MagneticFieldStrength": 3.0,
      "Manufacturer": "SIEMENS",
      "ManufacturerModelName": "Prisma_fit",
      "Modality": "MR",
      "NumberOfAverages": 1.0,
      "NumberOfPhaseEncodingSteps": 104,
      "PercentPhaseFieldOfView": 100.0,
      "PercentSampling": 100.0,
      "PerformedProcedureStepStartTime": "151932.804000",
      "PhotometricInterpretation": "MONOCHROME2",
      "PixelBandwidth": 2290.0,
      "PixelRepresentation": 0,
      "PixelSpacing": [2.0, 2.0],
      "ProtocolName": "func_task-language_run-2",
      "RepetitionTime": 1490.0,
      "Rows": 832,
      "SAR": 0.03917533005911,
      "SamplesPerPixel": 1,
      "ScanOptions": "FS",
      "ScanningSequence": "EP",
      "SequenceName": "epfid2d1_104",
      "SequenceVariant": [
        "SK",
        "SS"
],
      "SeriesDescription": "func_task-language_run-2",
      "SeriesNumber": 29,
      "SeriesTime": "163428.563000",
      "SliceLocation": -36.976930644708,
      "SliceThickness": 2.0,
      "SmallestImagePixelValue": 0,
      "SoftwareVersions": "syngo MR E11",
      "SpacingBetweenSlices": 1.9999999736848,
      "SpecificCharacterSet": "ISO_IR 100",
      "StudyID": "1",
      "StudyTime": "151932.711000",
      "TransmitCoilName": "Body",
      "VariableFlipAngleFlag": "N",
      "WindowCenterWidthExplanation": "Algo1",
      "dBdt": 0.0},
    "slices": {}
  },
  "time": {
    "samples": {
      "AcquisitionNumber": [1, 2, 3, 4, 5, 6, 7, 8, 9, 10, 11, 12, 13, 14, 15, 16, 17, 18, 19, 20, 21, 22, 23, 24, 25, 26, 27, 28, 29, 30, 31, 32, 33, 34, 35, 36, 37, 38, 39, 40, 41, 42, 43, 44, 45, 46, 47, 48, 49, 50, 51, 52, 53, 54, 55, 56, 57, 58, 59, 60, 61, 62, 63, 64, 65, 66, 67, 68, 69, 70, 71, 72, 73, 74, 75, 76, 77, 78, 79, 80, 81, 82, 83, 84, 85, 86, 87, 88, 89, 90, 91, 92, 93, 94, 95, 96, 97, 98, 99, 100, 101, 102, 103, 104, 105, 106, 107, 108, 109, 110, 111, 112, 113, 114, 115, 116, 117, 118, 119, 120, 121, 122, 123, 124, 125, 126, 127, 128, 129, 130, 131, 132, 133, 134, 135, 136, 137, 138, 139, 140, 141, 142, 143, 144, 145, 146, 147, 148, 149, 150, 151, 152, 153, 154, 155, 156, 157, 158, 159],
      "AcquisitionTime": ["163321.560000", "163323.050000", "163324.540000", "163326.030000", "163327.520000", "163329.010000", "163330.500000", "163331.990000", "163333.480000", "163334.970000", "163336.460000", "163337.950000", "163339.440000", "163340.930000", "163342.420000", "163343.910000", "163345.400000", "163346.890000", "163348.380000", "163349.870000", "163351.360000", "163352.850000", "163354.340000", "163355.830000", "163357.320000", "163358.810000", "163400.300000", "163401.790000", "163403.280000", "163404.770000", "163406.260000", "163407.750000", "163409.240000", "163410.730000", "163412.220000", "163413.710000", "163415.200000", "163416.690000", "163418.180000", "163419.670000", "163421.160000", "163422.650000", "163424.140000", "163425.630000", "163427.120000", "163428.610000", "163430.100000", "163431.590000", "163433.080000", "163434.570000", "163436.060000", "163437.550000", "163439.040000", "163440.530000", "163442.020000", "163443.510000", "163445.000000", "163446.490000", "163447.980000", "163449.470000", "163450.960000", "163452.450000", "163453.940000", "163455.430000", "163456.920000", "163458.410000", "163459.900000", "163501.390000", "163502.880000", "163504.370000", "163505.860000", "163507.350000", "163508.840000", "163510.330000", "163511.820000", "163513.310000", "163514.800000", "163516.290000", "163517.780000", "163519.270000", "163520.760000", "163522.250000", "163523.740000", "163525.230000", "163526.720000", "163528.210000", "163529.700000", "163531.190000", "163532.680000", "163534.170000", "163535.660000", "163537.150000", "163538.640000", "163540.130000", "163541.620000", "163543.110000", "163544.600000", "163546.090000", "163547.580000", "163549.070000", "163550.560000", "163552.050000", "163553.540000", "163555.030000", "163556.520000", "163558.010000", "163559.500000", "163600.990000", "163602.480000", "163603.970000", "163605.460000", "163606.950000", "163608.440000", "163609.930000", "163611.420000", "163612.910000", "163614.400000", "163615.890000", "163617.380000", "163618.870000", "163620.360000", "163621.850000", "163623.340000", "163624.830000", "163626.320000", "163627.810000", "163629.300000", "163630.790000", "163632.280000", "163633.770000", "163635.260000", "163636.750000", "163638.240000", "163639.730000", "163641.220000", "163642.710000", "163644.200000", "163645.690000", "163647.180000", "163648.670000", "163650.160000", "163651.650000", "163653.140000", "163654.630000", "163656.120000", "163657.610000", "163659.100000", "163700.590000", "163702.080000", "163703.570000", "163705.060000", "163706.550000", "163708.040000", "163709.530000", "163711.020000", "163712.510000", "163714.000000", "163715.490000", "163716.980000"],
      "ContentTime": ["163428.565000", "163428.569000", "163428.572000", "163428.575000", "163428.578000", "163428.581000", "163428.584000", "163428.587000", "163428.590000", "163428.593000", "163428.595000", "163428.598000", "163428.601000", "163448.532000", "163448.535000", "163448.538000", "163448.541000", "163448.555000", "163448.558000", "163448.561000", "163448.563000", "163448.566000", "163448.569000", "163448.572000", "163448.575000", "163448.578000", "163448.586000", "163448.589000", "163448.592000", "163448.595000", "163448.598000", "163448.601000", "163448.604000", "163508.532000", "163508.535000", "163508.538000", "163508.541000", "163508.544000", "163508.547000", "163508.551000", "163508.554000", "163508.557000", "163508.560000", "163508.563000", "163508.567000", "163508.570000", "163508.573000", "163508.577000", "163508.580000", "163508.584000", "163508.587000", "163508.590000", "163508.594000", "163528.531000", "163528.534000", "163528.537000", "163528.540000", "163528.543000", "163528.546000", "163528.549000", "163528.551000", "163528.554000", "163528.557000", "163528.560000", "163528.563000", "163528.566000", "163528.569000", "163528.572000", "163528.575000", "163528.578000", "163528.581000", "163528.585000", "163528.588000", "163528.591000", "163548.531000", "163548.534000", "163548.537000", "163548.540000", "163548.543000", "163548.546000", "163548.549000", "163548.552000", "163548.554000", "163548.557000", "163548.560000", "163548.563000", "163548.566000", "163548.569000", "163548.572000", "163548.575000", "163548.578000", "163548.581000", "163548.584000", "163548.587000", "163628.531000", "163628.534000", "163628.537000", "163628.540000", "163628.543000", "163628.546000", "163628.549000", "163628.552000", "163628.555000", "163628.557000", "163628.560000", "163628.563000", "163628.566000", "163628.569000", "163628.572000", "163628.575000", "163628.578000", "163628.581000", "163628.584000", "163628.587000", "163628.590000", "163628.593000", "163628.596000", "163628.599000", "163628.602000", "163628.605000", "163628.608000", "163628.611000", "163628.614000", "163628.616000", "163628.619000", "163708.532000", "163708.535000", "163708.539000", "163708.541000", "163708.544000", "163708.548000", "163708.550000", "163708.553000", "163708.556000", "163708.559000", "163708.562000", "163708.565000", "163708.568000", "163708.571000", "163708.574000", "163708.577000", "163708.580000", "163708.583000", "163708.586000", "163708.589000", "163708.592000", "163708.595000", "163708.598000", "163708.601000", "163708.604000", "163708.607000", "163719.029000", "163719.032000", "163719.035000", "163719.038000", "163719.041000", "163719.044000", "163719.047000", "163719.050000"],
      "InstanceCreationTime": ["163428.565000", "163428.569000", "163428.572000", "163428.575000", "163428.578000", "163428.581000", "163428.584000", "163428.587000", "163428.590000", "163428.593000", "163428.595000", "163428.598000", "163428.601000", "163448.532000", "163448.535000", "163448.538000", "163448.541000", "163448.555000", "163448.558000", "163448.561000", "163448.563000", "163448.566000", "163448.569000", "163448.572000", "163448.575000", "163448.578000", "163448.586000", "163448.589000", "163448.592000", "163448.595000", "163448.598000", "163448.601000", "163448.604000", "163508.532000", "163508.535000", "163508.538000", "163508.541000", "163508.544000", "163508.547000", "163508.551000", "163508.554000", "163508.557000", "163508.560000", "163508.563000", "163508.567000", "163508.570000", "163508.573000", "163508.577000", "163508.580000", "163508.584000", "163508.587000", "163508.590000", "163508.594000", "163528.531000", "163528.534000", "163528.537000", "163528.540000", "163528.543000", "163528.546000", "163528.549000", "163528.551000", "163528.554000", "163528.557000", "163528.560000", "163528.563000", "163528.566000", "163528.569000", "163528.572000", "163528.575000", "163528.578000", "163528.581000", "163528.585000", "163528.588000", "163528.591000", "163548.531000", "163548.534000", "163548.537000", "163548.540000", "163548.543000", "163548.546000", "163548.549000", "163548.552000", "163548.554000", "163548.557000", "163548.560000", "163548.563000", "163548.566000", "163548.569000", "163548.572000", "163548.575000", "163548.578000", "163548.581000", "163548.584000", "163548.587000", "163628.531000", "163628.534000", "163628.537000", "163628.540000", "163628.543000", "163628.546000", "163628.549000", "163628.552000", "163628.555000", "163628.557000", "163628.560000", "163628.563000", "163628.566000", "163628.569000", "163628.572000", "163628.575000", "163628.578000", "163628.581000", "163628.584000", "163628.587000", "163628.590000", "163628.593000", "163628.596000", "163628.599000", "163628.602000", "163628.605000", "163628.608000", "163628.611000", "163628.614000", "163628.616000", "163628.619000", "163708.532000", "163708.535000", "163708.539000", "163708.541000", "163708.544000", "163708.548000", "163708.550000", "163708.553000", "163708.556000", "163708.559000", "163708.562000", "163708.565000", "163708.568000", "163708.571000", "163708.574000", "163708.577000", "163708.580000", "163708.583000", "163708.586000", "163708.589000", "163708.592000", "163708.595000", "163708.598000", "163708.601000", "163708.604000", "163708.607000", "163719.029000", "163719.032000", "163719.035000", "163719.038000", "163719.041000", "163719.044000", "163719.047000", "163719.050000"],
      "InstanceNumber": [1, 2, 3, 4, 5, 6, 7, 8, 9, 10, 11, 12, 13, 14, 15, 16, 17, 18, 19, 20, 21, 22, 23, 24, 25, 26, 27, 28, 29, 30, 31, 32, 33, 34, 35, 36, 37, 38, 39, 40, 41, 42, 43, 44, 45, 46, 47, 48, 49, 50, 51, 52, 53, 54, 55, 56, 57, 58, 59, 60, 61, 62, 63, 64, 65, 66, 67, 68, 69, 70, 71, 72, 73, 74, 75, 76, 77, 78, 79, 80, 81, 82, 83, 84, 85, 86, 87, 88, 89, 90, 91, 92, 93, 94, 95, 96, 97, 98, 99, 100, 101, 102, 103, 104, 105, 106, 107, 108, 109, 110, 111, 112, 113, 114, 115, 116, 117, 118, 119, 120, 121, 122, 123, 124, 125, 126, 127, 128, 129, 130, 131, 132, 133, 134, 135, 136, 137, 138, 139, 140, 141, 142, 143, 144, 145, 146, 147, 148, 149, 150, 151, 152, 153, 154, 155, 156, 157, 158, 159],
      "LargestImagePixelValue": [40793, 39869, 38937, 39338, 39322, 38595, 37841, 38924, 38598, 37890, 37784, 39446, 39457, 38466, 38761, 38578, 38407, 38011, 38578, 38456, 39028, 39254, 38902, 38422, 39258, 38606, 38412, 38947, 38049, 38240, 38448, 37821, 38492, 38434, 42605, 38678, 38035, 38011, 38510, 37476, 38278, 38290, 37677, 38430, 38415, 38055, 38665, 38159, 38285, 37812, 37928, 38141, 37822, 38313, 38272, 37896, 38208, 37778, 37601, 38292, 38146, 38961, 38581, 38023, 38436, 37559, 37767, 38664, 38207, 38062, 38077, 38070, 37888, 38402, 37813, 37611, 37636, 37174, 38008, 37505, 37960, 38211, 37832, 38065, 37494, 37450, 37878, 38100, 37683, 37970, 37406, 38513, 37811, 38132, 37527, 37961, 37656, 37887, 38544, 37806, 38548, 38258, 38129, 38289, 37492, 37501, 37655, 37365, 38206, 37834, 37787, 37904, 37840, 37272, 37531, 37635, 37362, 36990, 38028, 37676, 38132, 38053, 37527, 38438, 37530, 37616, 37470, 37387, 37866, 37447, 38132, 37190, 37574, 37777, 37630, 37678, 37549, 37216, 38120, 37659, 37753, 38120, 37749, 37895, 38130, 37957, 37953, 38132, 38478, 37694, 37458, 37674, 37295, 37255, 37836, 37618, 37774, 37570, 37063],
      "WindowCenter": [10202.0, 10136.0, 10107.0, 10117.0, 10147.0, 10144.0, 10115.0, 10113.0, 10116.0, 10116.0, 10114.0, 10137.0, 10164.0, 10147.0, 10135.0, 10122.0, 10133.0, 10135.0, 10150.0, 10151.0, 10142.0, 10131.0, 10131.0, 10116.0, 10124.0, 10141.0, 10144.0, 10148.0, 10137.0, 10128.0, 10114.0, 10103.0, 10106.0, 10126.0, 10175.0, 10123.0, 10110.0, 10092.0, 10096.0, 10084.0, 10095.0, 10105.0, 10094.0, 10099.0, 10108.0, 10101.0, 10115.0, 10118.0, 10116.0, 10111.0, 10107.0, 10109.0, 10111.0, 10114.0, 10133.0, 10120.0, 10110.0, 10102.0, 10093.0, 10109.0, 10118.0, 10133.0, 10144.0, 10128.0, 10119.0, 10107.0, 10093.0, 10096.0, 10107.0, 10101.0, 10093.0, 10110.0, 10112.0, 10111.0, 10093.0, 10086.0, 10081.0, 10086.0, 10101.0, 10098.0, 10110.0, 10102.0, 10094.0, 10085.0, 10090.0, 10104.0, 10103.0, 10114.0, 10103.0, 10110.0, 10098.0, 10106.0, 10114.0, 10123.0, 10107.0, 10112.0, 10108.0, 10096.0, 10114.0, 10116.0, 10120.0, 10129.0, 10115.0, 10111.0, 10100.0, 10092.0, 10106.0, 10107.0, 10092.0, 10097.0, 10098.0, 10098.0, 10104.0, 10082.0, 10085.0, 10095.0, 10098.0, 10102.0, 10112.0, 10106.0, 10095.0, 10098.0, 10098.0, 10113.0, 10110.0, 10108.0, 10110.0, 10105.0, 10108.0, 10101.0, 10103.0, 10091.0, 10090.0, 10085.0, 10092.0, 10095.0, 10100.0, 10101.0, 10105.0, 10098.0, 10097.0, 10104.0, 10099.0, 10103.0, 10113.0, 10117.0, 10124.0, 10118.0, 10132.0, 10122.0, 10104.0, 10097.0, 10093.0, 10087.0, 10111.0, 10111.0, 10101.0, 10102.0, 10084.0],
      "WindowWidth": [21602.0, 21439.0, 21367.0, 21382.0, 21451.0, 21445.0, 21382.0, 21366.0, 21381.0, 21381.0, 21378.0, 21422.0, 21485.0, 21451.0, 21420.0, 21391.0, 21419.0, 21424.0, 21453.0, 21457.0, 21437.0, 21408.0, 21409.0, 21377.0, 21389.0, 21434.0, 21443.0, 21447.0, 21426.0, 21409.0, 21373.0, 21356.0, 21354.0, 21405.0, 21498.0, 21388.0, 21364.0, 21321.0, 21329.0, 21308.0, 21325.0, 21352.0, 21333.0, 21337.0, 21359.0, 21345.0, 21375.0, 21384.0, 21374.0, 21367.0, 21354.0, 21361.0, 21371.0, 21369.0, 21417.0, 21387.0, 21365.0, 21348.0, 21325.0, 21363.0, 21382.0, 21415.0, 21441.0, 21402.0, 21381.0, 21360.0, 21325.0, 21326.0, 21355.0, 21343.0, 21323.0, 21363.0, 21370.0, 21363.0, 21323.0, 21311.0, 21292.0, 21310.0, 21343.0, 21343.0, 21364.0, 21346.0, 21330.0, 21306.0, 21324.0, 21354.0, 21347.0, 21373.0, 21344.0, 21362.0, 21341.0, 21351.0, 21376.0, 21394.0, 21358.0, 21367.0, 21364.0, 21333.0, 21380.0, 21382.0, 21384.0, 21408.0, 21374.0, 21361.0, 21342.0, 21321.0, 21354.0, 21360.0, 21316.0, 21334.0, 21338.0, 21338.0, 21347.0, 21299.0, 21303.0, 21329.0, 21336.0, 21350.0, 21366.0, 21356.0, 21329.0, 21339.0, 21341.0, 21380.0, 21377.0, 21369.0, 21377.0, 21361.0, 21361.0, 21347.0, 21342.0, 21321.0, 21316.0, 21300.0, 21318.0, 21326.0, 21341.0, 21344.0, 21350.0, 21337.0, 21335.0, 21346.0, 21342.0, 21348.0, 21371.0, 21379.0, 21394.0, 21381.0, 21413.0, 21395.0, 21354.0, 21332.0, 21329.0, 21315.0, 21368.0, 21365.0, 21339.0, 21350.0, 21306.0]
    },
    "slices": {}
  }
}