{
  "AcquisitionMatrixPE": 104,
  "AcquisitionNumber": 1,
  "AcquisitionTime": "15:55:54.070000",
  "BandwidthPerPixelPhaseEncode": 17.17,
  "BaseResolution": 104,
  "BodyPartExamined": "BRAIN",
  "CoilString": "HC1-7;NC1_2",
  "ConsistencyInfo": "N4_VE11C_LATEST_20160120",
  "ConversionSoftware": "dcm2niix",
  "ConversionSoftwareVersion": "v1.0.20190720  (JP2:OpenJPEG) GCC7.3.0",
  "DerivedVendorReportedEchoSpacing": 0.000560011,
  "DeviceSerialNumber": "167006",
  "DwellTime": 2.1e-06,
  "EchoTime": 0.037,
  "EchoTrainLength": 104,
  "EffectiveEchoSpacing": 0.000560011,
  "FlipAngle": 52,
  "ImageComments": "Unaliased_MB4_PE3_LB",
  "ImageOrientationPatientDICOM": [0.997306, 0.0685924, 0.0259994, -0.0578536, 0.953403, -0.296102],
  "ImageType": [
    "ORIGINAL",
    "PRIMARY",
    "M",
    "MB",
    "ND",
    "MOSAIC"
],
  "ImagingFrequency": 123.259,
  "InPlanePhaseEncodingDirectionDICOM": "COL",
  "InstitutionAddress": "Chemin_Queen-Mary_4565_Montreal_District_CA_H3W_1W5",
  "InstitutionName": "IUGM",
  "InstitutionalDepartmentName": "Department",
  "MRAcquisitionType": "2D",
  "MagneticFieldStrength": 3,
  "Manufacturer": "Siemens",
  "ManufacturersModelName": "Prisma_fit",
  "Modality": "MR",
  "MultibandAccelerationFactor": 4,
  "PartialFourier": 1,
  "PatientPosition": "HFS",
  "PercentPhaseFOV": 100,
  "PhaseEncodingDirection": "j",
  "PhaseEncodingSteps": 104,
  "PhaseResolution": 1,
  "PixelBandwidth": 2290,
  "ProcedureStepDescription": "hcptrt_generic",
  "ProtocolName": "func_task-social_run-1",
  "PulseSequenceDetails": "%CustomerSeq%_cmrr_mbep2d_bold",
  "ReceiveCoilActiveElements": "HC1-7;NC1,2",
  "ReceiveCoilName": "HeadNeck_64",
  "ReconMatrixPE": 104,
  "RepetitionTime": 1.49,
  "SAR": 0.0385753,
  "ScanOptions": "FS",
  "ScanningSequence": "EP",
  "SequenceName": "epfid2d1_104",
  "SequenceVariant": "SK_SS",
  "SeriesDescription": "func_task-social_run-1",
  "SeriesNumber": 15,
  "ShimSetting": [631, -7199, -8819, 727, 83, -10, 0, -15],
  "SliceThickness": 2,
  "SliceTiming": [0, 0.785, 0.1, 0.8825, 0.1975, 0.98, 0.295, 1.08, 0.3925, 1.1775, 0.49, 1.275, 0.59, 1.3725, 0.6875, 0, 0.785, 0.1, 0.8825, 0.1975, 0.98, 0.295, 1.08, 0.3925, 1.1775, 0.49, 1.275, 0.59, 1.3725, 0.6875, 0, 0.785, 0.1, 0.8825, 0.1975, 0.98, 0.295, 1.08, 0.3925, 1.1775, 0.49, 1.275, 0.59, 1.3725, 0.6875, 0, 0.785, 0.1, 0.8825, 0.1975, 0.98, 0.295, 1.08, 0.3925, 1.1775, 0.49, 1.275, 0.59, 1.3725, 0.6875],
  "SoftwareVersions": "syngo_MR_E11",
  "SpacingBetweenSlices": 2,
  "StationName": "MRC35049",
  "TaskName": "social",
  "TotalReadoutTime": 0.0576811,
  "TxRefAmp": 250.247,
  "WipMemBlock": "ce71dfc2-7211-43d2-93c3-e434096363ff||Sequence: R016 ve11c/master r/e634e98; Dec 19 2017 11:00:25 by eja",
  "dcmmeta_affine": [
    [-1.9946118593215942, -0.1157071441411972, 0.09019646048545837, 107.48059844970703],
    [-0.13718479871749878, 1.906805396080017, -0.5875996351242065, -62.41413497924805],
    [0.0519988089799881, 0.5922034382820129, 1.9096050262451172, -62.254295349121094],
    [0.0, 0.0, 0.0, 1.0]
],
  "dcmmeta_reorient_transform": [
    [0.0, -1.0, 0.0, 103.0],
    [1.0, 0.0, 0.0, 0.0],
    [0.0, 0.0, 1.0, 0.0],
    [0.0, 0.0, 0.0, 1.0]
],
  "dcmmeta_shape": [104, 104, 60, 139],
  "dcmmeta_slice_dim": 2,
  "dcmmeta_version": 0.6,
  "global": {
    "const": {
      "AcquisitionMatrix": [104, 0, 0, 104],
      "AngioFlag": "N",
      "BitsAllocated": 16,
      "BitsStored": 16,
      "BodyPartExamined": "BRAIN",
      "Columns": 832,
      "EchoNumbers": 1,
      "EchoTime": 37.0,
      "EchoTrainLength": 104,
      "FlipAngle": 52.0,
      "HighBit": 15,
      "ImageOrientationPatient": [0.99730592797451, 0.06859239765282, 0.02599940405347, -0.0578535722545, 0.95340271901818, -0.2961017047336],
      "ImagePositionPatient": [-779.4840754208, -877.99927026119, 195.3771298519],
      "ImageType": [
        "ORIGINAL",
        "PRIMARY",
        "M",
        "MB",
        "ND",
        "MOSAIC"
],
      "ImagedNucleus": "1H",
      "ImagingFrequency": 123.25943,
      "InPlanePhaseEncodingDirection": "COL",
      "MRAcquisitionType": "2D",
      "MagneticFieldStrength": 3.0,
      "Manufacturer": "SIEMENS",
      "ManufacturerModelName": "Prisma_fit",
      "Modality": "MR",
      "NumberOfAverages": 1.0,
      "NumberOfPhaseEncodingSteps": 104,
      "PercentPhaseFieldOfView": 100.0,
      "PercentSampling": 100.0,
      "PerformedProcedureStepStartTime": "151932.804000",
      "PhotometricInterpretation": "MONOCHROME2",
      "PixelBandwidth": 2290.0,
      "PixelRepresentation": 0,
      "PixelSpacing": [2.0, 2.0],
      "ProtocolName": "func_task-social_run-1",
      "RepetitionTime": 1490.0,
      "Rows": 832,
      "SAR": 0.03857526623242,
      "SamplesPerPixel": 1,
      "ScanOptions": "FS",
      "ScanningSequence": "EP",
      "SequenceName": "epfid2d1_104",
      "SequenceVariant": [
        "SK",
        "SS"
],
      "SeriesDescription": "func_task-social_run-1",
      "SeriesNumber": 15,
      "SeriesTime": "155708.567000",
      "SliceLocation": -36.256111094345,
      "SliceThickness": 2.0,
      "SmallestImagePixelValue": 0,
      "SoftwareVersions": "syngo MR E11",
      "SpacingBetweenSlices": 2.0000000007972,
      "SpecificCharacterSet": "ISO_IR 100",
      "StudyID": "1",
      "StudyTime": "151932.711000",
      "TransmitCoilName": "Body",
      "VariableFlipAngleFlag": "N",
      "WindowCenterWidthExplanation": "Algo1",
      "dBdt": 0.0},
    "slices": {}
  },
  "time": {
    "samples": {
      "AcquisitionNumber": [1, 2, 3, 4, 5, 6, 7, 8, 9, 10, 11, 12, 13, 14, 15, 16, 17, 18, 19, 20, 21, 22, 23, 24, 25, 26, 27, 28, 29, 30, 31, 32, 33, 34, 35, 36, 37, 38, 39, 40, 41, 42, 43, 44, 45, 46, 47, 48, 49, 50, 51, 52, 53, 54, 55, 56, 57, 58, 59, 60, 61, 62, 63, 64, 65, 66, 67, 68, 69, 70, 71, 72, 73, 74, 75, 76, 77, 78, 79, 80, 81, 82, 83, 84, 85, 86, 87, 88, 89, 90, 91, 92, 93, 94, 95, 96, 97, 98, 99, 100, 101, 102, 103, 104, 105, 106, 107, 108, 109, 110, 111, 112, 113, 114, 115, 116, 117, 118, 119, 120, 121, 122, 123, 124, 125, 126, 127, 128, 129, 130, 131, 132, 133, 134, 135, 136, 137, 138, 139],
      "AcquisitionTime": ["155554.070000", "155555.560000", "155557.050000", "155558.540000", "155600.030000", "155601.520000", "155603.010000", "155604.500000", "155605.990000", "155607.480000", "155608.970000", "155610.460000", "155611.950000", "155613.440000", "155614.930000", "155616.420000", "155617.910000", "155619.400000", "155620.890000", "155622.380000", "155623.870000", "155625.360000", "155626.850000", "155628.340000", "155629.830000", "155631.320000", "155632.810000", "155634.300000", "155635.790000", "155637.280000", "155638.770000", "155640.260000", "155641.750000", "155643.240000", "155644.730000", "155646.220000", "155647.710000", "155649.200000", "155650.690000", "155652.180000", "155653.670000", "155655.160000", "155656.650000", "155658.140000", "155659.630000", "155701.120000", "155702.610000", "155704.100000", "155705.590000", "155707.080000", "155708.570000", "155710.060000", "155711.550000", "155713.040000", "155714.530000", "155716.020000", "155717.510000", "155719.000000", "155720.490000", "155721.980000", "155723.470000", "155724.960000", "155726.450000", "155727.940000", "155729.430000", "155730.920000", "155732.410000", "155733.900000", "155735.390000", "155736.880000", "155738.370000", "155739.860000", "155741.350000", "155742.840000", "155744.330000", "155745.820000", "155747.310000", "155748.800000", "155750.290000", "155751.780000", "155753.270000", "155754.760000", "155756.250000", "155757.740000", "155759.230000", "155800.720000", "155802.210000", "155803.700000", "155805.190000", "155806.680000", "155808.170000", "155809.660000", "155811.150000", "155812.640000", "155814.130000", "155815.620000", "155817.110000", "155818.600000", "155820.090000", "155821.580000", "155823.070000", "155824.560000", "155826.050000", "155827.540000", "155829.030000", "155830.520000", "155832.010000", "155833.500000", "155834.990000", "155836.480000", "155837.970000", "155839.460000", "155840.950000", "155842.440000", "155843.930000", "155845.420000", "155846.910000", "155848.400000", "155849.890000", "155851.380000", "155852.870000", "155854.360000", "155855.850000", "155857.340000", "155858.830000", "155900.320000", "155901.810000", "155903.300000", "155904.790000", "155906.280000", "155907.770000", "155909.260000", "155910.750000", "155912.240000", "155913.730000", "155915.220000", "155916.710000", "155918.200000", "155919.690000"],
      "ContentTime": ["155708.570000", "155708.574000", "155708.577000", "155708.580000", "155708.583000", "155708.586000", "155708.589000", "155708.592000", "155708.595000", "155708.598000", "155708.601000", "155708.604000", "155708.607000", "155708.610000", "155708.613000", "155708.622000", "155708.625000", "155708.627000", "155708.630000", "155708.633000", "155708.636000", "155728.532000", "155728.535000", "155728.538000", "155728.541000", "155728.544000", "155728.547000", "155728.550000", "155728.553000", "155728.556000", "155728.559000", "155728.562000", "155728.564000", "155728.567000", "155728.570000", "155728.573000", "155728.576000", "155728.579000", "155728.582000", "155728.585000", "155728.588000", "155748.532000", "155748.535000", "155748.538000", "155748.541000", "155748.544000", "155748.547000", "155748.550000", "155748.553000", "155748.556000", "155748.559000", "155748.578000", "155748.581000", "155748.584000", "155748.587000", "155748.590000", "155748.593000", "155748.596000", "155748.598000", "155748.601000", "155748.604000", "155808.532000", "155808.535000", "155808.538000", "155808.541000", "155808.544000", "155808.547000", "155808.550000", "155808.553000", "155808.556000", "155808.559000", "155808.561000", "155808.564000", "155808.567000", "155808.570000", "155808.573000", "155808.576000", "155808.580000", "155808.583000", "155808.585000", "155808.589000", "155828.531000", "155828.534000", "155828.537000", "155828.540000", "155828.543000", "155828.546000", "155828.549000", "155828.552000", "155828.555000", "155828.558000", "155828.561000", "155828.564000", "155828.567000", "155828.569000", "155828.572000", "155828.576000", "155828.579000", "155828.582000", "155828.584000", "155828.587000", "155828.590000", "155908.531000", "155908.534000", "155908.537000", "155908.540000", "155908.543000", "155908.546000", "155908.549000", "155908.552000", "155908.555000", "155908.558000", "155908.561000", "155908.564000", "155908.567000", "155908.570000", "155908.573000", "155908.576000", "155908.579000", "155908.582000", "155908.585000", "155908.588000", "155908.591000", "155908.594000", "155908.597000", "155908.599000", "155908.602000", "155908.605000", "155908.608000", "155908.611000", "155921.779000", "155921.783000", "155921.786000", "155921.789000", "155921.792000", "155921.795000", "155921.798000", "155921.801000", "155921.804000"],
      "InstanceCreationTime": ["155708.570000", "155708.574000", "155708.577000", "155708.580000", "155708.583000", "155708.586000", "155708.589000", "155708.592000", "155708.595000", "155708.598000", "155708.601000", "155708.604000", "155708.607000", "155708.610000", "155708.613000", "155708.622000", "155708.625000", "155708.627000", "155708.630000", "155708.633000", "155708.636000", "155728.532000", "155728.535000", "155728.538000", "155728.541000", "155728.544000", "155728.547000", "155728.550000", "155728.553000", "155728.556000", "155728.559000", "155728.562000", "155728.564000", "155728.567000", "155728.570000", "155728.573000", "155728.576000", "155728.579000", "155728.582000", "155728.585000", "155728.588000", "155748.532000", "155748.535000", "155748.538000", "155748.541000", "155748.544000", "155748.547000", "155748.550000", "155748.553000", "155748.556000", "155748.559000", "155748.578000", "155748.581000", "155748.584000", "155748.587000", "155748.590000", "155748.593000", "155748.596000", "155748.598000", "155748.601000", "155748.604000", "155808.532000", "155808.535000", "155808.538000", "155808.541000", "155808.544000", "155808.547000", "155808.550000", "155808.553000", "155808.556000", "155808.559000", "155808.561000", "155808.564000", "155808.567000", "155808.570000", "155808.573000", "155808.576000", "155808.580000", "155808.583000", "155808.585000", "155808.589000", "155828.531000", "155828.534000", "155828.537000", "155828.540000", "155828.543000", "155828.546000", "155828.549000", "155828.552000", "155828.555000", "155828.558000", "155828.561000", "155828.564000", "155828.567000", "155828.569000", "155828.572000", "155828.576000", "155828.579000", "155828.582000", "155828.584000", "155828.587000", "155828.590000", "155908.531000", "155908.534000", "155908.537000", "155908.540000", "155908.543000", "155908.546000", "155908.549000", "155908.552000", "155908.555000", "155908.558000", "155908.561000", "155908.564000", "155908.567000", "155908.570000", "155908.573000", "155908.576000", "155908.579000", "155908.582000", "155908.585000", "155908.588000", "155908.591000", "155908.594000", "155908.597000", "155908.599000", "155908.602000", "155908.605000", "155908.608000", "155908.611000", "155921.779000", "155921.783000", "155921.786000", "155921.789000", "155921.792000", "155921.795000", "155921.798000", "155921.801000", "155921.804000"],
      "InstanceNumber": [1, 2, 3, 4, 5, 6, 7, 8, 9, 10, 11, 12, 13, 14, 15, 16, 17, 18, 19, 20, 21, 22, 23, 24, 25, 26, 27, 28, 29, 30, 31, 32, 33, 34, 35, 36, 37, 38, 39, 40, 41, 42, 43, 44, 45, 46, 47, 48, 49, 50, 51, 52, 53, 54, 55, 56, 57, 58, 59, 60, 61, 62, 63, 64, 65, 66, 67, 68, 69, 70, 71, 72, 73, 74, 75, 76, 77, 78, 79, 80, 81, 82, 83, 84, 85, 86, 87, 88, 89, 90, 91, 92, 93, 94, 95, 96, 97, 98, 99, 100, 101, 102, 103, 104, 105, 106, 107, 108, 109, 110, 111, 112, 113, 114, 115, 116, 117, 118, 119, 120, 121, 122, 123, 124, 125, 126, 127, 128, 129, 130, 131, 132, 133, 134, 135, 136, 137, 138, 139],
      "LargestImagePixelValue": [45335, 44198, 43424, 43422, 42651, 42217, 42825, 42581, 42885, 43015, 42925, 42478, 43070, 42579, 43157, 42909, 43353, 43203, 43025, 43445, 43640, 43425, 43082, 43583, 43063, 43155, 42955, 41854, 42896, 42572, 42357, 43118, 43011, 42657, 43092, 42986, 42679, 42550, 42593, 42416, 43305, 42766, 42425, 42994, 42442, 42160, 42863, 42558, 41962, 42270, 42324, 42525, 43029, 42506, 42039, 43021, 42519, 42787, 42561, 42620, 42867, 42838, 42282, 42858, 42809, 41962, 42305, 42143, 42217, 42411, 42236, 42378, 41903, 41842, 42471, 42477, 42617, 41876, 41729, 42041, 42467, 42097, 42454, 42937, 42745, 42571, 42909, 42381, 42287, 42420, 42351, 42693, 42603, 41737, 42788, 42192, 42085, 42440, 41844, 42069, 42092, 41783, 42260, 41649, 41803, 42274, 41894, 42183, 41980, 41900, 42281, 41958, 41295, 41599, 41861, 41675, 41706, 41400, 41832, 41412, 41919, 41925, 41657, 41834, 41327, 41541, 42041, 41632, 41922, 41504, 41372, 42124, 42264, 41948, 41854, 41473, 42019, 41871, 42361],
      "WindowCenter": [10285.0, 10241.0, 10212.0, 10212.0, 10215.0, 10195.0, 10204.0, 10197.0, 10194.0, 10210.0, 10220.0, 10212.0, 10220.0, 10214.0, 10211.0, 10226.0, 10237.0, 10236.0, 10231.0, 10226.0, 10228.0, 10236.0, 10229.0, 10229.0, 10228.0, 10219.0, 10222.0, 10215.0, 10226.0, 10218.0, 10205.0, 10199.0, 10198.0, 10172.0, 10164.0, 10179.0, 10194.0, 10201.0, 10205.0, 10204.0, 10208.0, 10211.0, 10204.0, 10209.0, 10206.0, 10198.0, 10211.0, 10215.0, 10194.0, 10200.0, 10201.0, 10191.0, 10203.0, 10210.0, 10194.0, 10196.0, 10191.0, 10194.0, 10205.0, 10208.0, 10213.0, 10214.0, 10198.0, 10194.0, 10212.0, 10217.0, 10232.0, 10244.0, 10226.0, 10207.0, 10191.0, 10180.0, 10187.0, 10200.0, 10216.0, 10214.0, 10198.0, 10183.0, 10166.0, 10182.0, 10195.0, 10190.0, 10196.0, 10186.0, 10192.0, 10186.0, 10192.0, 10196.0, 10191.0, 10203.0, 10199.0, 10198.0, 10206.0, 10202.0, 10220.0, 10216.0, 10207.0, 10208.0, 10202.0, 10194.0, 10201.0, 10184.0, 10182.0, 10180.0, 10186.0, 10200.0, 10187.0, 10185.0, 10184.0, 10178.0, 10184.0, 10192.0, 10181.0, 10194.0, 10194.0, 10188.0, 10189.0, 10179.0, 10192.0, 10188.0, 10200.0, 10205.0, 10198.0, 10187.0, 10188.0, 10206.0, 10223.0, 10224.0, 10197.0, 10179.0, 10154.0, 10164.0, 10165.0, 10165.0, 10167.0, 10166.0, 10173.0, 10185.0, 10184.0],
      "WindowWidth": [21778.0, 21664.0, 21586.0, 21586.0, 21589.0, 21545.0, 21561.0, 21546.0, 21536.0, 21573.0, 21595.0, 21576.0, 21594.0, 21583.0, 21574.0, 21608.0, 21634.0, 21629.0, 21621.0, 21605.0, 21611.0, 21628.0, 21614.0, 21617.0, 21613.0, 21590.0, 21599.0, 21590.0, 21613.0, 21596.0, 21568.0, 21548.0, 21547.0, 21485.0, 21461.0, 21499.0, 21537.0, 21548.0, 21560.0, 21558.0, 21564.0, 21574.0, 21558.0, 21569.0, 21565.0, 21546.0, 21575.0, 21588.0, 21542.0, 21553.0, 21556.0, 21534.0, 21555.0, 21577.0, 21542.0, 21538.0, 21530.0, 21531.0, 21562.0, 21569.0, 21575.0, 21583.0, 21546.0, 21534.0, 21580.0, 21592.0, 21625.0, 21655.0, 21613.0, 21568.0, 21534.0, 21508.0, 21523.0, 21553.0, 21588.0, 21579.0, 21542.0, 21514.0, 21477.0, 21512.0, 21539.0, 21529.0, 21539.0, 21514.0, 21526.0, 21516.0, 21525.0, 21542.0, 21532.0, 21555.0, 21551.0, 21546.0, 21564.0, 21562.0, 21594.0, 21589.0, 21566.0, 21571.0, 21557.0, 21538.0, 21550.0, 21513.0, 21510.0, 21511.0, 21523.0, 21551.0, 21529.0, 21520.0, 21519.0, 21503.0, 21517.0, 21534.0, 21509.0, 21540.0, 21539.0, 21526.0, 21529.0, 21506.0, 21541.0, 21532.0, 21552.0, 21569.0, 21554.0, 21526.0, 21532.0, 21571.0, 21610.0, 21610.0, 21545.0, 21509.0, 21452.0, 21472.0, 21474.0, 21474.0, 21480.0, 21477.0, 21490.0, 21527.0, 21520.0]
    },
    "slices": {}
  }
}