{
  "AcquisitionMatrixPE": 104,
  "AcquisitionNumber": 1,
  "AcquisitionTime": "17:02:8.115000",
  "BandwidthPerPixelPhaseEncode": 17.17,
  "BaseResolution": 104,
  "BodyPartExamined": "BRAIN",
  "CoilString": "HC1-7;NC1_2",
  "ConsistencyInfo": "N4_VE11C_LATEST_20160120",
  "ConversionSoftware": "dcm2niix",
  "ConversionSoftwareVersion": "v1.0.20190720  (JP2:OpenJPEG) GCC7.3.0",
  "DerivedVendorReportedEchoSpacing": 0.000560011,
  "DeviceSerialNumber": "167006",
  "DwellTime": 2.1e-06,
  "EchoTime": 0.037,
  "EchoTrainLength": 104,
  "EffectiveEchoSpacing": 0.000560011,
  "FlipAngle": 52,
  "ImageComments": "Unaliased_MB4_PE3_LB",
  "ImageOrientationPatientDICOM": [0.997306, 0.0685924, 0.0259994, -0.0578536, 0.953403, -0.296102],
  "ImageType": [
    "ORIGINAL",
    "PRIMARY",
    "M",
    "MB",
    "ND",
    "MOSAIC"
],
  "ImagingFrequency": 123.259,
  "InPlanePhaseEncodingDirectionDICOM": "COL",
  "InstitutionAddress": "Chemin_Queen-Mary_4565_Montreal_District_CA_H3W_1W5",
  "InstitutionName": "IUGM",
  "InstitutionalDepartmentName": "Department",
  "MRAcquisitionType": "2D",
  "MagneticFieldStrength": 3,
  "Manufacturer": "Siemens",
  "ManufacturersModelName": "Prisma_fit",
  "Modality": "MR",
  "MultibandAccelerationFactor": 4,
  "PartialFourier": 1,
  "PatientPosition": "HFS",
  "PercentPhaseFOV": 100,
  "PhaseEncodingDirection": "j",
  "PhaseEncodingSteps": 104,
  "PhaseResolution": 1,
  "PixelBandwidth": 2290,
  "ProcedureStepDescription": "hcptrt_generic",
  "ProtocolName": "func_task-relational_run-2",
  "PulseSequenceDetails": "%CustomerSeq%_cmrr_mbep2d_bold",
  "ReceiveCoilActiveElements": "HC1-7;NC1,2",
  "ReceiveCoilName": "HeadNeck_64",
  "ReconMatrixPE": 104,
  "RepetitionTime": 1.49,
  "SAR": 0.0390217,
  "ScanOptions": "FS",
  "ScanningSequence": "EP",
  "SequenceName": "epfid2d1_104",
  "SequenceVariant": "SK_SS",
  "SeriesDescription": "func_task-relational_run-2",
  "SeriesNumber": 41,
  "ShimSetting": [619, -7208, -8824, 713, 42, -54, -51, -21],
  "SliceThickness": 2,
  "SliceTiming": [0, 0.7825, 0.0975, 0.88, 0.195, 0.98, 0.2925, 1.0775, 0.39, 1.175, 0.49, 1.2725, 0.5875, 1.37, 0.685, 0, 0.7825, 0.0975, 0.88, 0.195, 0.98, 0.2925, 1.0775, 0.39, 1.175, 0.49, 1.2725, 0.5875, 1.37, 0.685, 0, 0.7825, 0.0975, 0.88, 0.195, 0.98, 0.2925, 1.0775, 0.39, 1.175, 0.49, 1.2725, 0.5875, 1.37, 0.685, 0, 0.7825, 0.0975, 0.88, 0.195, 0.98, 0.2925, 1.0775, 0.39, 1.175, 0.49, 1.2725, 0.5875, 1.37, 0.685],
  "SoftwareVersions": "syngo_MR_E11",
  "SpacingBetweenSlices": 2,
  "StationName": "MRC35049",
  "TaskName": "relational",
  "TotalReadoutTime": 0.0576811,
  "TxRefAmp": 251.639,
  "WipMemBlock": "9796a77f-5738-49de-940c-4ebb704492bb||Sequence: R016 ve11c/master r/e634e98; Dec 19 2017 11:00:25 by eja",
  "dcmmeta_affine": [
    [-1.9946118593215942, -0.1157071441411972, 0.09019646048545837, 107.48059844970703],
    [-0.13718479871749878, 1.906805396080017, -0.5875996351242065, -62.41413497924805],
    [0.0519988089799881, 0.5922034382820129, 1.9096050262451172, -62.254295349121094],
    [0.0, 0.0, 0.0, 1.0]
],
  "dcmmeta_reorient_transform": [
    [0.0, -1.0, 0.0, 103.0],
    [1.0, 0.0, 0.0, 0.0],
    [0.0, 0.0, 1.0, 0.0],
    [0.0, 0.0, 0.0, 1.0]
],
  "dcmmeta_shape": [104, 104, 60, 119],
  "dcmmeta_slice_dim": 2,
  "dcmmeta_version": 0.6,
  "global": {
    "const": {
      "AcquisitionMatrix": [104, 0, 0, 104],
      "AngioFlag": "N",
      "BitsAllocated": 16,
      "BitsStored": 16,
      "BodyPartExamined": "BRAIN",
      "Columns": 832,
      "EchoNumbers": 1,
      "EchoTime": 37.0,
      "EchoTrainLength": 104,
      "FlipAngle": 52.0,
      "HighBit": 15,
      "ImageOrientationPatient": [0.99730592797451, 0.06859239765282, 0.02599940405347, -0.0578535722545, 0.95340271901818, -0.2961017047336],
      "ImagePositionPatient": [-779.4840754208, -877.99927026119, 195.3771298519],
      "ImageType": [
        "ORIGINAL",
        "PRIMARY",
        "M",
        "MB",
        "ND",
        "MOSAIC"
],
      "ImagedNucleus": "1H",
      "ImagingFrequency": 123.259444,
      "InPlanePhaseEncodingDirection": "COL",
      "MRAcquisitionType": "2D",
      "MagneticFieldStrength": 3.0,
      "Manufacturer": "SIEMENS",
      "ManufacturerModelName": "Prisma_fit",
      "Modality": "MR",
      "NumberOfAverages": 1.0,
      "NumberOfPhaseEncodingSteps": 104,
      "PercentPhaseFieldOfView": 100.0,
      "PercentSampling": 100.0,
      "PerformedProcedureStepStartTime": "151932.804000",
      "PhotometricInterpretation": "MONOCHROME2",
      "PixelBandwidth": 2290.0,
      "PixelRepresentation": 0,
      "PixelSpacing": [2.0, 2.0],
      "ProtocolName": "func_task-relational_run-2",
      "RepetitionTime": 1490.0,
      "Rows": 832,
      "SAR": 0.03902165749278,
      "SamplesPerPixel": 1,
      "ScanOptions": "FS",
      "ScanningSequence": "EP",
      "SequenceName": "epfid2d1_104",
      "SequenceVariant": [
        "SK",
        "SS"
],
      "SeriesDescription": "func_task-relational_run-2",
      "SeriesNumber": 41,
      "SeriesTime": "170308.567000",
      "SliceLocation": -36.256111094345,
      "SliceThickness": 2.0,
      "SmallestImagePixelValue": 0,
      "SoftwareVersions": "syngo MR E11",
      "SpacingBetweenSlices": 2.0000000007972,
      "SpecificCharacterSet": "ISO_IR 100",
      "StudyID": "1",
      "StudyTime": "151932.711000",
      "TransmitCoilName": "Body",
      "VariableFlipAngleFlag": "N",
      "WindowCenterWidthExplanation": "Algo1",
      "dBdt": 0.0},
    "slices": {}
  },
  "time": {
    "samples": {
      "AcquisitionNumber": [1, 2, 3, 4, 5, 6, 7, 8, 9, 10, 11, 12, 13, 14, 15, 16, 17, 18, 19, 20, 21, 22, 23, 24, 25, 26, 27, 28, 29, 30, 31, 32, 33, 34, 35, 36, 37, 38, 39, 40, 41, 42, 43, 44, 45, 46, 47, 48, 49, 50, 51, 52, 53, 54, 55, 56, 57, 58, 59, 60, 61, 62, 63, 64, 65, 66, 67, 68, 69, 70, 71, 72, 73, 74, 75, 76, 77, 78, 79, 80, 81, 82, 83, 84, 85, 86, 87, 88, 89, 90, 91, 92, 93, 94, 95, 96, 97, 98, 99, 100, 101, 102, 103, 104, 105, 106, 107, 108, 109, 110, 111, 112, 113, 114, 115, 116, 117, 118, 119],
      "AcquisitionTime": ["170208.115000", "170209.605000", "170211.095000", "170212.585000", "170214.075000", "170215.565000", "170217.055000", "170218.545000", "170220.035000", "170221.525000", "170223.015000", "170224.505000", "170225.995000", "170227.485000", "170228.975000", "170230.465000", "170231.955000", "170233.445000", "170234.935000", "170236.425000", "170237.915000", "170239.405000", "170240.895000", "170242.385000", "170243.875000", "170245.365000", "170246.855000", "170248.345000", "170249.835000", "170251.325000", "170252.815000", "170254.305000", "170255.795000", "170257.285000", "170258.775000", "170300.265000", "170301.755000", "170303.245000", "170304.735000", "170306.225000", "170307.715000", "170309.205000", "170310.695000", "170312.185000", "170313.675000", "170315.165000", "170316.655000", "170318.145000", "170319.635000", "170321.125000", "170322.615000", "170324.105000", "170325.595000", "170327.085000", "170328.575000", "170330.065000", "170331.555000", "170333.045000", "170334.535000", "170336.025000", "170337.515000", "170339.005000", "170340.495000", "170341.985000", "170343.475000", "170344.965000", "170346.455000", "170347.945000", "170349.435000", "170350.925000", "170352.415000", "170353.905000", "170355.395000", "170356.885000", "170358.375000", "170359.865000", "170401.355000", "170402.845000", "170404.335000", "170405.825000", "170407.315000", "170408.805000", "170410.295000", "170411.785000", "170413.275000", "170414.765000", "170416.255000", "170417.745000", "170419.235000", "170420.725000", "170422.215000", "170423.705000", "170425.195000", "170426.685000", "170428.175000", "170429.665000", "170431.155000", "170432.645000", "170434.135000", "170435.625000", "170437.115000", "170438.605000", "170440.095000", "170441.585000", "170443.075000", "170444.565000", "170446.055000", "170447.545000", "170449.035000", "170450.525000", "170452.015000", "170453.505000", "170454.995000", "170456.485000", "170457.975000", "170459.465000", "170500.955000", "170502.445000", "170503.935000"],
      "ContentTime": ["170308.570000", "170308.573000", "170308.576000", "170308.579000", "170308.592000", "170308.595000", "170308.598000", "170328.531000", "170328.534000", "170328.542000", "170328.545000", "170328.548000", "170328.551000", "170328.554000", "170328.557000", "170328.560000", "170328.563000", "170328.566000", "170328.569000", "170328.572000", "170328.575000", "170328.581000", "170328.584000", "170328.587000", "170328.589000", "170328.592000", "170328.595000", "170348.531000", "170348.534000", "170348.537000", "170348.540000", "170348.543000", "170348.546000", "170348.549000", "170348.552000", "170348.555000", "170348.558000", "170348.560000", "170348.563000", "170348.566000", "170348.578000", "170348.581000", "170348.584000", "170348.587000", "170348.590000", "170348.593000", "170348.596000", "170408.531000", "170408.534000", "170408.537000", "170408.550000", "170408.553000", "170408.566000", "170408.569000", "170408.572000", "170408.575000", "170408.578000", "170408.581000", "170408.584000", "170408.587000", "170408.590000", "170408.593000", "170408.595000", "170408.598000", "170408.601000", "170408.604000", "170408.607000", "170408.610000", "170428.532000", "170428.535000", "170428.538000", "170428.541000", "170428.544000", "170428.547000", "170428.550000", "170428.553000", "170428.560000", "170428.563000", "170428.566000", "170428.569000", "170428.572000", "170428.575000", "170428.578000", "170428.581000", "170428.584000", "170428.587000", "170428.590000", "170428.593000", "170505.966000", "170505.969000", "170505.972000", "170505.975000", "170505.978000", "170505.981000", "170505.984000", "170505.987000", "170505.990000", "170505.993000", "170505.996000", "170506.000000", "170506.003000", "170506.006000", "170506.008000", "170506.011000", "170506.015000", "170506.018000", "170506.021000", "170506.024000", "170506.028000", "170506.031000", "170506.034000", "170506.037000", "170506.040000", "170506.044000", "170506.047000", "170506.050000", "170506.053000", "170506.056000", "170506.059000"],
      "InstanceCreationTime": ["170308.570000", "170308.573000", "170308.576000", "170308.579000", "170308.592000", "170308.595000", "170308.598000", "170328.531000", "170328.534000", "170328.542000", "170328.545000", "170328.548000", "170328.551000", "170328.554000", "170328.557000", "170328.560000", "170328.563000", "170328.566000", "170328.569000", "170328.572000", "170328.575000", "170328.581000", "170328.584000", "170328.587000", "170328.589000", "170328.592000", "170328.595000", "170348.531000", "170348.534000", "170348.537000", "170348.540000", "170348.543000", "170348.546000", "170348.549000", "170348.552000", "170348.555000", "170348.558000", "170348.560000", "170348.563000", "170348.566000", "170348.578000", "170348.581000", "170348.584000", "170348.587000", "170348.590000", "170348.593000", "170348.596000", "170408.531000", "170408.534000", "170408.537000", "170408.550000", "170408.553000", "170408.566000", "170408.569000", "170408.572000", "170408.575000", "170408.578000", "170408.581000", "170408.584000", "170408.587000", "170408.590000", "170408.593000", "170408.595000", "170408.598000", "170408.601000", "170408.604000", "170408.607000", "170408.610000", "170428.532000", "170428.535000", "170428.538000", "170428.541000", "170428.544000", "170428.547000", "170428.550000", "170428.553000", "170428.560000", "170428.563000", "170428.566000", "170428.569000", "170428.572000", "170428.575000", "170428.578000", "170428.581000", "170428.584000", "170428.587000", "170428.590000", "170428.593000", "170505.966000", "170505.969000", "170505.972000", "170505.975000", "170505.978000", "170505.981000", "170505.984000", "170505.987000", "170505.990000", "170505.993000", "170505.996000", "170506.000000", "170506.003000", "170506.006000", "170506.008000", "170506.011000", "170506.015000", "170506.018000", "170506.021000", "170506.024000", "170506.028000", "170506.031000", "170506.034000", "170506.037000", "170506.040000", "170506.044000", "170506.047000", "170506.050000", "170506.053000", "170506.056000", "170506.059000"],
      "InstanceNumber": [1, 2, 3, 4, 5, 6, 7, 8, 9, 10, 11, 12, 13, 14, 15, 16, 17, 18, 19, 20, 21, 22, 23, 24, 25, 26, 27, 28, 29, 30, 31, 32, 33, 34, 35, 36, 37, 38, 39, 40, 41, 42, 43, 44, 45, 46, 47, 48, 49, 50, 51, 52, 53, 54, 55, 56, 57, 58, 59, 60, 61, 62, 63, 64, 65, 66, 67, 68, 69, 70, 71, 72, 73, 74, 75, 76, 77, 78, 79, 80, 81, 82, 83, 84, 85, 86, 87, 88, 89, 90, 91, 92, 93, 94, 95, 96, 97, 98, 99, 100, 101, 102, 103, 104, 105, 106, 107, 108, 109, 110, 111, 112, 113, 114, 115, 116, 117, 118, 119],
      "LargestImagePixelValue": [43104, 42253, 41952, 41707, 41520, 41494, 41010, 41577, 40609, 40091, 40590, 40074, 40542, 41490, 40758, 40726, 40799, 41180, 41219, 41129, 41622, 41115, 40426, 41024, 41052, 41055, 41607, 41136, 41062, 41400, 41221, 41150, 41623, 41663, 41499, 42029, 41957, 41342, 41532, 41597, 40910, 41051, 41284, 40764, 40479, 40285, 40799, 40861, 40378, 41614, 40629, 41157, 41031, 40581, 40456, 40985, 41099, 41475, 40645, 40634, 40942, 40366, 40600, 39722, 40689, 41027, 40256, 40747, 40195, 40829, 41337, 40625, 41024, 40644, 40212, 40559, 40420, 39429, 40018, 40172, 39236, 39986, 39236, 39475, 39402, 38611, 38990, 38518, 39699, 39885, 38439, 40118, 39876, 38753, 40052, 39289, 39413, 39649, 39633, 39936, 39694, 39612, 39745, 40150, 39823, 38839, 37746, 38777, 39918, 39819, 39276, 38516, 39765, 39653, 39443, 39614, 39415, 39085, 38575],
      "WindowCenter": [10157.0, 10124.0, 10093.0, 10076.0, 10097.0, 10110.0, 10096.0, 10081.0, 10066.0, 10049.0, 10054.0, 10058.0, 10091.0, 10125.0, 10114.0, 10106.0, 10112.0, 10113.0, 10118.0, 10118.0, 10118.0, 10120.0, 10098.0, 10092.0, 10092.0, 10099.0, 10116.0, 10111.0, 10116.0, 10111.0, 10100.0, 10075.0, 10064.0, 10078.0, 10097.0, 10107.0, 10116.0, 10095.0, 10082.0, 10080.0, 10069.0, 10086.0, 10101.0, 10088.0, 10075.0, 10068.0, 10075.0, 10089.0, 10098.0, 10116.0, 10114.0, 10104.0, 10093.0, 10078.0, 10078.0, 10092.0, 10091.0, 10099.0, 10080.0, 10076.0, 10085.0, 10079.0, 10088.0, 10083.0, 10102.0, 10097.0, 10082.0, 10080.0, 10083.0, 10070.0, 10085.0, 10072.0, 10072.0, 10074.0, 10065.0, 10057.0, 10076.0, 10060.0, 10050.0, 10055.0, 10051.0, 10055.0, 10061.0, 10054.0, 10060.0, 10054.0, 10056.0, 10046.0, 10056.0, 10056.0, 10010.0, 10037.0, 10082.0, 10059.0, 10056.0, 10040.0, 10030.0, 10047.0, 10063.0, 10070.0, 10069.0, 10050.0, 10041.0, 10054.0, 10058.0, 10040.0, 10016.0, 10028.0, 10067.0, 10070.0, 10038.0, 10004.0, 10018.0, 10060.0, 10062.0, 10049.0, 10043.0, 10033.0, 10009.0],
      "WindowWidth": [21480.0, 21407.0, 21314.0, 21269.0, 21313.0, 21340.0, 21309.0, 21269.0, 21238.0, 21201.0, 21210.0, 21227.0, 21297.0, 21372.0, 21354.0, 21335.0, 21348.0, 21348.0, 21359.0, 21361.0, 21355.0, 21363.0, 21319.0, 21297.0, 21300.0, 21313.0, 21353.0, 21344.0, 21355.0, 21340.0, 21314.0, 21258.0, 21234.0, 21266.0, 21313.0, 21333.0, 21353.0, 21309.0, 21274.0, 21271.0, 21252.0, 21293.0, 21323.0, 21292.0, 21259.0, 21244.0, 21257.0, 21291.0, 21316.0, 21349.0, 21350.0, 21328.0, 21302.0, 21268.0, 21271.0, 21302.0, 21297.0, 21313.0, 21276.0, 21264.0, 21283.0, 21271.0, 21291.0, 21285.0, 21320.0, 21312.0, 21280.0, 21276.0, 21289.0, 21254.0, 21286.0, 21259.0, 21258.0, 21262.0, 21242.0, 21226.0, 21280.0, 21239.0, 21214.0, 21218.0, 21214.0, 21218.0, 21235.0, 21221.0, 21231.0, 21222.0, 21224.0, 21200.0, 21218.0, 21219.0, 21123.0, 21176.0, 21277.0, 21232.0, 21215.0, 21184.0, 21162.0, 21203.0, 21237.0, 21249.0, 21252.0, 21213.0, 21192.0, 21217.0, 21229.0, 21192.0, 21141.0, 21163.0, 21246.0, 21253.0, 21184.0, 21111.0, 21135.0, 21247.0, 21246.0, 21202.0, 21193.0, 21170.0, 21118.0]
    },
    "slices": {}
  }
}