{
  "AcquisitionMatrixPE": 104,
  "AcquisitionNumber": 1,
  "AcquisitionTime": "16:51:59.120000",
  "BandwidthPerPixelPhaseEncode": 17.17,
  "BaseResolution": 104,
  "BodyPartExamined": "BRAIN",
  "CoilString": "HC1-7;NC1_2",
  "ConsistencyInfo": "N4_VE11C_LATEST_20160120",
  "ConversionSoftware": "dcm2niix",
  "ConversionSoftwareVersion": "v1.0.20190720  (JP2:OpenJPEG) GCC7.3.0",
  "DerivedVendorReportedEchoSpacing": 0.000560011,
  "DeviceSerialNumber": "167006",
  "DwellTime": 2.1e-06,
  "EchoTime": 0.037,
  "EchoTrainLength": 104,
  "EffectiveEchoSpacing": 0.000560011,
  "FlipAngle": 52,
  "ImageComments": "Unaliased_MB4_PE3_LB",
  "ImageOrientationPatientDICOM": [0.997306, 0.0685924, 0.0259994, -0.0578536, 0.953403, -0.296102],
  "ImageType": [
    "ORIGINAL",
    "PRIMARY",
    "M",
    "MB",
    "ND",
    "MOSAIC"
],
  "ImagingFrequency": 123.259,
  "InPlanePhaseEncodingDirectionDICOM": "COL",
  "InstitutionAddress": "Chemin_Queen-Mary_4565_Montreal_District_CA_H3W_1W5",
  "InstitutionName": "IUGM",
  "InstitutionalDepartmentName": "Department",
  "MRAcquisitionType": "2D",
  "MagneticFieldStrength": 3,
  "Manufacturer": "Siemens",
  "ManufacturersModelName": "Prisma_fit",
  "Modality": "MR",
  "MultibandAccelerationFactor": 4,
  "PartialFourier": 1,
  "PatientPosition": "HFS",
  "PercentPhaseFOV": 100,
  "PhaseEncodingDirection": "j",
  "PhaseEncodingSteps": 104,
  "PhaseResolution": 1,
  "PixelBandwidth": 2290,
  "ProcedureStepDescription": "hcptrt_generic",
  "ProtocolName": "func_task-wm_run-2",
  "PulseSequenceDetails": "%CustomerSeq%_cmrr_mbep2d_bold",
  "ReceiveCoilActiveElements": "HC1-7;NC1,2",
  "ReceiveCoilName": "HeadNeck_64",
  "ReconMatrixPE": 104,
  "RepetitionTime": 1.49,
  "SAR": 0.0392749,
  "ScanOptions": "FS",
  "ScanningSequence": "EP",
  "SequenceName": "epfid2d1_104",
  "SequenceVariant": "SK_SS",
  "SeriesDescription": "func_task-wm_run-2",
  "SeriesNumber": 37,
  "ShimSetting": [619, -7208, -8824, 713, 42, -54, -51, -21],
  "SliceThickness": 2,
  "SliceTiming": [0, 0.785, 0.0975, 0.8825, 0.1975, 0.98, 0.295, 1.0775, 0.3925, 1.1775, 0.49, 1.275, 0.5875, 1.3725, 0.6875, 0, 0.785, 0.0975, 0.8825, 0.1975, 0.98, 0.295, 1.0775, 0.3925, 1.1775, 0.49, 1.275, 0.5875, 1.3725, 0.6875, 0, 0.785, 0.0975, 0.8825, 0.1975, 0.98, 0.295, 1.0775, 0.3925, 1.1775, 0.49, 1.275, 0.5875, 1.3725, 0.6875, 0, 0.785, 0.0975, 0.8825, 0.1975, 0.98, 0.295, 1.0775, 0.3925, 1.1775, 0.49, 1.275, 0.5875, 1.3725, 0.6875],
  "SoftwareVersions": "syngo_MR_E11",
  "SpacingBetweenSlices": 2,
  "StationName": "MRC35049",
  "TaskName": "wm",
  "TotalReadoutTime": 0.0576811,
  "TxRefAmp": 251.639,
  "WipMemBlock": "da1080b1-7988-4148-8ea1-1e136f58aa26||Sequence: R016 ve11c/master r/e634e98; Dec 19 2017 11:00:25 by eja",
  "dcmmeta_affine": [
    [-1.9946118593215942, -0.1157071441411972, 0.09019646048545837, 107.48059844970703],
    [-0.13718479871749878, 1.906805396080017, -0.5875996351242065, -62.41413497924805],
    [0.0519988089799881, 0.5922034382820129, 1.9096050262451172, -62.254295349121094],
    [0.0, 0.0, 0.0, 1.0]
],
  "dcmmeta_reorient_transform": [
    [0.0, -1.0, 0.0, 103.0],
    [1.0, 0.0, 0.0, 0.0],
    [0.0, 0.0, 1.0, 0.0],
    [0.0, 0.0, 0.0, 1.0]
],
  "dcmmeta_shape": [104, 104, 60, 202],
  "dcmmeta_slice_dim": 2,
  "dcmmeta_version": 0.6,
  "global": {
    "const": {
      "AcquisitionMatrix": [104, 0, 0, 104],
      "AngioFlag": "N",
      "BitsAllocated": 16,
      "BitsStored": 16,
      "BodyPartExamined": "BRAIN",
      "Columns": 832,
      "EchoNumbers": 1,
      "EchoTime": 37.0,
      "EchoTrainLength": 104,
      "FlipAngle": 52.0,
      "HighBit": 15,
      "ImageOrientationPatient": [0.99730592797451, 0.06859239765282, 0.02599940405347, -0.0578535722545, 0.95340271901818, -0.2961017047336],
      "ImagePositionPatient": [-779.4840754208, -877.99927026119, 195.3771298519],
      "ImageType": [
        "ORIGINAL",
        "PRIMARY",
        "M",
        "MB",
        "ND",
        "MOSAIC"
],
      "ImagedNucleus": "1H",
      "ImagingFrequency": 123.259442,
      "InPlanePhaseEncodingDirection": "COL",
      "MRAcquisitionType": "2D",
      "MagneticFieldStrength": 3.0,
      "Manufacturer": "SIEMENS",
      "ManufacturerModelName": "Prisma_fit",
      "Modality": "MR",
      "NumberOfAverages": 1.0,
      "NumberOfPhaseEncodingSteps": 104,
      "PercentPhaseFieldOfView": 100.0,
      "PercentSampling": 100.0,
      "PerformedProcedureStepStartTime": "151932.804000",
      "PhotometricInterpretation": "MONOCHROME2",
      "PixelBandwidth": 2290.0,
      "PixelRepresentation": 0,
      "PixelSpacing": [2.0, 2.0],
      "ProtocolName": "func_task-wm_run-2",
      "RepetitionTime": 1490.0,
      "Rows": 832,
      "SAR": 0.03927492660134,
      "SamplesPerPixel": 1,
      "ScanOptions": "FS",
      "ScanningSequence": "EP",
      "SequenceName": "epfid2d1_104",
      "SequenceVariant": [
        "SK",
        "SS"
],
      "SeriesDescription": "func_task-wm_run-2",
      "SeriesNumber": 37,
      "SeriesTime": "165301.432000",
      "SliceLocation": -36.256111094345,
      "SliceThickness": 2.0,
      "SmallestImagePixelValue": 0,
      "SoftwareVersions": "syngo MR E11",
      "SpacingBetweenSlices": 2.0000000007972,
      "SpecificCharacterSet": "ISO_IR 100",
      "StudyID": "1",
      "StudyTime": "151932.711000",
      "TransmitCoilName": "Body",
      "VariableFlipAngleFlag": "N",
      "WindowCenterWidthExplanation": "Algo1",
      "dBdt": 0.0},
    "slices": {}
  },
  "time": {
    "samples": {
      "AcquisitionNumber": [1, 2, 3, 4, 5, 6, 7, 8, 9, 10, 11, 12, 13, 14, 15, 16, 17, 18, 19, 20, 21, 22, 23, 24, 25, 26, 27, 28, 29, 30, 31, 32, 33, 34, 35, 36, 37, 38, 39, 40, 41, 42, 43, 44, 45, 46, 47, 48, 49, 50, 51, 52, 53, 54, 55, 56, 57, 58, 59, 60, 61, 62, 63, 64, 65, 66, 67, 68, 69, 70, 71, 72, 73, 74, 75, 76, 77, 78, 79, 80, 81, 82, 83, 84, 85, 86, 87, 88, 89, 90, 91, 92, 93, 94, 95, 96, 97, 98, 99, 100, 101, 102, 103, 104, 105, 106, 107, 108, 109, 110, 111, 112, 113, 114, 115, 116, 117, 118, 119, 120, 121, 122, 123, 124, 125, 126, 127, 128, 129, 130, 131, 132, 133, 134, 135, 136, 137, 138, 139, 140, 141, 142, 143, 144, 145, 146, 147, 148, 149, 150, 151, 152, 153, 154, 155, 156, 157, 158, 159, 160, 161, 162, 163, 164, 165, 166, 167, 168, 169, 170, 171, 172, 173, 174, 175, 176, 177, 178, 179, 180, 181, 182, 183, 184, 185, 186, 187, 188, 189, 190, 191, 192, 193, 194, 195, 196, 197, 198, 199, 200, 201, 202],
      "AcquisitionTime": ["165159.120000", "165200.610000", "165202.100000", "165203.590000", "165205.080000", "165206.570000", "165208.060000", "165209.550000", "165211.040000", "165212.530000", "165214.020000", "165215.510000", "165217.000000", "165218.490000", "165219.980000", "165221.470000", "165222.960000", "165224.450000", "165225.940000", "165227.430000", "165228.920000", "165230.410000", "165231.900000", "165233.390000", "165234.880000", "165236.370000", "165237.860000", "165239.350000", "165240.840000", "165242.330000", "165243.820000", "165245.310000", "165246.800000", "165248.290000", "165249.780000", "165251.270000", "165252.760000", "165254.250000", "165255.740000", "165257.230000", "165258.720000", "165300.210000", "165301.700000", "165303.190000", "165304.680000", "165306.170000", "165307.660000", "165309.150000", "165310.640000", "165312.130000", "165313.620000", "165315.110000", "165316.600000", "165318.090000", "165319.580000", "165321.070000", "165322.560000", "165324.050000", "165325.540000", "165327.030000", "165328.520000", "165330.010000", "165331.500000", "165332.990000", "165334.480000", "165335.970000", "165337.460000", "165338.950000", "165340.440000", "165341.930000", "165343.420000", "165344.910000", "165346.400000", "165347.890000", "165349.380000", "165350.870000", "165352.360000", "165353.850000", "165355.340000", "165356.830000", "165358.320000", "165359.810000", "165401.300000", "165402.790000", "165404.280000", "165405.770000", "165407.260000", "165408.750000", "165410.240000", "165411.730000", "165413.220000", "165414.710000", "165416.200000", "165417.690000", "165419.180000", "165420.670000", "165422.160000", "165423.650000", "165425.140000", "165426.630000", "165428.120000", "165429.610000", "165431.100000", "165432.590000", "165434.080000", "165435.570000", "165437.060000", "165438.550000", "165440.040000", "165441.530000", "165443.020000", "165444.510000", "165446.000000", "165447.490000", "165448.980000", "165450.470000", "165451.960000", "165453.450000", "165454.940000", "165456.430000", "165457.920000", "165459.410000", "165500.900000", "165502.390000", "165503.880000", "165505.370000", "165506.860000", "165508.350000", "165509.840000", "165511.330000", "165512.820000", "165514.310000", "165515.800000", "165517.290000", "165518.780000", "165520.270000", "165521.760000", "165523.250000", "165524.740000", "165526.230000", "165527.720000", "165529.210000", "165530.700000", "165532.190000", "165533.680000", "165535.170000", "165536.660000", "165538.150000", "165539.640000", "165541.130000", "165542.620000", "165544.110000", "165545.600000", "165547.090000", "165548.580000", "165550.070000", "165551.560000", "165553.050000", "165554.540000", "165556.030000", "165557.520000", "165559.010000", "165600.500000", "165601.990000", "165603.480000", "165604.970000", "165606.460000", "165607.950000", "165609.440000", "165610.930000", "165612.420000", "165613.910000", "165615.400000", "165616.890000", "165618.380000", "165619.870000", "165621.360000", "165622.850000", "165624.340000", "165625.830000", "165627.320000", "165628.810000", "165630.300000", "165631.790000", "165633.280000", "165634.770000", "165636.260000", "165637.750000", "165639.240000", "165640.730000", "165642.220000", "165643.710000", "165645.200000", "165646.690000", "165648.180000", "165649.670000", "165651.160000", "165652.650000", "165654.140000", "165655.630000", "165657.120000", "165658.610000"],
      "ContentTime": ["165301.435000", "165301.438000", "165301.441000", "165301.444000", "165301.447000", "165301.450000", "165321.402000", "165321.405000", "165321.411000", "165321.414000", "165321.417000", "165321.419000", "165321.422000", "165321.425000", "165321.428000", "165321.431000", "165321.434000", "165321.437000", "165321.440000", "165321.443000", "165321.446000", "165321.448000", "165321.451000", "165321.454000", "165321.457000", "165321.460000", "165321.463000", "165341.403000", "165341.406000", "165341.409000", "165341.412000", "165341.415000", "165341.418000", "165341.420000", "165341.423000", "165341.426000", "165341.429000", "165341.432000", "165341.435000", "165341.438000", "165341.441000", "165341.444000", "165341.447000", "165341.450000", "165341.453000", "165341.456000", "165341.458000", "165401.403000", "165401.406000", "165401.409000", "165401.412000", "165401.415000", "165401.426000", "165401.429000", "165401.432000", "165401.435000", "165401.438000", "165401.446000", "165401.449000", "165401.452000", "165401.454000", "165401.457000", "165401.460000", "165401.463000", "165401.466000", "165401.469000", "165401.472000", "165421.403000", "165421.406000", "165421.410000", "165421.413000", "165421.416000", "165421.419000", "165421.422000", "165421.426000", "165421.429000", "165421.431000", "165421.435000", "165421.438000", "165421.441000", "165421.444000", "165421.447000", "165421.451000", "165421.454000", "165421.457000", "165421.460000", "165421.463000", "165441.402000", "165441.405000", "165441.408000", "165441.411000", "165441.414000", "165441.417000", "165441.420000", "165441.423000", "165441.426000", "165441.428000", "165441.431000", "165441.434000", "165441.437000", "165441.440000", "165441.443000", "165441.446000", "165441.449000", "165441.452000", "165441.455000", "165441.458000", "165521.402000", "165521.405000", "165521.408000", "165521.411000", "165521.414000", "165521.417000", "165521.420000", "165521.423000", "165521.426000", "165521.428000", "165521.431000", "165521.434000", "165521.437000", "165521.440000", "165521.443000", "165521.446000", "165521.449000", "165521.452000", "165521.455000", "165521.458000", "165521.461000", "165521.463000", "165521.466000", "165521.469000", "165521.472000", "165521.475000", "165521.478000", "165521.481000", "165601.403000", "165601.406000", "165601.409000", "165601.412000", "165601.415000", "165601.418000", "165601.421000", "165601.424000", "165601.427000", "165601.430000", "165601.433000", "165601.436000", "165601.438000", "165601.441000", "165601.444000", "165601.447000", "165601.450000", "165601.453000", "165601.456000", "165601.459000", "165601.462000", "165601.465000", "165601.468000", "165601.471000", "165601.474000", "165601.477000", "165601.480000", "165641.403000", "165641.406000", "165641.409000", "165641.412000", "165641.415000", "165641.418000", "165641.421000", "165641.424000", "165641.427000", "165641.430000", "165641.433000", "165641.436000", "165641.439000", "165641.442000", "165641.445000", "165641.448000", "165641.450000", "165641.453000", "165641.456000", "165641.459000", "165641.462000", "165641.465000", "165641.468000", "165641.471000", "165641.474000", "165641.477000", "165641.480000", "165700.806000", "165700.809000", "165700.812000", "165700.815000", "165700.818000", "165700.821000", "165700.824000", "165700.827000", "165700.830000", "165700.833000", "165700.835000", "165700.839000", "165700.841000"],
      "InstanceCreationTime": ["165301.435000", "165301.438000", "165301.441000", "165301.444000", "165301.447000", "165301.450000", "165321.402000", "165321.405000", "165321.411000", "165321.414000", "165321.417000", "165321.419000", "165321.422000", "165321.425000", "165321.428000", "165321.431000", "165321.434000", "165321.437000", "165321.440000", "165321.443000", "165321.446000", "165321.448000", "165321.451000", "165321.454000", "165321.457000", "165321.460000", "165321.463000", "165341.403000", "165341.406000", "165341.409000", "165341.412000", "165341.415000", "165341.418000", "165341.420000", "165341.423000", "165341.426000", "165341.429000", "165341.432000", "165341.435000", "165341.438000", "165341.441000", "165341.444000", "165341.447000", "165341.450000", "165341.453000", "165341.456000", "165341.458000", "165401.403000", "165401.406000", "165401.409000", "165401.412000", "165401.415000", "165401.426000", "165401.429000", "165401.432000", "165401.435000", "165401.438000", "165401.446000", "165401.449000", "165401.452000", "165401.454000", "165401.457000", "165401.460000", "165401.463000", "165401.466000", "165401.469000", "165401.472000", "165421.403000", "165421.406000", "165421.410000", "165421.413000", "165421.416000", "165421.419000", "165421.422000", "165421.426000", "165421.429000", "165421.431000", "165421.435000", "165421.438000", "165421.441000", "165421.444000", "165421.447000", "165421.451000", "165421.454000", "165421.457000", "165421.460000", "165421.463000", "165441.402000", "165441.405000", "165441.408000", "165441.411000", "165441.414000", "165441.417000", "165441.420000", "165441.423000", "165441.426000", "165441.428000", "165441.431000", "165441.434000", "165441.437000", "165441.440000", "165441.443000", "165441.446000", "165441.449000", "165441.452000", "165441.455000", "165441.458000", "165521.402000", "165521.405000", "165521.408000", "165521.411000", "165521.414000", "165521.417000", "165521.420000", "165521.423000", "165521.426000", "165521.428000", "165521.431000", "165521.434000", "165521.437000", "165521.440000", "165521.443000", "165521.446000", "165521.449000", "165521.452000", "165521.455000", "165521.458000", "165521.461000", "165521.463000", "165521.466000", "165521.469000", "165521.472000", "165521.475000", "165521.478000", "165521.481000", "165601.403000", "165601.406000", "165601.409000", "165601.412000", "165601.415000", "165601.418000", "165601.421000", "165601.424000", "165601.427000", "165601.430000", "165601.433000", "165601.436000", "165601.438000", "165601.441000", "165601.444000", "165601.447000", "165601.450000", "165601.453000", "165601.456000", "165601.459000", "165601.462000", "165601.465000", "165601.468000", "165601.471000", "165601.474000", "165601.477000", "165601.480000", "165641.403000", "165641.406000", "165641.409000", "165641.412000", "165641.415000", "165641.418000", "165641.421000", "165641.424000", "165641.427000", "165641.430000", "165641.433000", "165641.436000", "165641.439000", "165641.442000", "165641.445000", "165641.448000", "165641.450000", "165641.453000", "165641.456000", "165641.459000", "165641.462000", "165641.465000", "165641.468000", "165641.471000", "165641.474000", "165641.477000", "165641.480000", "165700.806000", "165700.809000", "165700.812000", "165700.815000", "165700.818000", "165700.821000", "165700.824000", "165700.827000", "165700.830000", "165700.833000", "165700.835000", "165700.839000", "165700.841000"],
      "InstanceNumber": [1, 2, 3, 4, 5, 6, 7, 8, 9, 10, 11, 12, 13, 14, 15, 16, 17, 18, 19, 20, 21, 22, 23, 24, 25, 26, 27, 28, 29, 30, 31, 32, 33, 34, 35, 36, 37, 38, 39, 40, 41, 42, 43, 44, 45, 46, 47, 48, 49, 50, 51, 52, 53, 54, 55, 56, 57, 58, 59, 60, 61, 62, 63, 64, 65, 66, 67, 68, 69, 70, 71, 72, 73, 74, 75, 76, 77, 78, 79, 80, 81, 82, 83, 84, 85, 86, 87, 88, 89, 90, 91, 92, 93, 94, 95, 96, 97, 98, 99, 100, 101, 102, 103, 104, 105, 106, 107, 108, 109, 110, 111, 112, 113, 114, 115, 116, 117, 118, 119, 120, 121, 122, 123, 124, 125, 126, 127, 128, 129, 130, 131, 132, 133, 134, 135, 136, 137, 138, 139, 140, 141, 142, 143, 144, 145, 146, 147, 148, 149, 150, 151, 152, 153, 154, 155, 156, 157, 158, 159, 160, 161, 162, 163, 164, 165, 166, 167, 168, 169, 170, 171, 172, 173, 174, 175, 176, 177, 178, 179, 180, 181, 182, 183, 184, 185, 186, 187, 188, 189, 190, 191, 192, 193, 194, 195, 196, 197, 198, 199, 200, 201, 202],
      "LargestImagePixelValue": [45183, 43918, 43621, 43221, 42839, 42616, 41972, 42359, 42946, 42280, 42675, 42317, 42190, 42594, 42782, 43037, 42946, 42453, 42372, 42423, 42738, 42298, 41818, 42662, 42709, 42119, 43045, 42599, 42830, 42846, 42546, 43254, 42581, 42875, 42473, 42549, 43205, 42746, 43311, 43096, 43175, 43432, 43242, 43420, 43078, 43099, 43006, 42955, 43041, 43303, 42672, 42093, 39275, 39430, 38848, 39395, 39562, 39886, 40372, 40615, 41188, 40899, 40127, 41046, 41095, 40898, 40821, 39981, 41039, 41100, 41314, 41306, 40148, 40920, 40952, 40574, 41434, 41158, 41392, 41450, 41114, 41922, 41359, 42295, 42390, 42661, 42656, 41594, 41963, 40916, 42431, 42023, 41613, 41956, 41747, 42351, 41861, 41874, 41845, 41408, 41743, 41725, 40946, 42221, 41881, 41102, 41609, 41508, 41784, 41691, 41698, 42057, 40973, 42065, 42032, 42223, 42672, 41362, 42398, 41311, 41537, 40871, 39971, 39541, 40953, 40586, 40285, 40793, 41089, 40785, 41269, 41070, 39997, 40090, 40587, 39713, 40257, 41074, 40615, 41522, 40609, 40564, 40619, 40655, 40936, 41023, 41083, 41129, 41116, 40321, 41698, 41213, 39362, 40929, 39782, 39670, 40028, 40363, 40539, 39771, 40659, 40478, 40099, 40892, 40368, 40687, 40866, 40452, 40956, 41135, 41134, 40129, 40472, 40074, 40719, 40670, 40038, 41403, 41076, 41268, 40768, 40354, 41350, 40385, 41073, 41153, 40242, 41180, 40858, 40948, 41335, 40381, 41471, 40368, 39996, 40335, 38837, 42033, 41215, 40689, 40839, 41126],
      "WindowCenter": [10190.0, 10139.0, 10127.0, 10128.0, 10102.0, 10098.0, 10082.0, 10091.0, 10125.0, 10130.0, 10127.0, 10121.0, 10100.0, 10090.0, 10113.0, 10116.0, 10125.0, 10119.0, 10113.0, 10098.0, 10086.0, 10096.0, 10100.0, 10108.0, 10109.0, 10099.0, 10104.0, 10103.0, 10109.0, 10132.0, 10128.0, 10125.0, 10118.0, 10109.0, 10112.0, 10111.0, 10124.0, 10125.0, 10116.0, 10114.0, 10104.0, 10119.0, 10123.0, 10136.0, 10140.0, 10117.0, 10116.0, 10109.0, 10114.0, 10106.0, 10092.0, 10104.0, 10077.0, 10078.0, 10070.0, 10073.0, 10080.0, 10062.0, 10066.0, 10084.0, 10100.0, 10109.0, 10109.0, 10101.0, 10101.0, 10086.0, 10073.0, 10085.0, 10092.0, 10093.0, 10080.0, 10072.0, 10051.0, 10058.0, 10079.0, 10091.0, 10099.0, 10106.0, 10089.0, 10088.0, 10079.0, 10083.0, 10090.0, 10101.0, 10118.0, 10116.0, 10117.0, 10095.0, 10086.0, 10073.0, 10089.0, 10103.0, 10106.0, 10105.0, 10098.0, 10087.0, 10088.0, 10090.0, 10107.0, 10094.0, 10079.0, 10081.0, 10075.0, 10092.0, 10107.0, 10095.0, 10099.0, 10097.0, 10086.0, 10088.0, 10094.0, 10105.0, 10102.0, 10103.0, 10115.0, 10102.0, 10102.0, 10082.0, 10082.0, 10078.0, 10081.0, 10084.0, 10090.0, 10086.0, 10086.0, 10078.0, 10063.0, 10044.0, 10063.0, 10094.0, 10107.0, 10102.0, 10079.0, 10052.0, 10061.0, 10054.0, 10068.0, 10090.0, 10094.0, 10088.0, 10074.0, 10074.0, 10080.0, 10095.0, 10087.0, 10086.0, 10086.0, 10086.0, 10086.0, 10078.0, 10089.0, 10102.0, 10076.0, 10083.0, 10075.0, 10065.0, 10048.0, 10054.0, 10071.0, 10057.0, 10059.0, 10068.0, 10058.0, 10052.0, 10049.0, 10051.0, 10075.0, 10070.0, 10064.0, 10082.0, 10093.0, 10064.0, 10051.0, 10043.0, 10047.0, 10059.0, 10063.0, 10082.0, 10085.0, 10081.0, 10073.0, 10067.0, 10080.0, 10079.0, 10093.0, 10099.0, 10086.0, 10091.0, 10097.0, 10103.0, 10111.0, 10084.0, 10085.0, 10066.0, 10055.0, 10081.0, 10089.0, 10116.0, 10104.0, 10067.0, 10063.0, 10072.0],
      "WindowWidth": [21548.0, 21422.0, 21383.0, 21386.0, 21320.0, 21306.0, 21275.0, 21294.0, 21371.0, 21380.0, 21371.0, 21359.0, 21310.0, 21286.0, 21342.0, 21347.0, 21365.0, 21353.0, 21347.0, 21308.0, 21277.0, 21304.0, 21316.0, 21328.0, 21333.0, 21310.0, 21318.0, 21324.0, 21333.0, 21383.0, 21375.0, 21368.0, 21352.0, 21330.0, 21343.0, 21336.0, 21364.0, 21366.0, 21346.0, 21340.0, 21317.0, 21348.0, 21362.0, 21387.0, 21404.0, 21347.0, 21347.0, 21334.0, 21344.0, 21325.0, 21297.0, 21326.0, 21279.0, 21277.0, 21261.0, 21262.0, 21277.0, 21234.0, 21241.0, 21286.0, 21319.0, 21340.0, 21348.0, 21318.0, 21321.0, 21290.0, 21256.0, 21288.0, 21304.0, 21305.0, 21269.0, 21256.0, 21214.0, 21217.0, 21267.0, 21296.0, 21314.0, 21330.0, 21286.0, 21289.0, 21269.0, 21276.0, 21297.0, 21315.0, 21353.0, 21342.0, 21346.0, 21301.0, 21281.0, 21256.0, 21283.0, 21320.0, 21329.0, 21322.0, 21309.0, 21284.0, 21293.0, 21298.0, 21343.0, 21318.0, 21270.0, 21276.0, 21262.0, 21293.0, 21333.0, 21306.0, 21311.0, 21304.0, 21277.0, 21286.0, 21298.0, 21324.0, 21320.0, 21318.0, 21348.0, 21312.0, 21315.0, 21277.0, 21267.0, 21265.0, 21274.0, 21280.0, 21300.0, 21291.0, 21283.0, 21267.0, 21238.0, 21186.0, 21232.0, 21310.0, 21329.0, 21320.0, 21270.0, 21208.0, 21222.0, 21220.0, 21250.0, 21294.0, 21304.0, 21284.0, 21259.0, 21258.0, 21279.0, 21311.0, 21289.0, 21288.0, 21291.0, 21293.0, 21289.0, 21272.0, 21286.0, 21321.0, 21270.0, 21275.0, 21266.0, 21240.0, 21202.0, 21217.0, 21255.0, 21227.0, 21221.0, 21246.0, 21230.0, 21213.0, 21201.0, 21208.0, 21260.0, 21254.0, 21232.0, 21273.0, 21298.0, 21237.0, 21207.0, 21191.0, 21195.0, 21223.0, 21237.0, 21273.0, 21283.0, 21270.0, 21254.0, 21243.0, 21271.0, 21276.0, 21300.0, 21313.0, 21287.0, 21295.0, 21319.0, 21326.0, 21345.0, 21289.0, 21282.0, 21248.0, 21219.0, 21280.0, 21316.0, 21387.0, 21351.0, 21245.0, 21232.0, 21251.0]
    },
    "slices": {}
  }
}