{
  "AcquisitionMatrixPE": 104,
  "AcquisitionNumber": 1,
  "AcquisitionTime": "16:38:41.137500",
  "BandwidthPerPixelPhaseEncode": 17.17,
  "BaseResolution": 104,
  "BodyPartExamined": "BRAIN",
  "CoilString": "HC1-7;NC1_2",
  "ConsistencyInfo": "N4_VE11C_LATEST_20160120",
  "ConversionSoftware": "dcm2niix",
  "ConversionSoftwareVersion": "v1.0.20190720  (JP2:OpenJPEG) GCC7.3.0",
  "DerivedVendorReportedEchoSpacing": 0.000560011,
  "DeviceSerialNumber": "167006",
  "DwellTime": 2.1e-06,
  "EchoTime": 0.037,
  "EchoTrainLength": 104,
  "EffectiveEchoSpacing": 0.000560011,
  "FlipAngle": 52,
  "ImageComments": "Unaliased_MB4_PE3_LB",
  "ImageOrientationPatientDICOM": [0.997306, 0.0685924, 0.0259994, -0.0578536, 0.953403, -0.296102],
  "ImageType": [
    "ORIGINAL",
    "PRIMARY",
    "M",
    "MB",
    "ND",
    "MOSAIC"
],
  "ImagingFrequency": 123.259,
  "InPlanePhaseEncodingDirectionDICOM": "COL",
  "InstitutionAddress": "Chemin_Queen-Mary_4565_Montreal_District_CA_H3W_1W5",
  "InstitutionName": "IUGM",
  "InstitutionalDepartmentName": "Department",
  "MRAcquisitionType": "2D",
  "MagneticFieldStrength": 3,
  "Manufacturer": "Siemens",
  "ManufacturersModelName": "Prisma_fit",
  "Modality": "MR",
  "MultibandAccelerationFactor": 4,
  "PartialFourier": 1,
  "PatientPosition": "HFS",
  "PercentPhaseFOV": 100,
  "PhaseEncodingDirection": "j",
  "PhaseEncodingSteps": 104,
  "PhaseResolution": 1,
  "PixelBandwidth": 2290,
  "ProcedureStepDescription": "hcptrt_generic",
  "ProtocolName": "func_task-social_run-2",
  "PulseSequenceDetails": "%CustomerSeq%_cmrr_mbep2d_bold",
  "ReceiveCoilActiveElements": "HC1-7;NC1,2",
  "ReceiveCoilName": "HeadNeck_64",
  "ReconMatrixPE": 104,
  "RepetitionTime": 1.49,
  "SAR": 0.039109,
  "ScanOptions": "FS",
  "ScanningSequence": "EP",
  "SequenceName": "epfid2d1_104",
  "SequenceVariant": "SK_SS",
  "SeriesDescription": "func_task-social_run-2",
  "SeriesNumber": 31,
  "ShimSetting": [619, -7208, -8824, 713, 42, -54, -51, -21],
  "SliceThickness": 2,
  "SliceTiming": [0, 0.785, 0.1, 0.8825, 0.1975, 0.98, 0.295, 1.08, 0.3925, 1.1775, 0.49, 1.275, 0.59, 1.3725, 0.6875, 0, 0.785, 0.1, 0.8825, 0.1975, 0.98, 0.295, 1.08, 0.3925, 1.1775, 0.49, 1.275, 0.59, 1.3725, 0.6875, 0, 0.785, 0.1, 0.8825, 0.1975, 0.98, 0.295, 1.08, 0.3925, 1.1775, 0.49, 1.275, 0.59, 1.3725, 0.6875, 0, 0.785, 0.1, 0.8825, 0.1975, 0.98, 0.295, 1.08, 0.3925, 1.1775, 0.49, 1.275, 0.59, 1.3725, 0.6875],
  "SoftwareVersions": "syngo_MR_E11",
  "SpacingBetweenSlices": 2,
  "StationName": "MRC35049",
  "TaskName": "social",
  "TotalReadoutTime": 0.0576811,
  "TxRefAmp": 251.639,
  "WipMemBlock": "20b0e2a3-99d0-4227-a267-dd6a6f277f73||Sequence: R016 ve11c/master r/e634e98; Dec 19 2017 11:00:25 by eja",
  "dcmmeta_affine": [
    [-1.9946118593215942, -0.1157071441411972, 0.09019646048545837, 107.48059844970703],
    [-0.13718479871749878, 1.906805396080017, -0.5875996351242065, -62.41413497924805],
    [0.0519988089799881, 0.5922034382820129, 1.9096050262451172, -62.254295349121094],
    [0.0, 0.0, 0.0, 1.0]
],
  "dcmmeta_reorient_transform": [
    [0.0, -1.0, 0.0, 103.0],
    [1.0, 0.0, 0.0, 0.0],
    [0.0, 0.0, 1.0, 0.0],
    [0.0, 0.0, 0.0, 1.0]
],
  "dcmmeta_shape": [104, 104, 60, 139],
  "dcmmeta_slice_dim": 2,
  "dcmmeta_version": 0.6,
  "global": {
    "const": {
      "AcquisitionMatrix": [104, 0, 0, 104],
      "AngioFlag": "N",
      "BitsAllocated": 16,
      "BitsStored": 16,
      "BodyPartExamined": "BRAIN",
      "Columns": 832,
      "EchoNumbers": 1,
      "EchoTime": 37.0,
      "EchoTrainLength": 104,
      "FlipAngle": 52.0,
      "HighBit": 15,
      "ImageOrientationPatient": [0.99730592797451, 0.06859239765282, 0.02599940405347, -0.0578535722545, 0.95340271901818, -0.2961017047336],
      "ImagePositionPatient": [-779.4840754208, -877.99927026119, 195.3771298519],
      "ImageType": [
        "ORIGINAL",
        "PRIMARY",
        "M",
        "MB",
        "ND",
        "MOSAIC"
],
      "ImagedNucleus": "1H",
      "ImagingFrequency": 123.259437,
      "InPlanePhaseEncodingDirection": "COL",
      "MRAcquisitionType": "2D",
      "MagneticFieldStrength": 3.0,
      "Manufacturer": "SIEMENS",
      "ManufacturerModelName": "Prisma_fit",
      "Modality": "MR",
      "NumberOfAverages": 1.0,
      "NumberOfPhaseEncodingSteps": 104,
      "PercentPhaseFieldOfView": 100.0,
      "PercentSampling": 100.0,
      "PerformedProcedureStepStartTime": "151932.804000",
      "PhotometricInterpretation": "MONOCHROME2",
      "PixelBandwidth": 2290.0,
      "PixelRepresentation": 0,
      "PixelSpacing": [2.0, 2.0],
      "ProtocolName": "func_task-social_run-2",
      "RepetitionTime": 1490.0,
      "Rows": 832,
      "SAR": 0.03910901880908,
      "SamplesPerPixel": 1,
      "ScanOptions": "FS",
      "ScanningSequence": "EP",
      "SequenceName": "epfid2d1_104",
      "SequenceVariant": [
        "SK",
        "SS"
],
      "SeriesDescription": "func_task-social_run-2",
      "SeriesNumber": 31,
      "SeriesTime": "164001.429000",
      "SliceLocation": -36.256111094345,
      "SliceThickness": 2.0,
      "SmallestImagePixelValue": 0,
      "SoftwareVersions": "syngo MR E11",
      "SpacingBetweenSlices": 2.0000000007972,
      "SpecificCharacterSet": "ISO_IR 100",
      "StudyID": "1",
      "StudyTime": "151932.711000",
      "TransmitCoilName": "Body",
      "VariableFlipAngleFlag": "N",
      "WindowCenterWidthExplanation": "Algo1",
      "dBdt": 0.0},
    "slices": {}
  },
  "time": {
    "samples": {
      "AcquisitionNumber": [1, 2, 3, 4, 5, 6, 7, 8, 9, 10, 11, 12, 13, 14, 15, 16, 17, 18, 19, 20, 21, 22, 23, 24, 25, 26, 27, 28, 29, 30, 31, 32, 33, 34, 35, 36, 37, 38, 39, 40, 41, 42, 43, 44, 45, 46, 47, 48, 49, 50, 51, 52, 53, 54, 55, 56, 57, 58, 59, 60, 61, 62, 63, 64, 65, 66, 67, 68, 69, 70, 71, 72, 73, 74, 75, 76, 77, 78, 79, 80, 81, 82, 83, 84, 85, 86, 87, 88, 89, 90, 91, 92, 93, 94, 95, 96, 97, 98, 99, 100, 101, 102, 103, 104, 105, 106, 107, 108, 109, 110, 111, 112, 113, 114, 115, 116, 117, 118, 119, 120, 121, 122, 123, 124, 125, 126, 127, 128, 129, 130, 131, 132, 133, 134, 135, 136, 137, 138, 139],
      "AcquisitionTime": ["163841.137500", "163842.627500", "163844.117500", "163845.607500", "163847.097500", "163848.587500", "163850.077500", "163851.567500", "163853.057500", "163854.547500", "163856.037500", "163857.527500", "163859.017500", "163900.507500", "163901.997500", "163903.487500", "163904.977500", "163906.467500", "163907.957500", "163909.447500", "163910.937500", "163912.427500", "163913.917500", "163915.407500", "163916.897500", "163918.387500", "163919.877500", "163921.367500", "163922.857500", "163924.347500", "163925.837500", "163927.327500", "163928.817500", "163930.307500", "163931.797500", "163933.287500", "163934.777500", "163936.267500", "163937.757500", "163939.247500", "163940.737500", "163942.227500", "163943.717500", "163945.207500", "163946.697500", "163948.187500", "163949.677500", "163951.167500", "163952.657500", "163954.147500", "163955.637500", "163957.127500", "163958.617500", "164000.107500", "164001.597500", "164003.087500", "164004.577500", "164006.067500", "164007.557500", "164009.047500", "164010.537500", "164012.027500", "164013.517500", "164015.007500", "164016.497500", "164017.987500", "164019.477500", "164020.967500", "164022.457500", "164023.947500", "164025.437500", "164026.927500", "164028.417500", "164029.907500", "164031.397500", "164032.887500", "164034.377500", "164035.867500", "164037.357500", "164038.847500", "164040.337500", "164041.827500", "164043.317500", "164044.807500", "164046.297500", "164047.787500", "164049.277500", "164050.767500", "164052.257500", "164053.747500", "164055.237500", "164056.727500", "164058.217500", "164059.707500", "164101.197500", "164102.687500", "164104.177500", "164105.667500", "164107.157500", "164108.647500", "164110.137500", "164111.627500", "164113.117500", "164114.607500", "164116.097500", "164117.587500", "164119.077500", "164120.567500", "164122.057500", "164123.547500", "164125.037500", "164126.527500", "164128.017500", "164129.507500", "164130.997500", "164132.487500", "164133.977500", "164135.467500", "164136.957500", "164138.447500", "164139.937500", "164141.427500", "164142.917500", "164144.407500", "164145.897500", "164147.387500", "164148.877500", "164150.367500", "164151.857500", "164153.347500", "164154.837500", "164156.327500", "164157.817500", "164159.307500", "164200.797500", "164202.287500", "164203.777500", "164205.267500", "164206.757500"],
      "ContentTime": ["164001.432000", "164001.442000", "164001.445000", "164001.448000", "164001.451000", "164001.454000", "164001.458000", "164001.461000", "164001.464000", "164001.467000", "164001.469000", "164001.472000", "164001.475000", "164001.478000", "164001.481000", "164001.484000", "164001.487000", "164001.490000", "164001.501000", "164001.504000", "164001.507000", "164001.510000", "164001.513000", "164001.516000", "164021.403000", "164021.406000", "164021.409000", "164021.413000", "164021.416000", "164021.419000", "164021.422000", "164021.425000", "164021.428000", "164021.431000", "164021.434000", "164021.437000", "164021.440000", "164021.442000", "164021.445000", "164021.448000", "164021.451000", "164021.454000", "164021.457000", "164021.460000", "164041.403000", "164041.406000", "164041.409000", "164041.412000", "164041.415000", "164041.418000", "164041.421000", "164041.423000", "164041.426000", "164041.429000", "164041.432000", "164041.435000", "164041.447000", "164041.450000", "164041.453000", "164041.456000", "164041.459000", "164041.462000", "164041.465000", "164041.468000", "164101.402000", "164101.405000", "164101.408000", "164101.411000", "164101.414000", "164101.417000", "164101.420000", "164101.422000", "164101.425000", "164101.428000", "164101.431000", "164101.434000", "164101.437000", "164101.440000", "164101.450000", "164101.463000", "164101.466000", "164101.469000", "164101.472000", "164101.475000", "164121.402000", "164121.405000", "164121.408000", "164121.411000", "164121.414000", "164121.417000", "164121.420000", "164121.423000", "164121.426000", "164121.428000", "164121.431000", "164121.434000", "164121.437000", "164121.440000", "164121.443000", "164121.446000", "164121.449000", "164121.452000", "164121.455000", "164121.458000", "164201.403000", "164201.406000", "164201.409000", "164201.412000", "164201.415000", "164201.418000", "164201.421000", "164201.424000", "164201.426000", "164201.429000", "164201.432000", "164201.435000", "164201.438000", "164201.441000", "164201.444000", "164201.447000", "164201.455000", "164201.457000", "164201.460000", "164201.463000", "164201.466000", "164201.469000", "164201.472000", "164201.475000", "164201.478000", "164201.481000", "164201.484000", "164201.487000", "164201.489000", "164201.492000", "164208.868000", "164208.871000", "164208.874000", "164208.877000", "164208.880000"],
      "InstanceCreationTime": ["164001.432000", "164001.442000", "164001.445000", "164001.448000", "164001.451000", "164001.454000", "164001.458000", "164001.461000", "164001.464000", "164001.467000", "164001.469000", "164001.472000", "164001.475000", "164001.478000", "164001.481000", "164001.484000", "164001.487000", "164001.490000", "164001.501000", "164001.504000", "164001.507000", "164001.510000", "164001.513000", "164001.516000", "164021.403000", "164021.406000", "164021.409000", "164021.413000", "164021.416000", "164021.419000", "164021.422000", "164021.425000", "164021.428000", "164021.431000", "164021.434000", "164021.437000", "164021.440000", "164021.442000", "164021.445000", "164021.448000", "164021.451000", "164021.454000", "164021.457000", "164021.460000", "164041.403000", "164041.406000", "164041.409000", "164041.412000", "164041.415000", "164041.418000", "164041.421000", "164041.423000", "164041.426000", "164041.429000", "164041.432000", "164041.435000", "164041.447000", "164041.450000", "164041.453000", "164041.456000", "164041.459000", "164041.462000", "164041.465000", "164041.468000", "164101.402000", "164101.405000", "164101.408000", "164101.411000", "164101.414000", "164101.417000", "164101.420000", "164101.422000", "164101.425000", "164101.428000", "164101.431000", "164101.434000", "164101.437000", "164101.440000", "164101.450000", "164101.463000", "164101.466000", "164101.469000", "164101.472000", "164101.475000", "164121.402000", "164121.405000", "164121.408000", "164121.411000", "164121.414000", "164121.417000", "164121.420000", "164121.423000", "164121.426000", "164121.428000", "164121.431000", "164121.434000", "164121.437000", "164121.440000", "164121.443000", "164121.446000", "164121.449000", "164121.452000", "164121.455000", "164121.458000", "164201.403000", "164201.406000", "164201.409000", "164201.412000", "164201.415000", "164201.418000", "164201.421000", "164201.424000", "164201.426000", "164201.429000", "164201.432000", "164201.435000", "164201.438000", "164201.441000", "164201.444000", "164201.447000", "164201.455000", "164201.457000", "164201.460000", "164201.463000", "164201.466000", "164201.469000", "164201.472000", "164201.475000", "164201.478000", "164201.481000", "164201.484000", "164201.487000", "164201.489000", "164201.492000", "164208.868000", "164208.871000", "164208.874000", "164208.877000", "164208.880000"],
      "InstanceNumber": [1, 2, 3, 4, 5, 6, 7, 8, 9, 10, 11, 12, 13, 14, 15, 16, 17, 18, 19, 20, 21, 22, 23, 24, 25, 26, 27, 28, 29, 30, 31, 32, 33, 34, 35, 36, 37, 38, 39, 40, 41, 42, 43, 44, 45, 46, 47, 48, 49, 50, 51, 52, 53, 54, 55, 56, 57, 58, 59, 60, 61, 62, 63, 64, 65, 66, 67, 68, 69, 70, 71, 72, 73, 74, 75, 76, 77, 78, 79, 80, 81, 82, 83, 84, 85, 86, 87, 88, 89, 90, 91, 92, 93, 94, 95, 96, 97, 98, 99, 100, 101, 102, 103, 104, 105, 106, 107, 108, 109, 110, 111, 112, 113, 114, 115, 116, 117, 118, 119, 120, 121, 122, 123, 124, 125, 126, 127, 128, 129, 130, 131, 132, 133, 134, 135, 136, 137, 138, 139],
      "LargestImagePixelValue": [41559, 40580, 39872, 39897, 39249, 40099, 40391, 38944, 39316, 39549, 39814, 39280, 39633, 40487, 40272, 39262, 40234, 40352, 39189, 39385, 39902, 39381, 39321, 40377, 39250, 39664, 40095, 39621, 39478, 40324, 40101, 39140, 40355, 40118, 39547, 39786, 39854, 39654, 39718, 40423, 39923, 39949, 40755, 39779, 40788, 39805, 40572, 40457, 40006, 39767, 41040, 40226, 40299, 40599, 40028, 40151, 39682, 39738, 40226, 39526, 39972, 40178, 39825, 40019, 40009, 39399, 39558, 39968, 39745, 39903, 39564, 39136, 40149, 40968, 39903, 40185, 40375, 39592, 39920, 39635, 39395, 40830, 39920, 39412, 40230, 39394, 39712, 39775, 39226, 39601, 39549, 38925, 40428, 39270, 39573, 39666, 39754, 39969, 39704, 40150, 38732, 39146, 38651, 39746, 39868, 39438, 39826, 39725, 39135, 39610, 39007, 38954, 38655, 38995, 38847, 38915, 39119, 40138, 38363, 38765, 39160, 38888, 39127, 38834, 38708, 39074, 38634, 39038, 39244, 38936, 38842, 38810, 38722, 38966, 39239, 38579, 38692, 39521, 38669],
      "WindowCenter": [10168.0, 10123.0, 10096.0, 10084.0, 10084.0, 10107.0, 10110.0, 10083.0, 10089.0, 10087.0, 10075.0, 10073.0, 10123.0, 10164.0, 10141.0, 10110.0, 10103.0, 10081.0, 10054.0, 10077.0, 10091.0, 10071.0, 10063.0, 10079.0, 10062.0, 10077.0, 10093.0, 10078.0, 10083.0, 10093.0, 10087.0, 10077.0, 10093.0, 10085.0, 10083.0, 10084.0, 10081.0, 10074.0, 10100.0, 10118.0, 10111.0, 10112.0, 10117.0, 10104.0, 10122.0, 10105.0, 10114.0, 10119.0, 10111.0, 10113.0, 10131.0, 10112.0, 10112.0, 10117.0, 10097.0, 10105.0, 10089.0, 10084.0, 10091.0, 10079.0, 10091.0, 10100.0, 10095.0, 10109.0, 10093.0, 10076.0, 10074.0, 10081.0, 10083.0, 10100.0, 10092.0, 10077.0, 10106.0, 10131.0, 10119.0, 10120.0, 10112.0, 10079.0, 10075.0, 10073.0, 10075.0, 10102.0, 10084.0, 10072.0, 10088.0, 10076.0, 10086.0, 10096.0, 10080.0, 10087.0, 10082.0, 10064.0, 10073.0, 10060.0, 10074.0, 10084.0, 10094.0, 10092.0, 10106.0, 10106.0, 10084.0, 10074.0, 10060.0, 10058.0, 10075.0, 10080.0, 10099.0, 10116.0, 10096.0, 10089.0, 10083.0, 10073.0, 10056.0, 10063.0, 10075.0, 10081.0, 10090.0, 10094.0, 10066.0, 10072.0, 10081.0, 10082.0, 10100.0, 10103.0, 10106.0, 10112.0, 10096.0, 10085.0, 10082.0, 10074.0, 10077.0, 10086.0, 10076.0, 10085.0, 10092.0, 10087.0, 10095.0, 10098.0, 10066.0],
      "WindowWidth": [21519.0, 21401.0, 21332.0, 21298.0, 21298.0, 21343.0, 21352.0, 21295.0, 21308.0, 21300.0, 21271.0, 21265.0, 21388.0, 21472.0, 21419.0, 21353.0, 21333.0, 21283.0, 21231.0, 21281.0, 21305.0, 21264.0, 21247.0, 21276.0, 21246.0, 21282.0, 21316.0, 21281.0, 21301.0, 21314.0, 21300.0, 21286.0, 21312.0, 21293.0, 21288.0, 21290.0, 21281.0, 21267.0, 21329.0, 21368.0, 21352.0, 21357.0, 21367.0, 21342.0, 21376.0, 21344.0, 21361.0, 21375.0, 21357.0, 21363.0, 21396.0, 21357.0, 21357.0, 21367.0, 21327.0, 21347.0, 21309.0, 21295.0, 21310.0, 21284.0, 21307.0, 21330.0, 21318.0, 21347.0, 21314.0, 21274.0, 21272.0, 21285.0, 21291.0, 21329.0, 21312.0, 21281.0, 21343.0, 21398.0, 21372.0, 21378.0, 21356.0, 21282.0, 21273.0, 21266.0, 21276.0, 21330.0, 21294.0, 21274.0, 21299.0, 21274.0, 21298.0, 21324.0, 21286.0, 21301.0, 21284.0, 21259.0, 21270.0, 21244.0, 21273.0, 21297.0, 21316.0, 21307.0, 21347.0, 21346.0, 21296.0, 21273.0, 21247.0, 21233.0, 21273.0, 21288.0, 21332.0, 21370.0, 21328.0, 21304.0, 21295.0, 21271.0, 21233.0, 21248.0, 21279.0, 21289.0, 21312.0, 21314.0, 21258.0, 21270.0, 21291.0, 21294.0, 21339.0, 21345.0, 21351.0, 21364.0, 21327.0, 21301.0, 21294.0, 21275.0, 21286.0, 21306.0, 21282.0, 21303.0, 21320.0, 21315.0, 21335.0, 21335.0, 21261.0]
    },
    "slices": {}
  }
}