{
  "AcquisitionMatrixPE": 104,
  "AcquisitionNumber": 1,
  "AcquisitionTime": "16:47:42.775000",
  "BandwidthPerPixelPhaseEncode": 17.17,
  "BaseResolution": 104,
  "BodyPartExamined": "BRAIN",
  "CoilString": "HC1-7;NC1_2",
  "ConsistencyInfo": "N4_VE11C_LATEST_20160120",
  "ConversionSoftware": "dcm2niix",
  "ConversionSoftwareVersion": "v1.0.20190720  (JP2:OpenJPEG) GCC7.3.0",
  "DerivedVendorReportedEchoSpacing": 0.000560011,
  "DeviceSerialNumber": "167006",
  "DwellTime": 2.1e-06,
  "EchoTime": 0.037,
  "EchoTrainLength": 104,
  "EffectiveEchoSpacing": 0.000560011,
  "FlipAngle": 52,
  "ImageComments": "Unaliased_MB4_PE3_LB",
  "ImageOrientationPatientDICOM": [0.997306, 0.0685924, 0.0259994, -0.0578536, 0.953403, -0.296102],
  "ImageType": [
    "ORIGINAL",
    "PRIMARY",
    "M",
    "MB",
    "ND",
    "MOSAIC"
],
  "ImagingFrequency": 123.259,
  "InPlanePhaseEncodingDirectionDICOM": "COL",
  "InstitutionAddress": "Chemin_Queen-Mary_4565_Montreal_District_CA_H3W_1W5",
  "InstitutionName": "IUGM",
  "InstitutionalDepartmentName": "Department",
  "MRAcquisitionType": "2D",
  "MagneticFieldStrength": 3,
  "Manufacturer": "Siemens",
  "ManufacturersModelName": "Prisma_fit",
  "Modality": "MR",
  "MultibandAccelerationFactor": 4,
  "PartialFourier": 1,
  "PatientPosition": "HFS",
  "PercentPhaseFOV": 100,
  "PhaseEncodingDirection": "j",
  "PhaseEncodingSteps": 104,
  "PhaseResolution": 1,
  "PixelBandwidth": 2290,
  "ProcedureStepDescription": "hcptrt_generic",
  "ProtocolName": "func_task-gambling_run-2",
  "PulseSequenceDetails": "%CustomerSeq%_cmrr_mbep2d_bold",
  "ReceiveCoilActiveElements": "HC1-7;NC1,2",
  "ReceiveCoilName": "HeadNeck_64",
  "ReconMatrixPE": 104,
  "RepetitionTime": 1.49,
  "SAR": 0.0390685,
  "ScanOptions": "FS",
  "ScanningSequence": "EP",
  "SequenceName": "epfid2d1_104",
  "SequenceVariant": "SK_SS",
  "SeriesDescription": "func_task-gambling_run-2",
  "SeriesNumber": 35,
  "ShimSetting": [619, -7208, -8824, 713, 42, -54, -51, -21],
  "SliceThickness": 2,
  "SliceTiming": [0, 0.785, 0.1, 0.8825, 0.1975, 0.98, 0.295, 1.08, 0.3925, 1.1775, 0.49, 1.275, 0.59, 1.3725, 0.6875, 0, 0.785, 0.1, 0.8825, 0.1975, 0.98, 0.295, 1.08, 0.3925, 1.1775, 0.49, 1.275, 0.59, 1.3725, 0.6875, 0, 0.785, 0.1, 0.8825, 0.1975, 0.98, 0.295, 1.08, 0.3925, 1.1775, 0.49, 1.275, 0.59, 1.3725, 0.6875, 0, 0.785, 0.1, 0.8825, 0.1975, 0.98, 0.295, 1.08, 0.3925, 1.1775, 0.49, 1.275, 0.59, 1.3725, 0.6875],
  "SoftwareVersions": "syngo_MR_E11",
  "SpacingBetweenSlices": 2,
  "StationName": "MRC35049",
  "TaskName": "gambling",
  "TotalReadoutTime": 0.0576811,
  "TxRefAmp": 251.639,
  "WipMemBlock": "43d41a0a-c37f-4449-95f4-970b2bb7a58d||Sequence: R016 ve11c/master r/e634e98; Dec 19 2017 11:00:25 by eja",
  "dcmmeta_affine": [
    [-1.9946118593215942, -0.1157071441411972, 0.09019646048545837, 107.48059844970703],
    [-0.13718479871749878, 1.906805396080017, -0.5875996351242065, -62.41413497924805],
    [0.0519988089799881, 0.5922034382820129, 1.9096050262451172, -62.254295349121094],
    [0.0, 0.0, 0.0, 1.0]
],
  "dcmmeta_reorient_transform": [
    [0.0, -1.0, 0.0, 103.0],
    [1.0, 0.0, 0.0, 0.0],
    [0.0, 0.0, 1.0, 0.0],
    [0.0, 0.0, 0.0, 1.0]
],
  "dcmmeta_shape": [104, 104, 60, 129],
  "dcmmeta_slice_dim": 2,
  "dcmmeta_version": 0.6,
  "global": {
    "const": {
      "AcquisitionMatrix": [104, 0, 0, 104],
      "AngioFlag": "N",
      "BitsAllocated": 16,
      "BitsStored": 16,
      "BodyPartExamined": "BRAIN",
      "Columns": 832,
      "EchoNumbers": 1,
      "EchoTime": 37.0,
      "EchoTrainLength": 104,
      "FlipAngle": 52.0,
      "HighBit": 15,
      "ImageOrientationPatient": [0.99730592797451, 0.06859239765282, 0.02599940405347, -0.0578535722545, 0.95340271901818, -0.2961017047336],
      "ImagePositionPatient": [-779.4840754208, -877.99927026119, 195.3771298519],
      "ImageType": [
        "ORIGINAL",
        "PRIMARY",
        "M",
        "MB",
        "ND",
        "MOSAIC"
],
      "ImagedNucleus": "1H",
      "ImagingFrequency": 123.259441,
      "InPlanePhaseEncodingDirection": "COL",
      "MRAcquisitionType": "2D",
      "MagneticFieldStrength": 3.0,
      "Manufacturer": "SIEMENS",
      "ManufacturerModelName": "Prisma_fit",
      "Modality": "MR",
      "NumberOfAverages": 1.0,
      "NumberOfPhaseEncodingSteps": 104,
      "PercentPhaseFieldOfView": 100.0,
      "PercentSampling": 100.0,
      "PerformedProcedureStepStartTime": "151932.804000",
      "PhotometricInterpretation": "MONOCHROME2",
      "PixelBandwidth": 2290.0,
      "PixelRepresentation": 0,
      "PixelSpacing": [2.0, 2.0],
      "ProtocolName": "func_task-gambling_run-2",
      "RepetitionTime": 1490.0,
      "Rows": 832,
      "SAR": 0.03906854833426,
      "SamplesPerPixel": 1,
      "ScanOptions": "FS",
      "ScanningSequence": "EP",
      "SequenceName": "epfid2d1_104",
      "SequenceVariant": [
        "SK",
        "SS"
],
      "SeriesDescription": "func_task-gambling_run-2",
      "SeriesNumber": 35,
      "SeriesTime": "164908.556000",
      "SliceLocation": -36.256111094345,
      "SliceThickness": 2.0,
      "SmallestImagePixelValue": 0,
      "SoftwareVersions": "syngo MR E11",
      "SpacingBetweenSlices": 2.0000000007972,
      "SpecificCharacterSet": "ISO_IR 100",
      "StudyID": "1",
      "StudyTime": "151932.711000",
      "TransmitCoilName": "Body",
      "VariableFlipAngleFlag": "N",
      "WindowCenterWidthExplanation": "Algo1",
      "dBdt": 0.0},
    "slices": {}
  },
  "time": {
    "samples": {
      "AcquisitionNumber": [1, 2, 3, 4, 5, 6, 7, 8, 9, 10, 11, 12, 13, 14, 15, 16, 17, 18, 19, 20, 21, 22, 23, 24, 25, 26, 27, 28, 29, 30, 31, 32, 33, 34, 35, 36, 37, 38, 39, 40, 41, 42, 43, 44, 45, 46, 47, 48, 49, 50, 51, 52, 53, 54, 55, 56, 57, 58, 59, 60, 61, 62, 63, 64, 65, 66, 67, 68, 69, 70, 71, 72, 73, 74, 75, 76, 77, 78, 79, 80, 81, 82, 83, 84, 85, 86, 87, 88, 89, 90, 91, 92, 93, 94, 95, 96, 97, 98, 99, 100, 101, 102, 103, 104, 105, 106, 107, 108, 109, 110, 111, 112, 113, 114, 115, 116, 117, 118, 119, 120, 121, 122, 123, 124, 125, 126, 127, 128, 129],
      "AcquisitionTime": ["164742.775000", "164744.265000", "164745.755000", "164747.245000", "164748.735000", "164750.225000", "164751.715000", "164753.205000", "164754.695000", "164756.185000", "164757.675000", "164759.165000", "164800.655000", "164802.145000", "164803.635000", "164805.125000", "164806.615000", "164808.105000", "164809.595000", "164811.085000", "164812.575000", "164814.065000", "164815.555000", "164817.045000", "164818.535000", "164820.025000", "164821.515000", "164823.005000", "164824.495000", "164825.985000", "164827.475000", "164828.965000", "164830.455000", "164831.945000", "164833.435000", "164834.925000", "164836.415000", "164837.905000", "164839.395000", "164840.885000", "164842.375000", "164843.865000", "164845.355000", "164846.845000", "164848.335000", "164849.825000", "164851.315000", "164852.805000", "164854.295000", "164855.785000", "164857.275000", "164858.765000", "164900.255000", "164901.745000", "164903.235000", "164904.725000", "164906.215000", "164907.705000", "164909.195000", "164910.685000", "164912.175000", "164913.665000", "164915.155000", "164916.645000", "164918.135000", "164919.625000", "164921.115000", "164922.605000", "164924.095000", "164925.585000", "164927.075000", "164928.565000", "164930.055000", "164931.545000", "164933.035000", "164934.525000", "164936.015000", "164937.505000", "164938.995000", "164940.485000", "164941.975000", "164943.465000", "164944.955000", "164946.445000", "164947.935000", "164949.425000", "164950.915000", "164952.405000", "164953.895000", "164955.385000", "164956.875000", "164958.365000", "164959.855000", "165001.345000", "165002.835000", "165004.325000", "165005.815000", "165007.305000", "165008.795000", "165010.285000", "165011.775000", "165013.265000", "165014.755000", "165016.245000", "165017.735000", "165019.225000", "165020.715000", "165022.205000", "165023.695000", "165025.185000", "165026.675000", "165028.165000", "165029.655000", "165031.145000", "165032.635000", "165034.125000", "165035.615000", "165037.105000", "165038.595000", "165040.085000", "165041.575000", "165043.065000", "165044.555000", "165046.045000", "165047.535000", "165049.025000", "165050.515000", "165052.005000", "165053.495000"],
      "ContentTime": ["164908.559000", "164908.562000", "164908.565000", "164908.568000", "164908.571000", "164908.574000", "164908.577000", "164908.586000", "164908.589000", "164908.592000", "164908.595000", "164908.598000", "164908.601000", "164908.604000", "164908.607000", "164908.610000", "164908.613000", "164908.616000", "164908.619000", "164908.622000", "164908.624000", "164908.627000", "164908.630000", "164908.633000", "164908.636000", "164908.639000", "164908.642000", "164908.645000", "164908.648000", "164908.651000", "164908.654000", "164928.531000", "164928.534000", "164928.537000", "164928.540000", "164928.543000", "164928.546000", "164928.549000", "164928.552000", "164928.555000", "164928.566000", "164928.569000", "164928.572000", "164928.575000", "164928.578000", "164928.581000", "164928.584000", "164928.587000", "164928.590000", "164928.593000", "164928.596000", "164948.531000", "164948.534000", "164948.537000", "164948.540000", "164948.543000", "164948.546000", "164948.549000", "164948.552000", "164948.555000", "164948.558000", "164948.560000", "164948.563000", "164948.566000", "164948.569000", "164948.572000", "164948.575000", "164948.578000", "164948.581000", "164948.584000", "164948.587000", "165008.531000", "165008.534000", "165008.537000", "165008.540000", "165008.543000", "165008.546000", "165008.549000", "165008.552000", "165008.560000", "165008.563000", "165008.566000", "165008.569000", "165008.572000", "165008.575000", "165008.578000", "165008.581000", "165008.583000", "165008.586000", "165008.589000", "165008.592000", "165048.532000", "165048.535000", "165048.538000", "165048.541000", "165048.544000", "165048.547000", "165048.550000", "165048.553000", "165048.556000", "165048.559000", "165048.561000", "165048.564000", "165048.568000", "165048.571000", "165048.574000", "165048.577000", "165048.580000", "165048.583000", "165048.586000", "165048.589000", "165048.591000", "165048.594000", "165048.597000", "165048.600000", "165048.603000", "165048.606000", "165048.609000", "165048.612000", "165048.615000", "165048.618000", "165048.621000", "165048.624000", "165056.157000", "165056.160000", "165056.163000", "165056.166000", "165056.169000", "165056.172000"],
      "InstanceCreationTime": ["164908.559000", "164908.562000", "164908.565000", "164908.568000", "164908.571000", "164908.574000", "164908.577000", "164908.586000", "164908.589000", "164908.592000", "164908.595000", "164908.598000", "164908.601000", "164908.604000", "164908.607000", "164908.610000", "164908.613000", "164908.616000", "164908.619000", "164908.622000", "164908.624000", "164908.627000", "164908.630000", "164908.633000", "164908.636000", "164908.639000", "164908.642000", "164908.645000", "164908.648000", "164908.651000", "164908.654000", "164928.531000", "164928.534000", "164928.537000", "164928.540000", "164928.543000", "164928.546000", "164928.549000", "164928.552000", "164928.555000", "164928.566000", "164928.569000", "164928.572000", "164928.575000", "164928.578000", "164928.581000", "164928.584000", "164928.587000", "164928.590000", "164928.593000", "164928.596000", "164948.531000", "164948.534000", "164948.537000", "164948.540000", "164948.543000", "164948.546000", "164948.549000", "164948.552000", "164948.555000", "164948.558000", "164948.560000", "164948.563000", "164948.566000", "164948.569000", "164948.572000", "164948.575000", "164948.578000", "164948.581000", "164948.584000", "164948.587000", "165008.531000", "165008.534000", "165008.537000", "165008.540000", "165008.543000", "165008.546000", "165008.549000", "165008.552000", "165008.560000", "165008.563000", "165008.566000", "165008.569000", "165008.572000", "165008.575000", "165008.578000", "165008.581000", "165008.583000", "165008.586000", "165008.589000", "165008.592000", "165048.532000", "165048.535000", "165048.538000", "165048.541000", "165048.544000", "165048.547000", "165048.550000", "165048.553000", "165048.556000", "165048.559000", "165048.561000", "165048.564000", "165048.568000", "165048.571000", "165048.574000", "165048.577000", "165048.580000", "165048.583000", "165048.586000", "165048.589000", "165048.591000", "165048.594000", "165048.597000", "165048.600000", "165048.603000", "165048.606000", "165048.609000", "165048.612000", "165048.615000", "165048.618000", "165048.621000", "165048.624000", "165056.157000", "165056.160000", "165056.163000", "165056.166000", "165056.169000", "165056.172000"],
      "InstanceNumber": [1, 2, 3, 4, 5, 6, 7, 8, 9, 10, 11, 12, 13, 14, 15, 16, 17, 18, 19, 20, 21, 22, 23, 24, 25, 26, 27, 28, 29, 30, 31, 32, 33, 34, 35, 36, 37, 38, 39, 40, 41, 42, 43, 44, 45, 46, 47, 48, 49, 50, 51, 52, 53, 54, 55, 56, 57, 58, 59, 60, 61, 62, 63, 64, 65, 66, 67, 68, 69, 70, 71, 72, 73, 74, 75, 76, 77, 78, 79, 80, 81, 82, 83, 84, 85, 86, 87, 88, 89, 90, 91, 92, 93, 94, 95, 96, 97, 98, 99, 100, 101, 102, 103, 104, 105, 106, 107, 108, 109, 110, 111, 112, 113, 114, 115, 116, 117, 118, 119, 120, 121, 122, 123, 124, 125, 126, 127, 128, 129],
      "LargestImagePixelValue": [41755, 40754, 40021, 39476, 39545, 39849, 39152, 39240, 39007, 38519, 39587, 38914, 39574, 38880, 38990, 39113, 40190, 39250, 38869, 39397, 38492, 38812, 38277, 38723, 39320, 38568, 38775, 38858, 39604, 39437, 39462, 40920, 41047, 40085, 40398, 39840, 40611, 40090, 40234, 40538, 39794, 41090, 41056, 39540, 40831, 40574, 40371, 41296, 40624, 40954, 40704, 40145, 40642, 40146, 41381, 40602, 39822, 39741, 39744, 40722, 40185, 40901, 40673, 39740, 41060, 39454, 40651, 40874, 38843, 40115, 40326, 39835, 40221, 39774, 39574, 40658, 39327, 40264, 40501, 39882, 41041, 41162, 40807, 41338, 40534, 40661, 40809, 41296, 40861, 41582, 41029, 42031, 41901, 41234, 41616, 41938, 41135, 42501, 41823, 42151, 41718, 42489, 41600, 42354, 42529, 42025, 42741, 42023, 42128, 41780, 41608, 42201, 42123, 42446, 41867, 42032, 41794, 41897, 42679, 41829, 41418, 41152, 42392, 41653, 40667, 41344, 42130, 40849, 40912],
      "WindowCenter": [10116.0, 10084.0, 10091.0, 10088.0, 10092.0, 10073.0, 10039.0, 10036.0, 10033.0, 10029.0, 10063.0, 10065.0, 10084.0, 10092.0, 10086.0, 10078.0, 10093.0, 10084.0, 10075.0, 10079.0, 10068.0, 10074.0, 10061.0, 10066.0, 10080.0, 10067.0, 10066.0, 10067.0, 10080.0, 10077.0, 10087.0, 10122.0, 10131.0, 10095.0, 10083.0, 10067.0, 10078.0, 10084.0, 10095.0, 10108.0, 10098.0, 10089.0, 10088.0, 10069.0, 10086.0, 10099.0, 10096.0, 10106.0, 10083.0, 10070.0, 10064.0, 10056.0, 10072.0, 10083.0, 10085.0, 10083.0, 10068.0, 10068.0, 10074.0, 10094.0, 10106.0, 10121.0, 10121.0, 10077.0, 10078.0, 10063.0, 10079.0, 10104.0, 10086.0, 10085.0, 10095.0, 10076.0, 10056.0, 10049.0, 10047.0, 10068.0, 10059.0, 10064.0, 10060.0, 10047.0, 10064.0, 10083.0, 10091.0, 10100.0, 10086.0, 10075.0, 10074.0, 10081.0, 10092.0, 10115.0, 10124.0, 10118.0, 10108.0, 10082.0, 10078.0, 10104.0, 10120.0, 10133.0, 10128.0, 10111.0, 10069.0, 10092.0, 10102.0, 10120.0, 10146.0, 10136.0, 10132.0, 10109.0, 10088.0, 10081.0, 10089.0, 10105.0, 10104.0, 10110.0, 10104.0, 10116.0, 10118.0, 10107.0, 10095.0, 10087.0, 10061.0, 10070.0, 10110.0, 10130.0, 10129.0, 10118.0, 10120.0, 10073.0, 10077.0],
      "WindowWidth": [21389.0, 21303.0, 21318.0, 21312.0, 21315.0, 21267.0, 21191.0, 21183.0, 21175.0, 21171.0, 21240.0, 21254.0, 21288.0, 21318.0, 21304.0, 21291.0, 21313.0, 21300.0, 21280.0, 21283.0, 21263.0, 21276.0, 21248.0, 21258.0, 21284.0, 21259.0, 21256.0, 21264.0, 21281.0, 21278.0, 21301.0, 21372.0, 21392.0, 21316.0, 21286.0, 21252.0, 21276.0, 21295.0, 21320.0, 21342.0, 21329.0, 21294.0, 21296.0, 21261.0, 21290.0, 21323.0, 21320.0, 21333.0, 21288.0, 21253.0, 21243.0, 21228.0, 21262.0, 21291.0, 21284.0, 21287.0, 21256.0, 21257.0, 21269.0, 21307.0, 21341.0, 21370.0, 21369.0, 21273.0, 21271.0, 21250.0, 21276.0, 21331.0, 21305.0, 21293.0, 21324.0, 21274.0, 21224.0, 21213.0, 21205.0, 21247.0, 21236.0, 21242.0, 21230.0, 21206.0, 21238.0, 21283.0, 21298.0, 21318.0, 21289.0, 21264.0, 21265.0, 21280.0, 21307.0, 21354.0, 21380.0, 21360.0, 21338.0, 21281.0, 21268.0, 21329.0, 21369.0, 21393.0, 21385.0, 21349.0, 21248.0, 21298.0, 21323.0, 21362.0, 21425.0, 21407.0, 21390.0, 21344.0, 21290.0, 21278.0, 21295.0, 21332.0, 21327.0, 21341.0, 21327.0, 21357.0, 21360.0, 21335.0, 21305.0, 21293.0, 21230.0, 21256.0, 21337.0, 21400.0, 21398.0, 21371.0, 21365.0, 21257.0, 21282.0]
    },
    "slices": {}
  }
}