{
  "AcquisitionMatrixPE": 104,
  "AcquisitionNumber": 1,
  "AcquisitionTime": "11:58:4.487500",
  "BandwidthPerPixelPhaseEncode": 17.17,
  "BaseResolution": 104,
  "BodyPartExamined": "BRAIN",
  "CoilString": "HC1-7;NC1_2",
  "ConsistencyInfo": "N4_VE11C_LATEST_20160120",
  "ConversionSoftware": "dcm2niix",
  "ConversionSoftwareVersion": "v1.0.20190720  (JP2:OpenJPEG) GCC7.3.0",
  "DerivedVendorReportedEchoSpacing": 0.000560011,
  "DeviceSerialNumber": "167006",
  "DwellTime": 2.1e-06,
  "EchoTime": 0.037,
  "EchoTrainLength": 104,
  "EffectiveEchoSpacing": 0.000560011,
  "FlipAngle": 52,
  "ImageComments": "Unaliased_MB4_PE3_LB",
  "ImageOrientationPatientDICOM": [0.999923, -0.010232, 0.00702888, 0.0120424, 0.936983, -0.349167],
  "ImageType": [
    "ORIGINAL",
    "PRIMARY",
    "M",
    "MB",
    "ND",
    "MOSAIC"
],
  "ImagingFrequency": 123.26,
  "InPlanePhaseEncodingDirectionDICOM": "COL",
  "InstitutionAddress": "Chemin_Queen-Mary_4565_Montreal_District_CA_H3W_1W5",
  "InstitutionName": "IUGM",
  "InstitutionalDepartmentName": "Department",
  "MRAcquisitionType": "2D",
  "MagneticFieldStrength": 3,
  "Manufacturer": "Siemens",
  "ManufacturersModelName": "Prisma_fit",
  "Modality": "MR",
  "MultibandAccelerationFactor": 4,
  "PartialFourier": 1,
  "PatientPosition": "HFS",
  "PercentPhaseFOV": 100,
  "PhaseEncodingDirection": "j",
  "PhaseEncodingSteps": 104,
  "PhaseResolution": 1,
  "PixelBandwidth": 2290,
  "ProcedureStepDescription": "hcptrt_generic",
  "ProtocolName": "func_task-wm_run-2",
  "PulseSequenceDetails": "%CustomerSeq%_cmrr_mbep2d_bold",
  "ReceiveCoilActiveElements": "HC1-7;NC1,2",
  "ReceiveCoilName": "HeadNeck_64",
  "ReconMatrixPE": 104,
  "RepetitionTime": 1.49,
  "SAR": 0.0288003,
  "ScanOptions": "FS",
  "ScanningSequence": "EP",
  "SequenceName": "epfid2d1_104",
  "SequenceVariant": "SK_SS",
  "SeriesDescription": "func_task-wm_run-2",
  "SeriesNumber": 31,
  "ShimSetting": [621, -7142, -8816, 662, 4, 183, 16, -27],
  "SliceThickness": 2,
  "SliceTiming": [0, 0.7825, 0.0975, 0.88, 0.195, 0.98, 0.2925, 1.0775, 0.39, 1.175, 0.49, 1.2725, 0.5875, 1.37, 0.685, 0, 0.7825, 0.0975, 0.88, 0.195, 0.98, 0.2925, 1.0775, 0.39, 1.175, 0.49, 1.2725, 0.5875, 1.37, 0.685, 0, 0.7825, 0.0975, 0.88, 0.195, 0.98, 0.2925, 1.0775, 0.39, 1.175, 0.49, 1.2725, 0.5875, 1.37, 0.685, 0, 0.7825, 0.0975, 0.88, 0.195, 0.98, 0.2925, 1.0775, 0.39, 1.175, 0.49, 1.2725, 0.5875, 1.37, 0.685],
  "SoftwareVersions": "syngo_MR_E11",
  "SpacingBetweenSlices": 2,
  "StationName": "MRC35049",
  "TaskName": "wm",
  "TotalReadoutTime": 0.0576811,
  "TxRefAmp": 208.776,
  "WipMemBlock": "8a22d327-1cea-4d86-b4a8-f8db3eb58b4d||Sequence: R016 ve11c/master r/e634e98; Dec 19 2017 11:00:25 by eja",
  "dcmmeta_affine": [
    [-1.9998458623886108, 0.024084756150841713, 0.006026542745530605, 107.55624389648438],
    [0.020463963970541954, 1.8739659786224365, -0.6984502077102661, -68.5918960571289],
    [0.014057769440114498, 0.6983346939086914, 1.874068021774292, -69.0165023803711],
    [0.0, 0.0, 0.0, 1.0]
],
  "dcmmeta_reorient_transform": [
    [0.0, -1.0, 0.0, 103.0],
    [1.0, 0.0, 0.0, 0.0],
    [0.0, 0.0, 1.0, 0.0],
    [0.0, 0.0, 0.0, 1.0]
],
  "dcmmeta_shape": [104, 104, 60, 202],
  "dcmmeta_slice_dim": 2,
  "dcmmeta_version": 0.6,
  "global": {
    "const": {
      "AcquisitionMatrix": [104, 0, 0, 104],
      "AngioFlag": "N",
      "BitsAllocated": 16,
      "BitsStored": 16,
      "BodyPartExamined": "BRAIN",
      "Columns": 832,
      "EchoNumbers": 1,
      "EchoTime": 37.0,
      "EchoTrainLength": 104,
      "FlipAngle": 52.0,
      "HighBit": 15,
      "ImageOrientationPatient": [0.99992294769038, -0.0102319822299, 0.00702888482172, 0.01204237842129, 0.93698299645996, -0.3491673602542],
      "ImagePositionPatient": [-846.74773145262, -799.10134228303, 251.98878233008],
      "ImageType": [
        "ORIGINAL",
        "PRIMARY",
        "M",
        "MB",
        "ND",
        "MOSAIC"
],
      "ImagedNucleus": "1H",
      "ImagingFrequency": 123.259567,
      "InPlanePhaseEncodingDirection": "COL",
      "MRAcquisitionType": "2D",
      "MagneticFieldStrength": 3.0,
      "Manufacturer": "SIEMENS",
      "ManufacturerModelName": "Prisma_fit",
      "Modality": "MR",
      "NumberOfAverages": 1.0,
      "NumberOfPhaseEncodingSteps": 104,
      "PercentPhaseFieldOfView": 100.0,
      "PercentSampling": 100.0,
      "PerformedProcedureStepStartTime": "104953.312000",
      "PhotometricInterpretation": "MONOCHROME2",
      "PixelBandwidth": 2290.0,
      "PixelRepresentation": 0,
      "PixelSpacing": [2.0, 2.0],
      "ProtocolName": "func_task-wm_run-2",
      "RepetitionTime": 1490.0,
      "Rows": 832,
      "SAR": 0.02880025173615,
      "SamplesPerPixel": 1,
      "ScanOptions": "FS",
      "ScanningSequence": "EP",
      "SequenceName": "epfid2d1_104",
      "SequenceVariant": [
        "SK",
        "SS"
],
      "SeriesDescription": "func_task-wm_run-2",
      "SeriesNumber": 31,
      "SeriesTime": "115935.840000",
      "SliceLocation": -40.392704989152,
      "SliceThickness": 2.0,
      "SmallestImagePixelValue": 0,
      "SoftwareVersions": "syngo MR E11",
      "SpacingBetweenSlices": 1.9999999599268,
      "SpecificCharacterSet": "ISO_IR 100",
      "StudyID": "1",
      "StudyTime": "104953.259000",
      "TransmitCoilName": "Body",
      "VariableFlipAngleFlag": "N",
      "WindowCenterWidthExplanation": "Algo1",
      "dBdt": 0.0},
    "slices": {}
  },
  "time": {
    "samples": {
      "AcquisitionNumber": [1, 2, 3, 4, 5, 6, 7, 8, 9, 10, 11, 12, 13, 14, 15, 16, 17, 18, 19, 20, 21, 22, 23, 24, 25, 26, 27, 28, 29, 30, 31, 32, 33, 34, 35, 36, 37, 38, 39, 40, 41, 42, 43, 44, 45, 46, 47, 48, 49, 50, 51, 52, 53, 54, 55, 56, 57, 58, 59, 60, 61, 62, 63, 64, 65, 66, 67, 68, 69, 70, 71, 72, 73, 74, 75, 76, 77, 78, 79, 80, 81, 82, 83, 84, 85, 86, 87, 88, 89, 90, 91, 92, 93, 94, 95, 96, 97, 98, 99, 100, 101, 102, 103, 104, 105, 106, 107, 108, 109, 110, 111, 112, 113, 114, 115, 116, 117, 118, 119, 120, 121, 122, 123, 124, 125, 126, 127, 128, 129, 130, 131, 132, 133, 134, 135, 136, 137, 138, 139, 140, 141, 142, 143, 144, 145, 146, 147, 148, 149, 150, 151, 152, 153, 154, 155, 156, 157, 158, 159, 160, 161, 162, 163, 164, 165, 166, 167, 168, 169, 170, 171, 172, 173, 174, 175, 176, 177, 178, 179, 180, 181, 182, 183, 184, 185, 186, 187, 188, 189, 190, 191, 192, 193, 194, 195, 196, 197, 198, 199, 200, 201, 202],
      "AcquisitionTime": ["115804.487500", "115805.977500", "115807.467500", "115808.957500", "115810.447500", "115811.937500", "115813.427500", "115814.917500", "115816.407500", "115817.897500", "115819.387500", "115820.877500", "115822.367500", "115823.857500", "115825.347500", "115826.837500", "115828.327500", "115829.817500", "115831.307500", "115832.797500", "115834.287500", "115835.777500", "115837.267500", "115838.757500", "115840.247500", "115841.737500", "115843.227500", "115844.717500", "115846.207500", "115847.697500", "115849.187500", "115850.677500", "115852.167500", "115853.657500", "115855.147500", "115856.637500", "115858.127500", "115859.617500", "115901.107500", "115902.597500", "115904.087500", "115905.577500", "115907.067500", "115908.557500", "115910.047500", "115911.537500", "115913.027500", "115914.517500", "115916.007500", "115917.497500", "115918.987500", "115920.477500", "115921.967500", "115923.457500", "115924.947500", "115926.437500", "115927.927500", "115929.417500", "115930.907500", "115932.397500", "115933.887500", "115935.377500", "115936.867500", "115938.357500", "115939.847500", "115941.337500", "115942.827500", "115944.317500", "115945.807500", "115947.297500", "115948.787500", "115950.277500", "115951.767500", "115953.257500", "115954.747500", "115956.237500", "115957.727500", "115959.217500", "120000.707500", "120002.197500", "120003.687500", "120005.177500", "120006.667500", "120008.157500", "120009.647500", "120011.137500", "120012.627500", "120014.117500", "120015.607500", "120017.097500", "120018.587500", "120020.077500", "120021.567500", "120023.057500", "120024.547500", "120026.037500", "120027.527500", "120029.017500", "120030.507500", "120031.997500", "120033.487500", "120034.977500", "120036.467500", "120037.957500", "120039.447500", "120040.937500", "120042.427500", "120043.917500", "120045.407500", "120046.897500", "120048.387500", "120049.877500", "120051.367500", "120052.857500", "120054.347500", "120055.837500", "120057.327500", "120058.817500", "120100.307500", "120101.797500", "120103.287500", "120104.777500", "120106.267500", "120107.757500", "120109.247500", "120110.737500", "120112.227500", "120113.717500", "120115.207500", "120116.697500", "120118.187500", "120119.677500", "120121.167500", "120122.657500", "120124.147500", "120125.637500", "120127.127500", "120128.617500", "120130.107500", "120131.597500", "120133.087500", "120134.577500", "120136.067500", "120137.557500", "120139.047500", "120140.537500", "120142.027500", "120143.517500", "120145.007500", "120146.497500", "120147.987500", "120149.477500", "120150.967500", "120152.457500", "120153.947500", "120155.437500", "120156.927500", "120158.417500", "120159.907500", "120201.397500", "120202.887500", "120204.377500", "120205.867500", "120207.357500", "120208.847500", "120210.337500", "120211.827500", "120213.317500", "120214.807500", "120216.297500", "120217.787500", "120219.277500", "120220.767500", "120222.257500", "120223.747500", "120225.237500", "120226.727500", "120228.217500", "120229.707500", "120231.197500", "120232.687500", "120234.177500", "120235.667500", "120237.157500", "120238.647500", "120240.137500", "120241.627500", "120243.117500", "120244.607500", "120246.097500", "120247.587500", "120249.077500", "120250.567500", "120252.057500", "120253.547500", "120255.037500", "120256.527500", "120258.017500", "120259.507500", "120300.997500", "120302.487500", "120303.977500"],
      "ContentTime": ["115935.843000", "115935.846000", "115935.849000", "115935.852000", "115935.855000", "115935.858000", "115935.861000", "115935.864000", "115935.867000", "115935.870000", "115935.873000", "115935.876000", "115935.891000", "115935.894000", "115935.897000", "115935.900000", "115935.903000", "115935.906000", "115935.909000", "115935.913000", "115935.916000", "115935.920000", "115935.923000", "115935.926000", "115935.929000", "115935.933000", "115935.936000", "115935.939000", "115935.942000", "115935.946000", "115935.950000", "115935.954000", "115935.957000", "115935.961000", "115935.966000", "115935.971000", "115935.981000", "115955.811000", "115955.815000", "115955.819000", "115955.823000", "115955.826000", "115955.829000", "115955.833000", "115955.836000", "115955.840000", "115955.843000", "115955.847000", "115955.851000", "115955.855000", "115955.858000", "115955.862000", "115955.865000", "115955.868000", "115955.871000", "115955.874000", "115955.877000", "120015.810000", "120015.813000", "120015.816000", "120015.819000", "120015.822000", "120015.825000", "120015.828000", "120015.831000", "120015.834000", "120015.837000", "120015.840000", "120015.843000", "120015.846000", "120015.849000", "120015.852000", "120015.855000", "120015.858000", "120015.861000", "120015.863000", "120015.866000", "120035.810000", "120035.813000", "120035.816000", "120035.819000", "120035.822000", "120035.825000", "120035.828000", "120035.831000", "120035.834000", "120035.837000", "120035.840000", "120035.843000", "120035.846000", "120035.849000", "120035.852000", "120035.855000", "120035.858000", "120035.861000", "120035.864000", "120035.867000", "120115.810000", "120115.813000", "120115.816000", "120115.819000", "120115.822000", "120115.825000", "120115.828000", "120115.831000", "120115.834000", "120115.837000", "120115.840000", "120115.843000", "120115.846000", "120115.849000", "120115.860000", "120115.863000", "120115.866000", "120115.869000", "120115.872000", "120115.875000", "120115.878000", "120115.881000", "120115.884000", "120115.887000", "120115.890000", "120115.893000", "120115.896000", "120115.899000", "120115.902000", "120115.904000", "120155.810000", "120155.813000", "120155.816000", "120155.819000", "120155.822000", "120155.825000", "120155.828000", "120155.832000", "120155.835000", "120155.838000", "120155.841000", "120155.844000", "120155.847000", "120155.850000", "120155.853000", "120155.856000", "120155.859000", "120155.863000", "120155.866000", "120155.869000", "120155.872000", "120155.875000", "120155.878000", "120155.881000", "120155.884000", "120155.887000", "120155.890000", "120235.810000", "120235.813000", "120235.830000", "120235.833000", "120235.836000", "120235.839000", "120235.842000", "120235.845000", "120235.848000", "120235.851000", "120235.854000", "120235.857000", "120235.859000", "120235.862000", "120235.865000", "120235.868000", "120235.871000", "120235.874000", "120235.877000", "120235.880000", "120235.883000", "120235.886000", "120235.889000", "120235.892000", "120235.895000", "120235.898000", "120235.901000", "120306.477000", "120306.480000", "120306.483000", "120306.486000", "120306.489000", "120306.493000", "120306.495000", "120306.498000", "120306.501000", "120306.505000", "120306.508000", "120306.511000", "120306.514000", "120306.517000", "120306.521000", "120306.525000", "120306.529000", "120306.532000", "120306.535000", "120306.538000", "120306.541000"],
      "InstanceCreationTime": ["115935.843000", "115935.846000", "115935.849000", "115935.852000", "115935.855000", "115935.858000", "115935.861000", "115935.864000", "115935.867000", "115935.870000", "115935.873000", "115935.876000", "115935.891000", "115935.894000", "115935.897000", "115935.900000", "115935.903000", "115935.906000", "115935.909000", "115935.913000", "115935.916000", "115935.920000", "115935.923000", "115935.926000", "115935.929000", "115935.933000", "115935.936000", "115935.939000", "115935.942000", "115935.946000", "115935.950000", "115935.954000", "115935.957000", "115935.961000", "115935.966000", "115935.971000", "115935.981000", "115955.811000", "115955.815000", "115955.819000", "115955.823000", "115955.826000", "115955.829000", "115955.833000", "115955.836000", "115955.840000", "115955.843000", "115955.847000", "115955.851000", "115955.855000", "115955.858000", "115955.862000", "115955.865000", "115955.868000", "115955.871000", "115955.874000", "115955.877000", "120015.810000", "120015.813000", "120015.816000", "120015.819000", "120015.822000", "120015.825000", "120015.828000", "120015.831000", "120015.834000", "120015.837000", "120015.840000", "120015.843000", "120015.846000", "120015.849000", "120015.852000", "120015.855000", "120015.858000", "120015.861000", "120015.863000", "120015.866000", "120035.810000", "120035.813000", "120035.816000", "120035.819000", "120035.822000", "120035.825000", "120035.828000", "120035.831000", "120035.834000", "120035.837000", "120035.840000", "120035.843000", "120035.846000", "120035.849000", "120035.852000", "120035.855000", "120035.858000", "120035.861000", "120035.864000", "120035.867000", "120115.810000", "120115.813000", "120115.816000", "120115.819000", "120115.822000", "120115.825000", "120115.828000", "120115.831000", "120115.834000", "120115.837000", "120115.840000", "120115.843000", "120115.846000", "120115.849000", "120115.860000", "120115.863000", "120115.866000", "120115.869000", "120115.872000", "120115.875000", "120115.878000", "120115.881000", "120115.884000", "120115.887000", "120115.890000", "120115.893000", "120115.896000", "120115.899000", "120115.902000", "120115.904000", "120155.810000", "120155.813000", "120155.816000", "120155.819000", "120155.822000", "120155.825000", "120155.828000", "120155.832000", "120155.835000", "120155.838000", "120155.841000", "120155.844000", "120155.847000", "120155.850000", "120155.853000", "120155.856000", "120155.859000", "120155.863000", "120155.866000", "120155.869000", "120155.872000", "120155.875000", "120155.878000", "120155.881000", "120155.884000", "120155.887000", "120155.890000", "120235.810000", "120235.813000", "120235.830000", "120235.833000", "120235.836000", "120235.839000", "120235.842000", "120235.845000", "120235.848000", "120235.851000", "120235.854000", "120235.857000", "120235.859000", "120235.862000", "120235.865000", "120235.868000", "120235.871000", "120235.874000", "120235.877000", "120235.880000", "120235.883000", "120235.886000", "120235.889000", "120235.892000", "120235.895000", "120235.898000", "120235.901000", "120306.477000", "120306.480000", "120306.483000", "120306.486000", "120306.489000", "120306.493000", "120306.495000", "120306.498000", "120306.501000", "120306.505000", "120306.508000", "120306.511000", "120306.514000", "120306.517000", "120306.521000", "120306.525000", "120306.529000", "120306.532000", "120306.535000", "120306.538000", "120306.541000"],
      "InstanceNumber": [1, 2, 3, 4, 5, 6, 7, 8, 9, 10, 11, 12, 13, 14, 15, 16, 17, 18, 19, 20, 21, 22, 23, 24, 25, 26, 27, 28, 29, 30, 31, 32, 33, 34, 35, 36, 37, 38, 39, 40, 41, 42, 43, 44, 45, 46, 47, 48, 49, 50, 51, 52, 53, 54, 55, 56, 57, 58, 59, 60, 61, 62, 63, 64, 65, 66, 67, 68, 69, 70, 71, 72, 73, 74, 75, 76, 77, 78, 79, 80, 81, 82, 83, 84, 85, 86, 87, 88, 89, 90, 91, 92, 93, 94, 95, 96, 97, 98, 99, 100, 101, 102, 103, 104, 105, 106, 107, 108, 109, 110, 111, 112, 113, 114, 115, 116, 117, 118, 119, 120, 121, 122, 123, 124, 125, 126, 127, 128, 129, 130, 131, 132, 133, 134, 135, 136, 137, 138, 139, 140, 141, 142, 143, 144, 145, 146, 147, 148, 149, 150, 151, 152, 153, 154, 155, 156, 157, 158, 159, 160, 161, 162, 163, 164, 165, 166, 167, 168, 169, 170, 171, 172, 173, 174, 175, 176, 177, 178, 179, 180, 181, 182, 183, 184, 185, 186, 187, 188, 189, 190, 191, 192, 193, 194, 195, 196, 197, 198, 199, 200, 201, 202],
      "LargestImagePixelValue": [41274, 40271, 39644, 39136, 38771, 38664, 38663, 38803, 39050, 39014, 38470, 38923, 38671, 38847, 38795, 39032, 38894, 38739, 38752, 38672, 38863, 38239, 38757, 39019, 38486, 38737, 38371, 38675, 38775, 38677, 38864, 38569, 38728, 38481, 38422, 38844, 38955, 38861, 38541, 38989, 38926, 38800, 38795, 38686, 38947, 38597, 38511, 39030, 38917, 38493, 38500, 38301, 38326, 38677, 38891, 38816, 38310, 38766, 38443, 38247, 38351, 38645, 38811, 39028, 38902, 39135, 38743, 38566, 38509, 38541, 39179, 38687, 38937, 38799, 38822, 38780, 38853, 38853, 38414, 38829, 38552, 38529, 38170, 38667, 38608, 39073, 38594, 38788, 38623, 38528, 38844, 38523, 38282, 38480, 38485, 38408, 38700, 37930, 38159, 38454, 38411, 38688, 38475, 38792, 38548, 38662, 38454, 38753, 38823, 38488, 38688, 38699, 38286, 38707, 38309, 38537, 38438, 38888, 38402, 38556, 39101, 38568, 38463, 38420, 38283, 38362, 38847, 38497, 38409, 38520, 38703, 39035, 38846, 38862, 38430, 38809, 38809, 38962, 38507, 38483, 38574, 38636, 38291, 38727, 38298, 38631, 38335, 38397, 38393, 38570, 38634, 38513, 38289, 38514, 38398, 39003, 38832, 38771, 38112, 38376, 38482, 38589, 38766, 38832, 38668, 39016, 38430, 39045, 38419, 38823, 38761, 37981, 38224, 38658, 38392, 38575, 38385, 38171, 38499, 38744, 38793, 38622, 38598, 38637, 38311, 38475, 38849, 38378, 38597, 38544, 39058, 38332, 38196, 38314, 38244, 38530, 38520, 38364, 39011, 38914, 39108, 38565],
      "WindowCenter": [9899.0, 9867.0, 9856.0, 9851.0, 9852.0, 9843.0, 9831.0, 9814.0, 9811.0, 9826.0, 9839.0, 9848.0, 9834.0, 9822.0, 9813.0, 9827.0, 9837.0, 9842.0, 9850.0, 9850.0, 9851.0, 9844.0, 9842.0, 9839.0, 9833.0, 9848.0, 9845.0, 9849.0, 9833.0, 9830.0, 9831.0, 9839.0, 9841.0, 9834.0, 9825.0, 9823.0, 9828.0, 9823.0, 9823.0, 9838.0, 9855.0, 9867.0, 9860.0, 9835.0, 9828.0, 9821.0, 9829.0, 9844.0, 9862.0, 9859.0, 9854.0, 9836.0, 9824.0, 9821.0, 9829.0, 9839.0, 9843.0, 9853.0, 9859.0, 9854.0, 9836.0, 9816.0, 9802.0, 9810.0, 9819.0, 9821.0, 9820.0, 9813.0, 9805.0, 9805.0, 9819.0, 9829.0, 9831.0, 9824.0, 9822.0, 9830.0, 9832.0, 9833.0, 9834.0, 9842.0, 9852.0, 9854.0, 9846.0, 9842.0, 9832.0, 9832.0, 9834.0, 9841.0, 9856.0, 9861.0, 9878.0, 9865.0, 9847.0, 9835.0, 9839.0, 9850.0, 9868.0, 9864.0, 9857.0, 9862.0, 9854.0, 9853.0, 9851.0, 9843.0, 9835.0, 9826.0, 9807.0, 9805.0, 9813.0, 9824.0, 9835.0, 9844.0, 9844.0, 9841.0, 9834.0, 9836.0, 9837.0, 9841.0, 9826.0, 9823.0, 9832.0, 9834.0, 9835.0, 9833.0, 9834.0, 9851.0, 9853.0, 9838.0, 9817.0, 9800.0, 9803.0, 9813.0, 9831.0, 9841.0, 9837.0, 9833.0, 9816.0, 9813.0, 9823.0, 9835.0, 9851.0, 9844.0, 9826.0, 9823.0, 9822.0, 9821.0, 9816.0, 9825.0, 9841.0, 9843.0, 9850.0, 9839.0, 9826.0, 9811.0, 9807.0, 9820.0, 9840.0, 9844.0, 9830.0, 9810.0, 9798.0, 9795.0, 9796.0, 9805.0, 9815.0, 9822.0, 9819.0, 9831.0, 9841.0, 9852.0, 9855.0, 9855.0, 9839.0, 9835.0, 9827.0, 9839.0, 9852.0, 9847.0, 9831.0, 9817.0, 9805.0, 9804.0, 9822.0, 9840.0, 9845.0, 9843.0, 9841.0, 9834.0, 9840.0, 9842.0, 9859.0, 9862.0, 9846.0, 9828.0, 9809.0, 9799.0, 9795.0, 9789.0, 9795.0, 9810.0, 9821.0, 9826.0],
      "WindowWidth": [20976.0, 20887.0, 20854.0, 20841.0, 20839.0, 20814.0, 20781.0, 20744.0, 20739.0, 20769.0, 20803.0, 20821.0, 20794.0, 20765.0, 20744.0, 20775.0, 20799.0, 20812.0, 20830.0, 20830.0, 20835.0, 20820.0, 20814.0, 20803.0, 20794.0, 20827.0, 20822.0, 20827.0, 20791.0, 20782.0, 20788.0, 20804.0, 20811.0, 20792.0, 20774.0, 20768.0, 20777.0, 20769.0, 20772.0, 20802.0, 20840.0, 20869.0, 20853.0, 20796.0, 20774.0, 20762.0, 20780.0, 20812.0, 20854.0, 20851.0, 20840.0, 20799.0, 20771.0, 20764.0, 20780.0, 20805.0, 20820.0, 20839.0, 20849.0, 20841.0, 20798.0, 20751.0, 20720.0, 20737.0, 20761.0, 20766.0, 20762.0, 20745.0, 20729.0, 20731.0, 20756.0, 20781.0, 20785.0, 20770.0, 20766.0, 20782.0, 20791.0, 20793.0, 20798.0, 20813.0, 20838.0, 20845.0, 20826.0, 20811.0, 20786.0, 20789.0, 20794.0, 20807.0, 20839.0, 20855.0, 20893.0, 20867.0, 20826.0, 20794.0, 20802.0, 20829.0, 20870.0, 20863.0, 20848.0, 20856.0, 20838.0, 20838.0, 20828.0, 20810.0, 20792.0, 20772.0, 20731.0, 20728.0, 20745.0, 20772.0, 20800.0, 20818.0, 20817.0, 20810.0, 20798.0, 20803.0, 20805.0, 20808.0, 20775.0, 20769.0, 20790.0, 20797.0, 20796.0, 20789.0, 20793.0, 20830.0, 20838.0, 20806.0, 20757.0, 20721.0, 20723.0, 20745.0, 20787.0, 20810.0, 20803.0, 20790.0, 20751.0, 20746.0, 20769.0, 20802.0, 20834.0, 20814.0, 20772.0, 20763.0, 20763.0, 20759.0, 20753.0, 20775.0, 20807.0, 20812.0, 20827.0, 20804.0, 20772.0, 20740.0, 20730.0, 20757.0, 20803.0, 20816.0, 20785.0, 20741.0, 20712.0, 20704.0, 20708.0, 20730.0, 20752.0, 20766.0, 20762.0, 20785.0, 20808.0, 20837.0, 20845.0, 20841.0, 20810.0, 20796.0, 20777.0, 20802.0, 20836.0, 20825.0, 20788.0, 20752.0, 20724.0, 20724.0, 20764.0, 20807.0, 20821.0, 20814.0, 20805.0, 20792.0, 20802.0, 20808.0, 20845.0, 20853.0, 20816.0, 20775.0, 20732.0, 20709.0, 20699.0, 20690.0, 20700.0, 20733.0, 20760.0, 20776.0]
    },
    "slices": {}
  }
}