{
  "AcquisitionMatrixPE": 104,
  "AcquisitionNumber": 1,
  "AcquisitionTime": "11:00:30.620000",
  "BandwidthPerPixelPhaseEncode": 17.17,
  "BaseResolution": 104,
  "BodyPartExamined": "BRAIN",
  "CoilString": "HC1-7;NC1_2",
  "ConsistencyInfo": "N4_VE11C_LATEST_20160120",
  "ConversionSoftware": "dcm2niix",
  "ConversionSoftwareVersion": "v1.0.20190720  (JP2:OpenJPEG) GCC7.3.0",
  "DerivedVendorReportedEchoSpacing": 0.000560011,
  "DeviceSerialNumber": "167006",
  "DwellTime": 2.1e-06,
  "EchoTime": 0.037,
  "EchoTrainLength": 104,
  "EffectiveEchoSpacing": 0.000560011,
  "FlipAngle": 52,
  "ImageComments": "Unaliased_MB4_PE3_LB",
  "ImageOrientationPatientDICOM": [0.999923, -0.010232, 0.00702888, 0.0120424, 0.936983, -0.349167],
  "ImageType": [
    "ORIGINAL",
    "PRIMARY",
    "M",
    "MB",
    "ND",
    "MOSAIC"
],
  "ImagingFrequency": 123.26,
  "InPlanePhaseEncodingDirectionDICOM": "COL",
  "InstitutionAddress": "Chemin_Queen-Mary_4565_Montreal_District_CA_H3W_1W5",
  "InstitutionName": "IUGM",
  "InstitutionalDepartmentName": "Department",
  "MRAcquisitionType": "2D",
  "MagneticFieldStrength": 3,
  "Manufacturer": "Siemens",
  "ManufacturersModelName": "Prisma_fit",
  "Modality": "MR",
  "MultibandAccelerationFactor": 4,
  "PartialFourier": 1,
  "PatientPosition": "HFS",
  "PercentPhaseFOV": 100,
  "PhaseEncodingDirection": "j",
  "PhaseEncodingSteps": 104,
  "PhaseResolution": 1,
  "PixelBandwidth": 2290,
  "ProcedureStepDescription": "hcptrt_generic",
  "ProtocolName": "func_task-gambling_run-1",
  "PulseSequenceDetails": "%CustomerSeq%_cmrr_mbep2d_bold",
  "ReceiveCoilActiveElements": "HC1-7;NC1,2",
  "ReceiveCoilName": "HeadNeck_64",
  "ReconMatrixPE": 104,
  "RepetitionTime": 1.49,
  "SAR": 0.0286489,
  "ScanOptions": "FS",
  "ScanningSequence": "EP",
  "SequenceName": "epfid2d1_104",
  "SequenceVariant": "SK_SS",
  "SeriesDescription": "func_task-gambling_run-1",
  "SeriesNumber": 7,
  "ShimSetting": [621, -7142, -8816, 662, 4, 183, 16, -27],
  "SliceThickness": 2,
  "SliceTiming": [0, 0.785, 0.0975, 0.8825, 0.195, 0.98, 0.295, 1.0775, 0.3925, 1.175, 0.49, 1.2725, 0.5875, 1.3725, 0.685, 0, 0.785, 0.0975, 0.8825, 0.195, 0.98, 0.295, 1.0775, 0.3925, 1.175, 0.49, 1.2725, 0.5875, 1.3725, 0.685, 0, 0.785, 0.0975, 0.8825, 0.195, 0.98, 0.295, 1.0775, 0.3925, 1.175, 0.49, 1.2725, 0.5875, 1.3725, 0.685, 0, 0.785, 0.0975, 0.8825, 0.195, 0.98, 0.295, 1.0775, 0.3925, 1.175, 0.49, 1.2725, 0.5875, 1.3725, 0.685],
  "SoftwareVersions": "syngo_MR_E11",
  "SpacingBetweenSlices": 2,
  "StationName": "MRC35049",
  "TaskName": "gambling",
  "TotalReadoutTime": 0.0576811,
  "TxRefAmp": 208.776,
  "WipMemBlock": "727baf51-7725-4526-96c9-9c9408adb6d4||Sequence: R016 ve11c/master r/e634e98; Dec 19 2017 11:00:25 by eja",
  "dcmmeta_affine": [
    [-1.9998458623886108, 0.024084756150841713, 0.006026542745530605, 107.55624389648438],
    [0.020463963970541954, 1.8739659786224365, -0.6984502077102661, -68.5918960571289],
    [0.014057769440114498, 0.6983346939086914, 1.874068021774292, -69.0165023803711],
    [0.0, 0.0, 0.0, 1.0]
],
  "dcmmeta_reorient_transform": [
    [0.0, -1.0, 0.0, 103.0],
    [1.0, 0.0, 0.0, 0.0],
    [0.0, 0.0, 1.0, 0.0],
    [0.0, 0.0, 0.0, 1.0]
],
  "dcmmeta_shape": [104, 104, 60, 129],
  "dcmmeta_slice_dim": 2,
  "dcmmeta_version": 0.6,
  "global": {
    "const": {
      "AcquisitionMatrix": [104, 0, 0, 104],
      "AngioFlag": "N",
      "BitsAllocated": 16,
      "BitsStored": 16,
      "BodyPartExamined": "BRAIN",
      "Columns": 832,
      "EchoNumbers": 1,
      "EchoTime": 37.0,
      "EchoTrainLength": 104,
      "FlipAngle": 52.0,
      "HighBit": 15,
      "ImageOrientationPatient": [0.99992294769038, -0.0102319822299, 0.00702888482172, 0.01204237842129, 0.93698299645996, -0.3491673602542],
      "ImagePositionPatient": [-846.74773145262, -799.10134228303, 251.98878233008],
      "ImageType": [
        "ORIGINAL",
        "PRIMARY",
        "M",
        "MB",
        "ND",
        "MOSAIC"
],
      "ImagedNucleus": "1H",
      "ImagingFrequency": 123.25955,
      "InPlanePhaseEncodingDirection": "COL",
      "MRAcquisitionType": "2D",
      "MagneticFieldStrength": 3.0,
      "Manufacturer": "SIEMENS",
      "ManufacturerModelName": "Prisma_fit",
      "Modality": "MR",
      "NumberOfAverages": 1.0,
      "NumberOfPhaseEncodingSteps": 104,
      "PercentPhaseFieldOfView": 100.0,
      "PercentSampling": 100.0,
      "PerformedProcedureStepStartTime": "104953.312000",
      "PhotometricInterpretation": "MONOCHROME2",
      "PixelBandwidth": 2290.0,
      "PixelRepresentation": 0,
      "PixelSpacing": [2.0, 2.0],
      "ProtocolName": "func_task-gambling_run-1",
      "RepetitionTime": 1490.0,
      "Rows": 832,
      "SAR": 0.02864891484124,
      "SamplesPerPixel": 1,
      "ScanOptions": "FS",
      "ScanningSequence": "EP",
      "SequenceName": "epfid2d1_104",
      "SequenceVariant": [
        "SK",
        "SS"
],
      "SeriesDescription": "func_task-gambling_run-1",
      "SeriesNumber": 7,
      "SeriesTime": "110135.852000",
      "SliceLocation": -40.392704989152,
      "SliceThickness": 2.0,
      "SmallestImagePixelValue": 0,
      "SoftwareVersions": "syngo MR E11",
      "SpacingBetweenSlices": 1.9999999599268,
      "SpecificCharacterSet": "ISO_IR 100",
      "StudyID": "1",
      "StudyTime": "104953.259000",
      "TransmitCoilName": "Body",
      "VariableFlipAngleFlag": "N",
      "WindowCenterWidthExplanation": "Algo1",
      "dBdt": 0.0},
    "slices": {}
  },
  "time": {
    "samples": {
      "AcquisitionNumber": [1, 2, 3, 4, 5, 6, 7, 8, 9, 10, 11, 12, 13, 14, 15, 16, 17, 18, 19, 20, 21, 22, 23, 24, 25, 26, 27, 28, 29, 30, 31, 32, 33, 34, 35, 36, 37, 38, 39, 40, 41, 42, 43, 44, 45, 46, 47, 48, 49, 50, 51, 52, 53, 54, 55, 56, 57, 58, 59, 60, 61, 62, 63, 64, 65, 66, 67, 68, 69, 70, 71, 72, 73, 74, 75, 76, 77, 78, 79, 80, 81, 82, 83, 84, 85, 86, 87, 88, 89, 90, 91, 92, 93, 94, 95, 96, 97, 98, 99, 100, 101, 102, 103, 104, 105, 106, 107, 108, 109, 110, 111, 112, 113, 114, 115, 116, 117, 118, 119, 120, 121, 122, 123, 124, 125, 126, 127, 128, 129],
      "AcquisitionTime": ["110030.620000", "110032.110000", "110033.600000", "110035.090000", "110036.580000", "110038.070000", "110039.560000", "110041.050000", "110042.540000", "110044.030000", "110045.520000", "110047.010000", "110048.500000", "110049.990000", "110051.480000", "110052.970000", "110054.460000", "110055.950000", "110057.440000", "110058.930000", "110100.420000", "110101.910000", "110103.400000", "110104.890000", "110106.380000", "110107.870000", "110109.360000", "110110.850000", "110112.340000", "110113.830000", "110115.320000", "110116.810000", "110118.300000", "110119.790000", "110121.280000", "110122.770000", "110124.260000", "110125.750000", "110127.240000", "110128.730000", "110130.220000", "110131.710000", "110133.200000", "110134.690000", "110136.180000", "110137.670000", "110139.160000", "110140.650000", "110142.140000", "110143.630000", "110145.120000", "110146.610000", "110148.100000", "110149.590000", "110151.080000", "110152.570000", "110154.060000", "110155.550000", "110157.040000", "110158.530000", "110200.020000", "110201.510000", "110203.000000", "110204.490000", "110205.980000", "110207.470000", "110208.960000", "110210.450000", "110211.940000", "110213.430000", "110214.920000", "110216.410000", "110217.900000", "110219.390000", "110220.880000", "110222.370000", "110223.860000", "110225.350000", "110226.840000", "110228.330000", "110229.820000", "110231.310000", "110232.800000", "110234.290000", "110235.780000", "110237.270000", "110238.760000", "110240.250000", "110241.740000", "110243.230000", "110244.720000", "110246.210000", "110247.700000", "110249.190000", "110250.680000", "110252.170000", "110253.660000", "110255.150000", "110256.640000", "110258.130000", "110259.620000", "110301.110000", "110302.600000", "110304.090000", "110305.580000", "110307.070000", "110308.560000", "110310.050000", "110311.540000", "110313.030000", "110314.520000", "110316.010000", "110317.500000", "110318.990000", "110320.480000", "110321.970000", "110323.460000", "110324.950000", "110326.440000", "110327.930000", "110329.420000", "110330.910000", "110332.400000", "110333.890000", "110335.380000", "110336.870000", "110338.360000", "110339.850000", "110341.340000"],
      "ContentTime": ["110135.855000", "110135.858000", "110135.861000", "110135.864000", "110135.867000", "110135.870000", "110135.880000", "110135.883000", "110135.886000", "110135.889000", "110135.892000", "110155.810000", "110155.813000", "110155.816000", "110155.819000", "110155.822000", "110155.825000", "110155.828000", "110155.831000", "110155.833000", "110155.836000", "110155.839000", "110155.842000", "110155.845000", "110155.848000", "110155.851000", "110155.854000", "110155.857000", "110155.860000", "110155.863000", "110155.866000", "110215.810000", "110215.813000", "110215.816000", "110215.819000", "110215.822000", "110215.825000", "110215.828000", "110215.831000", "110215.834000", "110215.836000", "110215.839000", "110215.842000", "110215.845000", "110215.848000", "110215.851000", "110215.854000", "110215.857000", "110215.860000", "110215.863000", "110215.866000", "110235.810000", "110235.813000", "110235.816000", "110235.819000", "110235.822000", "110235.837000", "110235.840000", "110235.843000", "110235.846000", "110235.854000", "110235.857000", "110235.859000", "110235.862000", "110235.866000", "110235.869000", "110235.871000", "110235.874000", "110235.877000", "110235.888000", "110235.891000", "110235.894000", "110255.809000", "110255.812000", "110255.815000", "110255.818000", "110255.821000", "110255.824000", "110255.827000", "110255.830000", "110255.833000", "110255.836000", "110255.839000", "110255.842000", "110255.845000", "110255.860000", "110255.863000", "110255.866000", "110255.869000", "110255.872000", "110255.875000", "110255.878000", "110335.810000", "110335.813000", "110335.817000", "110335.820000", "110335.823000", "110335.826000", "110335.835000", "110335.838000", "110335.841000", "110335.844000", "110335.847000", "110335.850000", "110335.853000", "110335.856000", "110335.859000", "110335.862000", "110335.865000", "110335.868000", "110335.871000", "110335.874000", "110335.878000", "110335.881000", "110335.884000", "110335.887000", "110335.890000", "110335.893000", "110335.896000", "110335.899000", "110335.902000", "110335.905000", "110335.908000", "110343.451000", "110343.454000", "110343.457000", "110343.460000", "110343.463000", "110343.466000"],
      "InstanceCreationTime": ["110135.855000", "110135.858000", "110135.861000", "110135.864000", "110135.867000", "110135.870000", "110135.880000", "110135.883000", "110135.886000", "110135.889000", "110135.892000", "110155.810000", "110155.813000", "110155.816000", "110155.819000", "110155.822000", "110155.825000", "110155.828000", "110155.831000", "110155.833000", "110155.836000", "110155.839000", "110155.842000", "110155.845000", "110155.848000", "110155.851000", "110155.854000", "110155.857000", "110155.860000", "110155.863000", "110155.866000", "110215.810000", "110215.813000", "110215.816000", "110215.819000", "110215.822000", "110215.825000", "110215.828000", "110215.831000", "110215.834000", "110215.836000", "110215.839000", "110215.842000", "110215.845000", "110215.848000", "110215.851000", "110215.854000", "110215.857000", "110215.860000", "110215.863000", "110215.866000", "110235.810000", "110235.813000", "110235.816000", "110235.819000", "110235.822000", "110235.837000", "110235.840000", "110235.843000", "110235.846000", "110235.854000", "110235.857000", "110235.859000", "110235.862000", "110235.866000", "110235.869000", "110235.871000", "110235.874000", "110235.877000", "110235.888000", "110235.891000", "110235.894000", "110255.809000", "110255.812000", "110255.815000", "110255.818000", "110255.821000", "110255.824000", "110255.827000", "110255.830000", "110255.833000", "110255.836000", "110255.839000", "110255.842000", "110255.845000", "110255.860000", "110255.863000", "110255.866000", "110255.869000", "110255.872000", "110255.875000", "110255.878000", "110335.810000", "110335.813000", "110335.817000", "110335.820000", "110335.823000", "110335.826000", "110335.835000", "110335.838000", "110335.841000", "110335.844000", "110335.847000", "110335.850000", "110335.853000", "110335.856000", "110335.859000", "110335.862000", "110335.865000", "110335.868000", "110335.871000", "110335.874000", "110335.878000", "110335.881000", "110335.884000", "110335.887000", "110335.890000", "110335.893000", "110335.896000", "110335.899000", "110335.902000", "110335.905000", "110335.908000", "110343.451000", "110343.454000", "110343.457000", "110343.460000", "110343.463000", "110343.466000"],
      "InstanceNumber": [1, 2, 3, 4, 5, 6, 7, 8, 9, 10, 11, 12, 13, 14, 15, 16, 17, 18, 19, 20, 21, 22, 23, 24, 25, 26, 27, 28, 29, 30, 31, 32, 33, 34, 35, 36, 37, 38, 39, 40, 41, 42, 43, 44, 45, 46, 47, 48, 49, 50, 51, 52, 53, 54, 55, 56, 57, 58, 59, 60, 61, 62, 63, 64, 65, 66, 67, 68, 69, 70, 71, 72, 73, 74, 75, 76, 77, 78, 79, 80, 81, 82, 83, 84, 85, 86, 87, 88, 89, 90, 91, 92, 93, 94, 95, 96, 97, 98, 99, 100, 101, 102, 103, 104, 105, 106, 107, 108, 109, 110, 111, 112, 113, 114, 115, 116, 117, 118, 119, 120, 121, 122, 123, 124, 125, 126, 127, 128, 129],
      "LargestImagePixelValue": [41503, 40219, 38992, 39119, 39041, 38535, 38750, 38831, 38711, 38509, 40094, 39996, 39458, 39073, 39588, 38807, 38916, 38961, 38749, 38677, 38472, 38865, 38736, 38882, 38624, 38764, 38869, 38811, 38760, 38120, 38718, 38838, 39223, 38613, 39053, 38964, 38762, 38709, 38873, 38660, 38529, 38381, 38207, 38396, 38933, 39405, 39175, 38661, 38766, 38648, 38376, 38151, 38555, 38824, 39141, 38900, 38623, 38449, 39016, 38911, 39166, 38559, 38581, 39069, 38570, 39133, 39132, 38438, 38898, 38862, 38786, 39032, 38335, 38538, 38686, 38459, 38159, 38674, 38691, 38662, 39163, 38955, 39091, 39148, 38667, 39090, 38915, 38678, 39006, 39207, 39029, 38973, 39213, 38450, 39188, 39459, 39478, 39333, 39058, 39169, 39277, 39535, 38948, 39173, 38801, 39309, 39192, 38999, 38909, 38822, 38851, 39223, 39514, 38847, 38998, 39211, 38974, 39182, 38859, 39193, 38541, 38839, 38551, 38671, 39028, 38794, 38911, 38445, 38499],
      "WindowCenter": [10028.0, 9994.0, 9964.0, 9958.0, 9932.0, 9914.0, 9920.0, 9937.0, 9949.0, 9960.0, 9987.0, 9987.0, 9965.0, 9969.0, 9975.0, 9960.0, 9960.0, 9958.0, 9959.0, 9959.0, 9968.0, 9970.0, 9962.0, 9957.0, 9939.0, 9937.0, 9945.0, 9950.0, 9942.0, 9926.0, 9922.0, 9921.0, 9928.0, 9921.0, 9928.0, 9937.0, 9947.0, 9949.0, 9949.0, 9948.0, 9965.0, 9962.0, 9952.0, 9933.0, 9921.0, 9919.0, 9926.0, 9944.0, 9949.0, 9958.0, 9950.0, 9935.0, 9925.0, 9923.0, 9946.0, 9958.0, 9949.0, 9924.0, 9919.0, 9919.0, 9935.0, 9932.0, 9933.0, 9924.0, 9923.0, 9921.0, 9938.0, 9941.0, 9946.0, 9940.0, 9955.0, 9957.0, 9958.0, 9944.0, 9942.0, 9943.0, 9953.0, 9952.0, 9949.0, 9941.0, 9957.0, 9966.0, 9967.0, 9950.0, 9934.0, 9929.0, 9915.0, 9907.0, 9918.0, 9921.0, 9933.0, 9940.0, 9933.0, 9919.0, 9922.0, 9923.0, 9923.0, 9921.0, 9913.0, 9904.0, 9903.0, 9917.0, 9929.0, 9938.0, 9924.0, 9913.0, 9910.0, 9911.0, 9928.0, 9931.0, 9923.0, 9919.0, 9919.0, 9923.0, 9939.0, 9948.0, 9949.0, 9941.0, 9932.0, 9940.0, 9950.0, 9942.0, 9935.0, 9926.0, 9925.0, 9934.0, 9949.0, 9943.0, 9927.0],
      "WindowWidth": [21292.0, 21196.0, 21122.0, 21095.0, 21033.0, 20995.0, 21002.0, 21039.0, 21068.0, 21096.0, 21153.0, 21151.0, 21106.0, 21119.0, 21131.0, 21101.0, 21100.0, 21096.0, 21098.0, 21098.0, 21118.0, 21123.0, 21105.0, 21088.0, 21049.0, 21042.0, 21060.0, 21078.0, 21059.0, 21022.0, 21009.0, 21009.0, 21024.0, 21008.0, 21022.0, 21044.0, 21068.0, 21073.0, 21074.0, 21071.0, 21110.0, 21106.0, 21081.0, 21036.0, 21005.0, 21002.0, 21020.0, 21061.0, 21074.0, 21092.0, 21074.0, 21039.0, 21016.0, 21012.0, 21062.0, 21093.0, 21070.0, 21013.0, 21000.0, 21001.0, 21039.0, 21037.0, 21037.0, 21017.0, 21012.0, 21009.0, 21045.0, 21054.0, 21064.0, 21053.0, 21085.0, 21093.0, 21094.0, 21064.0, 21057.0, 21061.0, 21083.0, 21079.0, 21069.0, 21053.0, 21088.0, 21109.0, 21114.0, 21075.0, 21038.0, 21023.0, 20994.0, 20975.0, 20994.0, 21004.0, 21034.0, 21047.0, 21033.0, 21004.0, 21009.0, 21012.0, 21014.0, 21007.0, 20990.0, 20969.0, 20966.0, 20996.0, 21024.0, 21044.0, 21016.0, 20987.0, 20979.0, 20984.0, 21022.0, 21028.0, 21011.0, 20997.0, 20998.0, 21012.0, 21046.0, 21066.0, 21069.0, 21051.0, 21030.0, 21048.0, 21071.0, 21055.0, 21040.0, 21019.0, 21016.0, 21040.0, 21072.0, 21058.0, 21021.0]
    },
    "slices": {}
  }
}