{
  "AcquisitionMatrixPE": 104,
  "AcquisitionNumber": 1,
  "AcquisitionTime": "11:53:52.140000",
  "BandwidthPerPixelPhaseEncode": 17.17,
  "BaseResolution": 104,
  "BodyPartExamined": "BRAIN",
  "CoilString": "HC1-7;NC1_2",
  "ConsistencyInfo": "N4_VE11C_LATEST_20160120",
  "ConversionSoftware": "dcm2niix",
  "ConversionSoftwareVersion": "v1.0.20190720  (JP2:OpenJPEG) GCC7.3.0",
  "DerivedVendorReportedEchoSpacing": 0.000560011,
  "DeviceSerialNumber": "167006",
  "DwellTime": 2.1e-06,
  "EchoTime": 0.037,
  "EchoTrainLength": 104,
  "EffectiveEchoSpacing": 0.000560011,
  "FlipAngle": 52,
  "ImageComments": "Unaliased_MB4_PE3_LB",
  "ImageOrientationPatientDICOM": [0.999923, -0.010232, 0.00702888, 0.0120424, 0.936983, -0.349167],
  "ImageType": [
    "ORIGINAL",
    "PRIMARY",
    "M",
    "MB",
    "ND",
    "MOSAIC"
],
  "ImagingFrequency": 123.26,
  "InPlanePhaseEncodingDirectionDICOM": "COL",
  "InstitutionAddress": "Chemin_Queen-Mary_4565_Montreal_District_CA_H3W_1W5",
  "InstitutionName": "IUGM",
  "InstitutionalDepartmentName": "Department",
  "MRAcquisitionType": "2D",
  "MagneticFieldStrength": 3,
  "Manufacturer": "Siemens",
  "ManufacturersModelName": "Prisma_fit",
  "Modality": "MR",
  "MultibandAccelerationFactor": 4,
  "PartialFourier": 1,
  "PatientPosition": "HFS",
  "PercentPhaseFOV": 100,
  "PhaseEncodingDirection": "j",
  "PhaseEncodingSteps": 104,
  "PhaseResolution": 1,
  "PixelBandwidth": 2290,
  "ProcedureStepDescription": "hcptrt_generic",
  "ProtocolName": "func_task-gambling_run-2",
  "PulseSequenceDetails": "%CustomerSeq%_cmrr_mbep2d_bold",
  "ReceiveCoilActiveElements": "HC1-7;NC1,2",
  "ReceiveCoilName": "HeadNeck_64",
  "ReconMatrixPE": 104,
  "RepetitionTime": 1.49,
  "SAR": 0.0286489,
  "ScanOptions": "FS",
  "ScanningSequence": "EP",
  "SequenceName": "epfid2d1_104",
  "SequenceVariant": "SK_SS",
  "SeriesDescription": "func_task-gambling_run-2",
  "SeriesNumber": 29,
  "ShimSetting": [621, -7142, -8816, 662, 4, 183, 16, -27],
  "SliceThickness": 2,
  "SliceTiming": [0, 0.785, 0.1, 0.8825, 0.1975, 0.98, 0.295, 1.08, 0.3925, 1.1775, 0.49, 1.275, 0.59, 1.3725, 0.6875, 0, 0.785, 0.1, 0.8825, 0.1975, 0.98, 0.295, 1.08, 0.3925, 1.1775, 0.49, 1.275, 0.59, 1.3725, 0.6875, 0, 0.785, 0.1, 0.8825, 0.1975, 0.98, 0.295, 1.08, 0.3925, 1.1775, 0.49, 1.275, 0.59, 1.3725, 0.6875, 0, 0.785, 0.1, 0.8825, 0.1975, 0.98, 0.295, 1.08, 0.3925, 1.1775, 0.49, 1.275, 0.59, 1.3725, 0.6875],
  "SoftwareVersions": "syngo_MR_E11",
  "SpacingBetweenSlices": 2,
  "StationName": "MRC35049",
  "TaskName": "gambling",
  "TotalReadoutTime": 0.0576811,
  "TxRefAmp": 208.776,
  "WipMemBlock": "96fe3ffb-55ba-41ed-bd44-44b7ee2d0415||Sequence: R016 ve11c/master r/e634e98; Dec 19 2017 11:00:25 by eja",
  "dcmmeta_affine": [
    [-1.9998458623886108, 0.024084756150841713, 0.006026542745530605, 107.55624389648438],
    [0.020463963970541954, 1.8739659786224365, -0.6984502077102661, -68.5918960571289],
    [0.014057769440114498, 0.6983346939086914, 1.874068021774292, -69.0165023803711],
    [0.0, 0.0, 0.0, 1.0]
],
  "dcmmeta_reorient_transform": [
    [0.0, -1.0, 0.0, 103.0],
    [1.0, 0.0, 0.0, 0.0],
    [0.0, 0.0, 1.0, 0.0],
    [0.0, 0.0, 0.0, 1.0]
],
  "dcmmeta_shape": [104, 104, 60, 129],
  "dcmmeta_slice_dim": 2,
  "dcmmeta_version": 0.6,
  "global": {
    "const": {
      "AcquisitionMatrix": [104, 0, 0, 104],
      "AngioFlag": "N",
      "BitsAllocated": 16,
      "BitsStored": 16,
      "BodyPartExamined": "BRAIN",
      "Columns": 832,
      "EchoNumbers": 1,
      "EchoTime": 37.0,
      "EchoTrainLength": 104,
      "FlipAngle": 52.0,
      "HighBit": 15,
      "ImageOrientationPatient": [0.99992294769038, -0.0102319822299, 0.00702888482172, 0.01204237842129, 0.93698299645996, -0.3491673602542],
      "ImagePositionPatient": [-846.74773145262, -799.10134228303, 251.98878233008],
      "ImageType": [
        "ORIGINAL",
        "PRIMARY",
        "M",
        "MB",
        "ND",
        "MOSAIC"
],
      "ImagedNucleus": "1H",
      "ImagingFrequency": 123.259565,
      "InPlanePhaseEncodingDirection": "COL",
      "MRAcquisitionType": "2D",
      "MagneticFieldStrength": 3.0,
      "Manufacturer": "SIEMENS",
      "ManufacturerModelName": "Prisma_fit",
      "Modality": "MR",
      "NumberOfAverages": 1.0,
      "NumberOfPhaseEncodingSteps": 104,
      "PercentPhaseFieldOfView": 100.0,
      "PercentSampling": 100.0,
      "PerformedProcedureStepStartTime": "104953.312000",
      "PhotometricInterpretation": "MONOCHROME2",
      "PixelBandwidth": 2290.0,
      "PixelRepresentation": 0,
      "PixelSpacing": [2.0, 2.0],
      "ProtocolName": "func_task-gambling_run-2",
      "RepetitionTime": 1490.0,
      "Rows": 832,
      "SAR": 0.02864891484124,
      "SamplesPerPixel": 1,
      "ScanOptions": "FS",
      "ScanningSequence": "EP",
      "SequenceName": "epfid2d1_104",
      "SequenceVariant": [
        "SK",
        "SS"
],
      "SeriesDescription": "func_task-gambling_run-2",
      "SeriesNumber": 29,
      "SeriesTime": "115511.216000",
      "SliceLocation": -40.392704989152,
      "SliceThickness": 2.0,
      "SmallestImagePixelValue": 0,
      "SoftwareVersions": "syngo MR E11",
      "SpacingBetweenSlices": 1.9999999599268,
      "SpecificCharacterSet": "ISO_IR 100",
      "StudyID": "1",
      "StudyTime": "104953.259000",
      "TransmitCoilName": "Body",
      "VariableFlipAngleFlag": "N",
      "WindowCenterWidthExplanation": "Algo1",
      "dBdt": 0.0},
    "slices": {}
  },
  "time": {
    "samples": {
      "AcquisitionNumber": [1, 2, 3, 4, 5, 6, 7, 8, 9, 10, 11, 12, 13, 14, 15, 16, 17, 18, 19, 20, 21, 22, 23, 24, 25, 26, 27, 28, 29, 30, 31, 32, 33, 34, 35, 36, 37, 38, 39, 40, 41, 42, 43, 44, 45, 46, 47, 48, 49, 50, 51, 52, 53, 54, 55, 56, 57, 58, 59, 60, 61, 62, 63, 64, 65, 66, 67, 68, 69, 70, 71, 72, 73, 74, 75, 76, 77, 78, 79, 80, 81, 82, 83, 84, 85, 86, 87, 88, 89, 90, 91, 92, 93, 94, 95, 96, 97, 98, 99, 100, 101, 102, 103, 104, 105, 106, 107, 108, 109, 110, 111, 112, 113, 114, 115, 116, 117, 118, 119, 120, 121, 122, 123, 124, 125, 126, 127, 128, 129],
      "AcquisitionTime": ["115352.140000", "115353.630000", "115355.120000", "115356.610000", "115358.100000", "115359.590000", "115401.080000", "115402.570000", "115404.060000", "115405.550000", "115407.040000", "115408.530000", "115410.020000", "115411.510000", "115413.000000", "115414.490000", "115415.980000", "115417.470000", "115418.960000", "115420.450000", "115421.940000", "115423.430000", "115424.920000", "115426.410000", "115427.900000", "115429.390000", "115430.880000", "115432.370000", "115433.860000", "115435.350000", "115436.840000", "115438.330000", "115439.820000", "115441.310000", "115442.800000", "115444.290000", "115445.780000", "115447.270000", "115448.760000", "115450.250000", "115451.740000", "115453.230000", "115454.720000", "115456.210000", "115457.700000", "115459.190000", "115500.680000", "115502.170000", "115503.660000", "115505.150000", "115506.640000", "115508.130000", "115509.620000", "115511.110000", "115512.600000", "115514.090000", "115515.580000", "115517.070000", "115518.560000", "115520.050000", "115521.540000", "115523.030000", "115524.520000", "115526.010000", "115527.500000", "115528.990000", "115530.480000", "115531.970000", "115533.460000", "115534.950000", "115536.440000", "115537.930000", "115539.420000", "115540.910000", "115542.400000", "115543.890000", "115545.380000", "115546.870000", "115548.360000", "115549.850000", "115551.340000", "115552.830000", "115554.320000", "115555.810000", "115557.300000", "115558.790000", "115600.280000", "115601.770000", "115603.260000", "115604.750000", "115606.240000", "115607.730000", "115609.220000", "115610.710000", "115612.200000", "115613.690000", "115615.180000", "115616.670000", "115618.160000", "115619.650000", "115621.140000", "115622.630000", "115624.120000", "115625.610000", "115627.100000", "115628.590000", "115630.080000", "115631.570000", "115633.060000", "115634.550000", "115636.040000", "115637.530000", "115639.020000", "115640.510000", "115642.000000", "115643.490000", "115644.980000", "115646.470000", "115647.960000", "115649.450000", "115650.940000", "115652.430000", "115653.920000", "115655.410000", "115656.900000", "115658.390000", "115659.880000", "115701.370000", "115702.860000"],
      "ContentTime": ["115511.219000", "115511.222000", "115511.226000", "115511.238000", "115511.241000", "115511.244000", "115511.247000", "115511.250000", "115511.254000", "115511.260000", "115511.264000", "115511.267000", "115511.270000", "115511.273000", "115511.276000", "115511.279000", "115511.282000", "115511.285000", "115511.288000", "115511.291000", "115511.294000", "115511.297000", "115511.300000", "115511.303000", "115511.306000", "115531.187000", "115531.190000", "115531.193000", "115531.196000", "115531.199000", "115531.202000", "115531.205000", "115531.208000", "115531.211000", "115531.214000", "115531.217000", "115531.220000", "115531.223000", "115531.232000", "115531.234000", "115531.237000", "115531.240000", "115531.243000", "115531.250000", "115531.253000", "115531.256000", "115551.186000", "115551.189000", "115551.192000", "115551.195000", "115551.198000", "115551.201000", "115551.204000", "115551.207000", "115551.210000", "115551.213000", "115551.216000", "115551.219000", "115551.222000", "115551.225000", "115551.228000", "115551.231000", "115551.233000", "115551.236000", "115551.239000", "115551.242000", "115611.186000", "115611.189000", "115611.192000", "115611.195000", "115611.198000", "115611.202000", "115611.205000", "115611.208000", "115611.211000", "115611.214000", "115611.217000", "115611.233000", "115611.236000", "115611.239000", "115611.242000", "115611.245000", "115611.248000", "115611.251000", "115611.254000", "115611.257000", "115631.186000", "115631.189000", "115631.192000", "115631.204000", "115631.207000", "115631.210000", "115631.213000", "115631.216000", "115631.218000", "115631.221000", "115631.224000", "115631.227000", "115631.230000", "115631.233000", "115631.236000", "115631.239000", "115631.242000", "115631.245000", "115631.248000", "115631.251000", "115705.461000", "115705.465000", "115705.469000", "115705.472000", "115705.475000", "115705.478000", "115705.481000", "115705.485000", "115705.488000", "115705.491000", "115705.494000", "115705.503000", "115705.506000", "115705.509000", "115705.512000", "115705.515000", "115705.518000", "115705.521000", "115705.524000", "115705.527000", "115705.530000", "115705.533000", "115705.536000"],
      "InstanceCreationTime": ["115511.219000", "115511.222000", "115511.226000", "115511.238000", "115511.241000", "115511.244000", "115511.247000", "115511.250000", "115511.254000", "115511.260000", "115511.264000", "115511.267000", "115511.270000", "115511.273000", "115511.276000", "115511.279000", "115511.282000", "115511.285000", "115511.288000", "115511.291000", "115511.294000", "115511.297000", "115511.300000", "115511.303000", "115511.306000", "115531.187000", "115531.190000", "115531.193000", "115531.196000", "115531.199000", "115531.202000", "115531.205000", "115531.208000", "115531.211000", "115531.214000", "115531.217000", "115531.220000", "115531.223000", "115531.232000", "115531.234000", "115531.237000", "115531.240000", "115531.243000", "115531.250000", "115531.253000", "115531.256000", "115551.186000", "115551.189000", "115551.192000", "115551.195000", "115551.198000", "115551.201000", "115551.204000", "115551.207000", "115551.210000", "115551.213000", "115551.216000", "115551.219000", "115551.222000", "115551.225000", "115551.228000", "115551.231000", "115551.233000", "115551.236000", "115551.239000", "115551.242000", "115611.186000", "115611.189000", "115611.192000", "115611.195000", "115611.198000", "115611.202000", "115611.205000", "115611.208000", "115611.211000", "115611.214000", "115611.217000", "115611.233000", "115611.236000", "115611.239000", "115611.242000", "115611.245000", "115611.248000", "115611.251000", "115611.254000", "115611.257000", "115631.186000", "115631.189000", "115631.192000", "115631.204000", "115631.207000", "115631.210000", "115631.213000", "115631.216000", "115631.218000", "115631.221000", "115631.224000", "115631.227000", "115631.230000", "115631.233000", "115631.236000", "115631.239000", "115631.242000", "115631.245000", "115631.248000", "115631.251000", "115705.461000", "115705.465000", "115705.469000", "115705.472000", "115705.475000", "115705.478000", "115705.481000", "115705.485000", "115705.488000", "115705.491000", "115705.494000", "115705.503000", "115705.506000", "115705.509000", "115705.512000", "115705.515000", "115705.518000", "115705.521000", "115705.524000", "115705.527000", "115705.530000", "115705.533000", "115705.536000"],
      "InstanceNumber": [1, 2, 3, 4, 5, 6, 7, 8, 9, 10, 11, 12, 13, 14, 15, 16, 17, 18, 19, 20, 21, 22, 23, 24, 25, 26, 27, 28, 29, 30, 31, 32, 33, 34, 35, 36, 37, 38, 39, 40, 41, 42, 43, 44, 45, 46, 47, 48, 49, 50, 51, 52, 53, 54, 55, 56, 57, 58, 59, 60, 61, 62, 63, 64, 65, 66, 67, 68, 69, 70, 71, 72, 73, 74, 75, 76, 77, 78, 79, 80, 81, 82, 83, 84, 85, 86, 87, 88, 89, 90, 91, 92, 93, 94, 95, 96, 97, 98, 99, 100, 101, 102, 103, 104, 105, 106, 107, 108, 109, 110, 111, 112, 113, 114, 115, 116, 117, 118, 119, 120, 121, 122, 123, 124, 125, 126, 127, 128, 129],
      "LargestImagePixelValue": [40885, 39936, 39002, 39071, 38497, 38111, 38391, 38471, 38545, 38332, 38028, 38289, 38350, 38398, 38498, 38403, 38450, 37663, 37878, 38265, 38248, 38005, 38472, 38281, 38466, 38486, 38516, 38804, 38720, 38624, 38387, 38347, 38064, 38277, 38378, 38191, 38414, 38570, 38583, 38561, 38111, 38351, 38615, 38307, 38669, 38294, 38518, 37922, 38018, 37856, 38736, 38762, 38344, 38064, 38003, 38516, 38263, 38330, 38056, 38301, 38313, 38291, 38555, 38620, 38524, 38523, 38496, 38567, 38758, 38308, 38545, 38512, 38601, 38345, 37990, 38112, 38373, 37730, 37769, 37989, 38317, 38450, 38913, 38274, 38332, 38096, 38546, 38449, 38411, 38199, 38212, 38041, 38309, 38370, 38697, 38181, 38756, 38112, 38048, 38171, 38533, 38283, 38510, 38013, 38110, 38248, 38435, 38528, 38088, 38417, 38328, 38482, 38412, 38333, 38230, 38558, 38590, 38170, 37600, 38291, 38335, 38307, 38089, 38614, 38256, 38293, 37917, 37865, 38233],
      "WindowCenter": [9918.0, 9894.0, 9878.0, 9869.0, 9863.0, 9862.0, 9860.0, 9844.0, 9858.0, 9869.0, 9863.0, 9861.0, 9850.0, 9850.0, 9851.0, 9860.0, 9862.0, 9855.0, 9847.0, 9857.0, 9868.0, 9864.0, 9869.0, 9858.0, 9835.0, 9824.0, 9814.0, 9821.0, 9830.0, 9837.0, 9834.0, 9838.0, 9844.0, 9858.0, 9859.0, 9843.0, 9834.0, 9838.0, 9839.0, 9847.0, 9842.0, 9841.0, 9833.0, 9832.0, 9837.0, 9849.0, 9855.0, 9856.0, 9837.0, 9820.0, 9829.0, 9831.0, 9840.0, 9836.0, 9835.0, 9832.0, 9825.0, 9833.0, 9835.0, 9833.0, 9825.0, 9823.0, 9823.0, 9830.0, 9831.0, 9832.0, 9848.0, 9857.0, 9856.0, 9843.0, 9833.0, 9831.0, 9839.0, 9850.0, 9854.0, 9871.0, 9891.0, 9876.0, 9856.0, 9829.0, 9816.0, 9822.0, 9836.0, 9848.0, 9834.0, 9817.0, 9816.0, 9830.0, 9842.0, 9845.0, 9837.0, 9827.0, 9816.0, 9814.0, 9814.0, 9823.0, 9839.0, 9836.0, 9828.0, 9819.0, 9823.0, 9821.0, 9822.0, 9832.0, 9835.0, 9842.0, 9843.0, 9848.0, 9851.0, 9852.0, 9851.0, 9842.0, 9841.0, 9844.0, 9854.0, 9871.0, 9871.0, 9865.0, 9849.0, 9844.0, 9849.0, 9845.0, 9842.0, 9845.0, 9850.0, 9859.0, 9850.0, 9846.0, 9835.0],
      "WindowWidth": [21021.0, 20945.0, 20901.0, 20878.0, 20863.0, 20859.0, 20851.0, 20818.0, 20846.0, 20870.0, 20860.0, 20852.0, 20827.0, 20828.0, 20834.0, 20854.0, 20859.0, 20844.0, 20827.0, 20844.0, 20870.0, 20864.0, 20871.0, 20843.0, 20791.0, 20769.0, 20748.0, 20763.0, 20784.0, 20799.0, 20793.0, 20799.0, 20816.0, 20845.0, 20849.0, 20810.0, 20792.0, 20796.0, 20802.0, 20818.0, 20812.0, 20808.0, 20792.0, 20788.0, 20798.0, 20829.0, 20847.0, 20847.0, 20803.0, 20764.0, 20778.0, 20787.0, 20807.0, 20801.0, 20799.0, 20790.0, 20776.0, 20790.0, 20796.0, 20791.0, 20773.0, 20765.0, 20766.0, 20783.0, 20783.0, 20787.0, 20821.0, 20841.0, 20837.0, 20810.0, 20790.0, 20786.0, 20805.0, 20832.0, 20843.0, 20879.0, 20924.0, 20892.0, 20843.0, 20781.0, 20750.0, 20763.0, 20796.0, 20824.0, 20793.0, 20757.0, 20754.0, 20784.0, 20810.0, 20816.0, 20800.0, 20776.0, 20752.0, 20748.0, 20746.0, 20766.0, 20802.0, 20800.0, 20781.0, 20762.0, 20768.0, 20761.0, 20764.0, 20788.0, 20800.0, 20812.0, 20814.0, 20824.0, 20832.0, 20834.0, 20832.0, 20811.0, 20807.0, 20818.0, 20842.0, 20880.0, 20883.0, 20869.0, 20833.0, 20817.0, 20823.0, 20819.0, 20810.0, 20819.0, 20829.0, 20849.0, 20834.0, 20823.0, 20796.0]
    },
    "slices": {}
  }
}