{
  "AcquisitionMatrixPE": 104,
  "AcquisitionNumber": 1,
  "AcquisitionTime": "11:24:6.090000",
  "BandwidthPerPixelPhaseEncode": 17.17,
  "BaseResolution": 104,
  "BodyPartExamined": "BRAIN",
  "CoilString": "HC1-7;NC1_2",
  "ConsistencyInfo": "N4_VE11C_LATEST_20160120",
  "ConversionSoftware": "dcm2niix",
  "ConversionSoftwareVersion": "v1.0.20190720  (JP2:OpenJPEG) GCC7.3.0",
  "DerivedVendorReportedEchoSpacing": 0.000560011,
  "DeviceSerialNumber": "167006",
  "DwellTime": 2.1e-06,
  "EchoTime": 0.037,
  "EchoTrainLength": 104,
  "EffectiveEchoSpacing": 0.000560011,
  "FlipAngle": 52,
  "ImageComments": "Unaliased_MB4_PE3_LB",
  "ImageOrientationPatientDICOM": [0.999923, -0.010232, 0.00702888, 0.0120424, 0.936983, -0.349167],
  "ImageType": [
    "ORIGINAL",
    "PRIMARY",
    "M",
    "MB",
    "ND",
    "MOSAIC"
],
  "ImagingFrequency": 123.26,
  "InPlanePhaseEncodingDirectionDICOM": "COL",
  "InstitutionAddress": "Chemin_Queen-Mary_4565_Montreal_District_CA_H3W_1W5",
  "InstitutionName": "IUGM",
  "InstitutionalDepartmentName": "Department",
  "MRAcquisitionType": "2D",
  "MagneticFieldStrength": 3,
  "Manufacturer": "Siemens",
  "ManufacturersModelName": "Prisma_fit",
  "Modality": "MR",
  "MultibandAccelerationFactor": 4,
  "PartialFourier": 1,
  "PatientPosition": "HFS",
  "PercentPhaseFOV": 100,
  "PhaseEncodingDirection": "j",
  "PhaseEncodingSteps": 104,
  "PhaseResolution": 1,
  "PixelBandwidth": 2290,
  "ProcedureStepDescription": "hcptrt_generic",
  "ProtocolName": "func_task-motor_run-1",
  "PulseSequenceDetails": "%CustomerSeq%_cmrr_mbep2d_bold",
  "ReceiveCoilActiveElements": "HC1-7;NC1,2",
  "ReceiveCoilName": "HeadNeck_64",
  "ReconMatrixPE": 104,
  "RepetitionTime": 1.49,
  "SAR": 0.028692,
  "ScanOptions": "FS",
  "ScanningSequence": "EP",
  "SequenceName": "epfid2d1_104",
  "SequenceVariant": "SK_SS",
  "SeriesDescription": "func_task-motor_run-1",
  "SeriesNumber": 13,
  "ShimSetting": [621, -7142, -8816, 662, 4, 183, 16, -27],
  "SliceThickness": 2,
  "SliceTiming": [0, 0.785, 0.0975, 0.8825, 0.195, 0.98, 0.295, 1.0775, 0.3925, 1.175, 0.49, 1.275, 0.5875, 1.3725, 0.685, 0, 0.785, 0.0975, 0.8825, 0.195, 0.98, 0.295, 1.0775, 0.3925, 1.175, 0.49, 1.275, 0.5875, 1.3725, 0.685, 0, 0.785, 0.0975, 0.8825, 0.195, 0.98, 0.295, 1.0775, 0.3925, 1.175, 0.49, 1.275, 0.5875, 1.3725, 0.685, 0, 0.785, 0.0975, 0.8825, 0.195, 0.98, 0.295, 1.0775, 0.3925, 1.175, 0.49, 1.275, 0.5875, 1.3725, 0.685],
  "SoftwareVersions": "syngo_MR_E11",
  "SpacingBetweenSlices": 2,
  "StationName": "MRC35049",
  "TaskName": "motor",
  "TotalReadoutTime": 0.0576811,
  "TxRefAmp": 208.776,
  "WipMemBlock": "36183356-8ef0-4a79-a004-9bf88815121b||Sequence: R016 ve11c/master r/e634e98; Dec 19 2017 11:00:25 by eja",
  "dcmmeta_affine": [
    [-1.9998458623886108, 0.024084756150841713, 0.006026542745530605, 107.55624389648438],
    [0.020463963970541954, 1.8739659786224365, -0.6984502077102661, -68.5918960571289],
    [0.014057769440114498, 0.6983346939086914, 1.874068021774292, -69.0165023803711],
    [0.0, 0.0, 0.0, 1.0]
],
  "dcmmeta_reorient_transform": [
    [0.0, -1.0, 0.0, 103.0],
    [1.0, 0.0, 0.0, 0.0],
    [0.0, 0.0, 1.0, 0.0],
    [0.0, 0.0, 0.0, 1.0]
],
  "dcmmeta_shape": [104, 104, 60, 144],
  "dcmmeta_slice_dim": 2,
  "dcmmeta_version": 0.6,
  "global": {
    "const": {
      "AcquisitionMatrix": [104, 0, 0, 104],
      "AngioFlag": "N",
      "BitsAllocated": 16,
      "BitsStored": 16,
      "BodyPartExamined": "BRAIN",
      "Columns": 832,
      "EchoNumbers": 1,
      "EchoTime": 37.0,
      "EchoTrainLength": 104,
      "FlipAngle": 52.0,
      "HighBit": 15,
      "ImageOrientationPatient": [0.99992294769038, -0.0102319822299, 0.00702888482172, 0.01204237842129, 0.93698299645996, -0.3491673602542],
      "ImagePositionPatient": [-846.74773145262, -799.10134228303, 251.98878233008],
      "ImageType": [
        "ORIGINAL",
        "PRIMARY",
        "M",
        "MB",
        "ND",
        "MOSAIC"
],
      "ImagedNucleus": "1H",
      "ImagingFrequency": 123.259558,
      "InPlanePhaseEncodingDirection": "COL",
      "MRAcquisitionType": "2D",
      "MagneticFieldStrength": 3.0,
      "Manufacturer": "SIEMENS",
      "ManufacturerModelName": "Prisma_fit",
      "Modality": "MR",
      "NumberOfAverages": 1.0,
      "NumberOfPhaseEncodingSteps": 104,
      "PercentPhaseFieldOfView": 100.0,
      "PercentSampling": 100.0,
      "PerformedProcedureStepStartTime": "104953.312000",
      "PhotometricInterpretation": "MONOCHROME2",
      "PixelBandwidth": 2290.0,
      "PixelRepresentation": 0,
      "PixelSpacing": [2.0, 2.0],
      "ProtocolName": "func_task-motor_run-1",
      "RepetitionTime": 1490.0,
      "Rows": 832,
      "SAR": 0.02869195790672,
      "SamplesPerPixel": 1,
      "ScanOptions": "FS",
      "ScanningSequence": "EP",
      "SequenceName": "epfid2d1_104",
      "SequenceVariant": [
        "SK",
        "SS"
],
      "SeriesDescription": "func_task-motor_run-1",
      "SeriesNumber": 13,
      "SeriesTime": "112515.851000",
      "SliceLocation": -40.392704989152,
      "SliceThickness": 2.0,
      "SmallestImagePixelValue": 0,
      "SoftwareVersions": "syngo MR E11",
      "SpacingBetweenSlices": 1.9999999599268,
      "SpecificCharacterSet": "ISO_IR 100",
      "StudyID": "1",
      "StudyTime": "104953.259000",
      "TransmitCoilName": "Body",
      "VariableFlipAngleFlag": "N",
      "WindowCenterWidthExplanation": "Algo1",
      "dBdt": 0.0},
    "slices": {}
  },
  "time": {
    "samples": {
      "AcquisitionNumber": [1, 2, 3, 4, 5, 6, 7, 8, 9, 10, 11, 12, 13, 14, 15, 16, 17, 18, 19, 20, 21, 22, 23, 24, 25, 26, 27, 28, 29, 30, 31, 32, 33, 34, 35, 36, 37, 38, 39, 40, 41, 42, 43, 44, 45, 46, 47, 48, 49, 50, 51, 52, 53, 54, 55, 56, 57, 58, 59, 60, 61, 62, 63, 64, 65, 66, 67, 68, 69, 70, 71, 72, 73, 74, 75, 76, 77, 78, 79, 80, 81, 82, 83, 84, 85, 86, 87, 88, 89, 90, 91, 92, 93, 94, 95, 96, 97, 98, 99, 100, 101, 102, 103, 104, 105, 106, 107, 108, 109, 110, 111, 112, 113, 114, 115, 116, 117, 118, 119, 120, 121, 122, 123, 124, 125, 126, 127, 128, 129, 130, 131, 132, 133, 134, 135, 136, 137, 138, 139, 140, 141, 142, 143, 144],
      "AcquisitionTime": ["112406.090000", "112407.580000", "112409.070000", "112410.560000", "112412.050000", "112413.540000", "112415.030000", "112416.520000", "112418.010000", "112419.500000", "112420.990000", "112422.480000", "112423.970000", "112425.460000", "112426.950000", "112428.440000", "112429.930000", "112431.420000", "112432.910000", "112434.400000", "112435.890000", "112437.380000", "112438.870000", "112440.360000", "112441.850000", "112443.340000", "112444.830000", "112446.320000", "112447.810000", "112449.300000", "112450.790000", "112452.280000", "112453.770000", "112455.260000", "112456.750000", "112458.240000", "112459.730000", "112501.220000", "112502.710000", "112504.200000", "112505.690000", "112507.180000", "112508.670000", "112510.160000", "112511.650000", "112513.140000", "112514.630000", "112516.120000", "112517.610000", "112519.100000", "112520.590000", "112522.080000", "112523.570000", "112525.060000", "112526.550000", "112528.040000", "112529.530000", "112531.020000", "112532.510000", "112534.000000", "112535.490000", "112536.980000", "112538.470000", "112539.960000", "112541.450000", "112542.940000", "112544.430000", "112545.920000", "112547.410000", "112548.900000", "112550.390000", "112551.880000", "112553.370000", "112554.860000", "112556.350000", "112557.840000", "112559.330000", "112600.820000", "112602.310000", "112603.800000", "112605.290000", "112606.780000", "112608.270000", "112609.760000", "112611.250000", "112612.740000", "112614.230000", "112615.720000", "112617.210000", "112618.700000", "112620.190000", "112621.680000", "112623.170000", "112624.660000", "112626.150000", "112627.640000", "112629.130000", "112630.620000", "112632.110000", "112633.600000", "112635.090000", "112636.580000", "112638.070000", "112639.560000", "112641.050000", "112642.540000", "112644.030000", "112645.520000", "112647.010000", "112648.500000", "112649.990000", "112651.480000", "112652.970000", "112654.460000", "112655.950000", "112657.440000", "112658.930000", "112700.420000", "112701.910000", "112703.400000", "112704.890000", "112706.380000", "112707.870000", "112709.360000", "112710.850000", "112712.340000", "112713.830000", "112715.320000", "112716.810000", "112718.300000", "112719.790000", "112721.280000", "112722.770000", "112724.260000", "112725.750000", "112727.240000", "112728.730000", "112730.220000", "112731.710000", "112733.200000", "112734.690000", "112736.180000", "112737.670000", "112739.160000"],
      "ContentTime": ["112515.853000", "112515.857000", "112515.860000", "112515.863000", "112515.866000", "112515.869000", "112515.872000", "112515.881000", "112515.884000", "112515.887000", "112515.893000", "112515.896000", "112515.899000", "112535.810000", "112535.813000", "112535.823000", "112535.826000", "112535.829000", "112535.832000", "112535.835000", "112535.838000", "112535.840000", "112535.843000", "112535.846000", "112535.850000", "112535.853000", "112535.856000", "112535.858000", "112535.861000", "112535.864000", "112535.867000", "112535.870000", "112535.873000", "112555.809000", "112555.812000", "112555.815000", "112555.818000", "112555.821000", "112555.825000", "112555.828000", "112555.831000", "112555.834000", "112555.837000", "112555.840000", "112555.843000", "112555.846000", "112555.849000", "112555.852000", "112555.855000", "112555.858000", "112555.861000", "112555.864000", "112555.867000", "112615.809000", "112615.812000", "112615.815000", "112615.818000", "112615.821000", "112615.824000", "112615.827000", "112615.830000", "112615.833000", "112615.836000", "112615.839000", "112615.843000", "112615.846000", "112615.849000", "112615.851000", "112615.854000", "112615.857000", "112615.861000", "112615.864000", "112615.867000", "112615.870000", "112635.810000", "112635.813000", "112635.816000", "112635.819000", "112635.822000", "112635.825000", "112635.834000", "112635.837000", "112635.840000", "112635.843000", "112635.846000", "112635.849000", "112635.852000", "112635.855000", "112635.858000", "112635.861000", "112635.864000", "112635.868000", "112635.871000", "112635.873000", "112715.810000", "112715.813000", "112715.817000", "112715.820000", "112715.822000", "112715.825000", "112715.829000", "112715.831000", "112715.834000", "112715.838000", "112715.841000", "112715.843000", "112715.846000", "112715.850000", "112715.853000", "112715.856000", "112715.859000", "112715.862000", "112715.865000", "112715.868000", "112715.870000", "112715.873000", "112715.876000", "112715.879000", "112715.888000", "112715.891000", "112715.894000", "112715.897000", "112715.900000", "112715.903000", "112715.906000", "112715.909000", "112741.804000", "112741.807000", "112741.810000", "112741.813000", "112741.816000", "112741.820000", "112741.823000", "112741.826000", "112741.829000", "112741.832000", "112741.845000", "112741.848000", "112741.851000", "112741.854000", "112741.857000", "112741.860000", "112741.874000", "112741.878000"],
      "InstanceCreationTime": ["112515.853000", "112515.857000", "112515.860000", "112515.863000", "112515.866000", "112515.869000", "112515.872000", "112515.881000", "112515.884000", "112515.887000", "112515.893000", "112515.896000", "112515.899000", "112535.810000", "112535.813000", "112535.823000", "112535.826000", "112535.829000", "112535.832000", "112535.835000", "112535.838000", "112535.840000", "112535.843000", "112535.846000", "112535.850000", "112535.853000", "112535.856000", "112535.858000", "112535.861000", "112535.864000", "112535.867000", "112535.870000", "112535.873000", "112555.809000", "112555.812000", "112555.815000", "112555.818000", "112555.821000", "112555.825000", "112555.828000", "112555.831000", "112555.834000", "112555.837000", "112555.840000", "112555.843000", "112555.846000", "112555.849000", "112555.852000", "112555.855000", "112555.858000", "112555.861000", "112555.864000", "112555.867000", "112615.809000", "112615.812000", "112615.815000", "112615.818000", "112615.821000", "112615.824000", "112615.827000", "112615.830000", "112615.833000", "112615.836000", "112615.839000", "112615.843000", "112615.846000", "112615.849000", "112615.851000", "112615.854000", "112615.857000", "112615.861000", "112615.864000", "112615.867000", "112615.870000", "112635.810000", "112635.813000", "112635.816000", "112635.819000", "112635.822000", "112635.825000", "112635.834000", "112635.837000", "112635.840000", "112635.843000", "112635.846000", "112635.849000", "112635.852000", "112635.855000", "112635.858000", "112635.861000", "112635.864000", "112635.868000", "112635.871000", "112635.873000", "112715.810000", "112715.813000", "112715.817000", "112715.820000", "112715.822000", "112715.825000", "112715.829000", "112715.831000", "112715.834000", "112715.838000", "112715.841000", "112715.843000", "112715.846000", "112715.850000", "112715.853000", "112715.856000", "112715.859000", "112715.862000", "112715.865000", "112715.868000", "112715.870000", "112715.873000", "112715.876000", "112715.879000", "112715.888000", "112715.891000", "112715.894000", "112715.897000", "112715.900000", "112715.903000", "112715.906000", "112715.909000", "112741.804000", "112741.807000", "112741.810000", "112741.813000", "112741.816000", "112741.820000", "112741.823000", "112741.826000", "112741.829000", "112741.832000", "112741.845000", "112741.848000", "112741.851000", "112741.854000", "112741.857000", "112741.860000", "112741.874000", "112741.878000"],
      "InstanceNumber": [1, 2, 3, 4, 5, 6, 7, 8, 9, 10, 11, 12, 13, 14, 15, 16, 17, 18, 19, 20, 21, 22, 23, 24, 25, 26, 27, 28, 29, 30, 31, 32, 33, 34, 35, 36, 37, 38, 39, 40, 41, 42, 43, 44, 45, 46, 47, 48, 49, 50, 51, 52, 53, 54, 55, 56, 57, 58, 59, 60, 61, 62, 63, 64, 65, 66, 67, 68, 69, 70, 71, 72, 73, 74, 75, 76, 77, 78, 79, 80, 81, 82, 83, 84, 85, 86, 87, 88, 89, 90, 91, 92, 93, 94, 95, 96, 97, 98, 99, 100, 101, 102, 103, 104, 105, 106, 107, 108, 109, 110, 111, 112, 113, 114, 115, 116, 117, 118, 119, 120, 121, 122, 123, 124, 125, 126, 127, 128, 129, 130, 131, 132, 133, 134, 135, 136, 137, 138, 139, 140, 141, 142, 143, 144],
      "LargestImagePixelValue": [41193, 39500, 38907, 39097, 38299, 38263, 38368, 38178, 38667, 38568, 38444, 39179, 38372, 38581, 39018, 38357, 38468, 38405, 38269, 38733, 38371, 38240, 38071, 37622, 38399, 38218, 37897, 38650, 38417, 38347, 38372, 38382, 38034, 38264, 38226, 38553, 38875, 38121, 38467, 38577, 38606, 38472, 38451, 38888, 38834, 38513, 38842, 38441, 38618, 38719, 38722, 38749, 38456, 38167, 38326, 38274, 38244, 38713, 38133, 38121, 38771, 38444, 38677, 38325, 38670, 37947, 38533, 38581, 38222, 38472, 38443, 38233, 38432, 38421, 38415, 38219, 37874, 38097, 38768, 38552, 38153, 38300, 37992, 38389, 38074, 38189, 38461, 38775, 38634, 38576, 38230, 38291, 39101, 38791, 38757, 38426, 38702, 37995, 38167, 38449, 38549, 38375, 38457, 39027, 38392, 38294, 38243, 38307, 38046, 38188, 38688, 39018, 38746, 38908, 38796, 38806, 38409, 38215, 38585, 39113, 38739, 38779, 38740, 38977, 38724, 38392, 38364, 38614, 38521, 38572, 38306, 38490, 38273, 38345, 38507, 38115, 38221, 38160, 38436, 38039, 38582, 38542, 38474, 38460],
      "WindowCenter": [9998.0, 9967.0, 9951.0, 9930.0, 9923.0, 9933.0, 9933.0, 9918.0, 9905.0, 9894.0, 9885.0, 9899.0, 9901.0, 9902.0, 9902.0, 9896.0, 9893.0, 9885.0, 9878.0, 9899.0, 9912.0, 9922.0, 9919.0, 9918.0, 9906.0, 9905.0, 9906.0, 9913.0, 9912.0, 9904.0, 9897.0, 9889.0, 9879.0, 9878.0, 9887.0, 9895.0, 9896.0, 9881.0, 9878.0, 9889.0, 9894.0, 9889.0, 9880.0, 9887.0, 9903.0, 9905.0, 9904.0, 9887.0, 9895.0, 9911.0, 9921.0, 9924.0, 9910.0, 9901.0, 9889.0, 9894.0, 9904.0, 9912.0, 9900.0, 9889.0, 9887.0, 9887.0, 9897.0, 9892.0, 9896.0, 9889.0, 9890.0, 9888.0, 9874.0, 9880.0, 9887.0, 9880.0, 9887.0, 9890.0, 9897.0, 9891.0, 9881.0, 9865.0, 9860.0, 9870.0, 9889.0, 9910.0, 9903.0, 9893.0, 9875.0, 9865.0, 9863.0, 9870.0, 9879.0, 9887.0, 9885.0, 9889.0, 9903.0, 9898.0, 9896.0, 9900.0, 9925.0, 9923.0, 9913.0, 9894.0, 9889.0, 9874.0, 9880.0, 9897.0, 9917.0, 9927.0, 9915.0, 9902.0, 9878.0, 9859.0, 9868.0, 9873.0, 9878.0, 9886.0, 9889.0, 9892.0, 9892.0, 9877.0, 9870.0, 9861.0, 9864.0, 9870.0, 9871.0, 9888.0, 9904.0, 9893.0, 9881.0, 9864.0, 9854.0, 9861.0, 9878.0, 9890.0, 9891.0, 9885.0, 9882.0, 9874.0, 9875.0, 9883.0, 9883.0, 9874.0, 9873.0, 9871.0, 9880.0, 9880.0],
      "WindowWidth": [21217.0, 21135.0, 21089.0, 21031.0, 21014.0, 21035.0, 21035.0, 21002.0, 20967.0, 20939.0, 20921.0, 20949.0, 20955.0, 20958.0, 20955.0, 20947.0, 20938.0, 20920.0, 20905.0, 20948.0, 20980.0, 21005.0, 21002.0, 20997.0, 20967.0, 20963.0, 20971.0, 20985.0, 20980.0, 20964.0, 20949.0, 20932.0, 20908.0, 20905.0, 20926.0, 20945.0, 20945.0, 20913.0, 20904.0, 20924.0, 20939.0, 20930.0, 20911.0, 20922.0, 20957.0, 20966.0, 20959.0, 20922.0, 20940.0, 20975.0, 20998.0, 21005.0, 20978.0, 20958.0, 20930.0, 20936.0, 20959.0, 20978.0, 20955.0, 20928.0, 20920.0, 20920.0, 20944.0, 20936.0, 20942.0, 20929.0, 20932.0, 20924.0, 20896.0, 20909.0, 20922.0, 20911.0, 20925.0, 20933.0, 20947.0, 20935.0, 20910.0, 20875.0, 20861.0, 20886.0, 20931.0, 20978.0, 20962.0, 20937.0, 20896.0, 20873.0, 20871.0, 20884.0, 20907.0, 20924.0, 20924.0, 20930.0, 20957.0, 20944.0, 20942.0, 20955.0, 21012.0, 21013.0, 20987.0, 20942.0, 20927.0, 20896.0, 20909.0, 20946.0, 20992.0, 21017.0, 20992.0, 20962.0, 20907.0, 20863.0, 20878.0, 20886.0, 20900.0, 20918.0, 20924.0, 20934.0, 20934.0, 20903.0, 20880.0, 20862.0, 20869.0, 20881.0, 20884.0, 20923.0, 20957.0, 20936.0, 20909.0, 20871.0, 20847.0, 20864.0, 20903.0, 20932.0, 20934.0, 20920.0, 20913.0, 20896.0, 20898.0, 20916.0, 20916.0, 20896.0, 20891.0, 20884.0, 20901.0, 20903.0]
    },
    "slices": {}
  }
}