{
  "AcquisitionMatrixPE": 104,
  "AcquisitionNumber": 1,
  "AcquisitionTime": "11:40:55.640000",
  "BandwidthPerPixelPhaseEncode": 17.17,
  "BaseResolution": 104,
  "BodyPartExamined": "BRAIN",
  "CoilString": "HC1-7;NC1_2",
  "ConsistencyInfo": "N4_VE11C_LATEST_20160120",
  "ConversionSoftware": "dcm2niix",
  "ConversionSoftwareVersion": "v1.0.20190720  (JP2:OpenJPEG) GCC7.3.0",
  "DerivedVendorReportedEchoSpacing": 0.000560011,
  "DeviceSerialNumber": "167006",
  "DwellTime": 2.1e-06,
  "EchoTime": 0.037,
  "EchoTrainLength": 104,
  "EffectiveEchoSpacing": 0.000560011,
  "FlipAngle": 52,
  "ImageComments": "Unaliased_MB4_PE3_LB",
  "ImageOrientationPatientDICOM": [0.999923, -0.010232, 0.00702888, 0.0120424, 0.936983, -0.349167],
  "ImageType": [
    "ORIGINAL",
    "PRIMARY",
    "M",
    "MB",
    "ND",
    "MOSAIC"
],
  "ImagingFrequency": 123.26,
  "InPlanePhaseEncodingDirectionDICOM": "COL",
  "InstitutionAddress": "Chemin_Queen-Mary_4565_Montreal_District_CA_H3W_1W5",
  "InstitutionName": "IUGM",
  "InstitutionalDepartmentName": "Department",
  "MRAcquisitionType": "2D",
  "MagneticFieldStrength": 3,
  "Manufacturer": "Siemens",
  "ManufacturersModelName": "Prisma_fit",
  "Modality": "MR",
  "MultibandAccelerationFactor": 4,
  "PartialFourier": 1,
  "PatientPosition": "HFS",
  "PercentPhaseFOV": 100,
  "PhaseEncodingDirection": "j",
  "PhaseEncodingSteps": 104,
  "PhaseResolution": 1,
  "PixelBandwidth": 2290,
  "ProcedureStepDescription": "hcptrt_generic",
  "ProtocolName": "func_task-relational_run-2",
  "PulseSequenceDetails": "%CustomerSeq%_cmrr_mbep2d_bold",
  "ReceiveCoilActiveElements": "HC1-7;NC1,2",
  "ReceiveCoilName": "HeadNeck_64",
  "ReconMatrixPE": 104,
  "RepetitionTime": 1.49,
  "SAR": 0.0286145,
  "ScanOptions": "FS",
  "ScanningSequence": "EP",
  "SequenceName": "epfid2d1_104",
  "SequenceVariant": "SK_SS",
  "SeriesDescription": "func_task-relational_run-2",
  "SeriesNumber": 23,
  "ShimSetting": [621, -7142, -8816, 662, 4, 183, 16, -27],
  "SliceThickness": 2,
  "SliceTiming": [0, 0.785, 0.0975, 0.8825, 0.1975, 0.98, 0.295, 1.0775, 0.3925, 1.1775, 0.49, 1.275, 0.5875, 1.3725, 0.6875, 0, 0.785, 0.0975, 0.8825, 0.1975, 0.98, 0.295, 1.0775, 0.3925, 1.1775, 0.49, 1.275, 0.5875, 1.3725, 0.6875, 0, 0.785, 0.0975, 0.8825, 0.1975, 0.98, 0.295, 1.0775, 0.3925, 1.1775, 0.49, 1.275, 0.5875, 1.3725, 0.6875, 0, 0.785, 0.0975, 0.8825, 0.1975, 0.98, 0.295, 1.0775, 0.3925, 1.1775, 0.49, 1.275, 0.5875, 1.3725, 0.6875],
  "SoftwareVersions": "syngo_MR_E11",
  "SpacingBetweenSlices": 2,
  "StationName": "MRC35049",
  "TaskName": "relational",
  "TotalReadoutTime": 0.0576811,
  "TxRefAmp": 208.776,
  "WipMemBlock": "7ca774de-4aa6-4809-85fc-3d9780de5bae||Sequence: R016 ve11c/master r/e634e98; Dec 19 2017 11:00:25 by eja",
  "dcmmeta_affine": [
    [-1.9998458623886108, 0.024084756150841713, 0.006026542745530605, 107.55624389648438],
    [0.020463963970541954, 1.8739659786224365, -0.6984502077102661, -68.5918960571289],
    [0.014057769440114498, 0.6983346939086914, 1.874068021774292, -69.0165023803711],
    [0.0, 0.0, 0.0, 1.0]
],
  "dcmmeta_reorient_transform": [
    [0.0, -1.0, 0.0, 103.0],
    [1.0, 0.0, 0.0, 0.0],
    [0.0, 0.0, 1.0, 0.0],
    [0.0, 0.0, 0.0, 1.0]
],
  "dcmmeta_shape": [104, 104, 60, 119],
  "dcmmeta_slice_dim": 2,
  "dcmmeta_version": 0.6,
  "global": {
    "const": {
      "AcquisitionMatrix": [104, 0, 0, 104],
      "AngioFlag": "N",
      "BitsAllocated": 16,
      "BitsStored": 16,
      "BodyPartExamined": "BRAIN",
      "Columns": 832,
      "EchoNumbers": 1,
      "EchoTime": 37.0,
      "EchoTrainLength": 104,
      "FlipAngle": 52.0,
      "HighBit": 15,
      "ImageOrientationPatient": [0.99992294769038, -0.0102319822299, 0.00702888482172, 0.01204237842129, 0.93698299645996, -0.3491673602542],
      "ImagePositionPatient": [-846.74773145262, -799.10134228303, 251.98878233008],
      "ImageType": [
        "ORIGINAL",
        "PRIMARY",
        "M",
        "MB",
        "ND",
        "MOSAIC"
],
      "ImagedNucleus": "1H",
      "ImagingFrequency": 123.25956,
      "InPlanePhaseEncodingDirection": "COL",
      "MRAcquisitionType": "2D",
      "MagneticFieldStrength": 3.0,
      "Manufacturer": "SIEMENS",
      "ManufacturerModelName": "Prisma_fit",
      "Modality": "MR",
      "NumberOfAverages": 1.0,
      "NumberOfPhaseEncodingSteps": 104,
      "PercentPhaseFieldOfView": 100.0,
      "PercentSampling": 100.0,
      "PerformedProcedureStepStartTime": "104953.312000",
      "PhotometricInterpretation": "MONOCHROME2",
      "PixelBandwidth": 2290.0,
      "PixelRepresentation": 0,
      "PixelSpacing": [2.0, 2.0],
      "ProtocolName": "func_task-relational_run-2",
      "RepetitionTime": 1490.0,
      "Rows": 832,
      "SAR": 0.02861452996193,
      "SamplesPerPixel": 1,
      "ScanOptions": "FS",
      "ScanningSequence": "EP",
      "SequenceName": "epfid2d1_104",
      "SequenceVariant": [
        "SK",
        "SS"
],
      "SeriesDescription": "func_task-relational_run-2",
      "SeriesNumber": 23,
      "SeriesTime": "114211.215000",
      "SliceLocation": -40.392704989152,
      "SliceThickness": 2.0,
      "SmallestImagePixelValue": 0,
      "SoftwareVersions": "syngo MR E11",
      "SpacingBetweenSlices": 1.9999999599268,
      "SpecificCharacterSet": "ISO_IR 100",
      "StudyID": "1",
      "StudyTime": "104953.259000",
      "TransmitCoilName": "Body",
      "VariableFlipAngleFlag": "N",
      "WindowCenterWidthExplanation": "Algo1",
      "dBdt": 0.0},
    "slices": {}
  },
  "time": {
    "samples": {
      "AcquisitionNumber": [1, 2, 3, 4, 5, 6, 7, 8, 9, 10, 11, 12, 13, 14, 15, 16, 17, 18, 19, 20, 21, 22, 23, 24, 25, 26, 27, 28, 29, 30, 31, 32, 33, 34, 35, 36, 37, 38, 39, 40, 41, 42, 43, 44, 45, 46, 47, 48, 49, 50, 51, 52, 53, 54, 55, 56, 57, 58, 59, 60, 61, 62, 63, 64, 65, 66, 67, 68, 69, 70, 71, 72, 73, 74, 75, 76, 77, 78, 79, 80, 81, 82, 83, 84, 85, 86, 87, 88, 89, 90, 91, 92, 93, 94, 95, 96, 97, 98, 99, 100, 101, 102, 103, 104, 105, 106, 107, 108, 109, 110, 111, 112, 113, 114, 115, 116, 117, 118, 119],
      "AcquisitionTime": ["114055.640000", "114057.130000", "114058.620000", "114100.110000", "114101.600000", "114103.090000", "114104.580000", "114106.070000", "114107.560000", "114109.050000", "114110.540000", "114112.030000", "114113.520000", "114115.010000", "114116.500000", "114117.990000", "114119.480000", "114120.970000", "114122.460000", "114123.950000", "114125.440000", "114126.930000", "114128.420000", "114129.910000", "114131.400000", "114132.890000", "114134.380000", "114135.870000", "114137.360000", "114138.850000", "114140.340000", "114141.830000", "114143.320000", "114144.810000", "114146.300000", "114147.790000", "114149.280000", "114150.770000", "114152.260000", "114153.750000", "114155.240000", "114156.730000", "114158.220000", "114159.710000", "114201.200000", "114202.690000", "114204.180000", "114205.670000", "114207.160000", "114208.650000", "114210.140000", "114211.630000", "114213.120000", "114214.610000", "114216.100000", "114217.590000", "114219.080000", "114220.570000", "114222.060000", "114223.550000", "114225.040000", "114226.530000", "114228.020000", "114229.510000", "114231.000000", "114232.490000", "114233.980000", "114235.470000", "114236.960000", "114238.450000", "114239.940000", "114241.430000", "114242.920000", "114244.410000", "114245.900000", "114247.390000", "114248.880000", "114250.370000", "114251.860000", "114253.350000", "114254.840000", "114256.330000", "114257.820000", "114259.310000", "114300.800000", "114302.290000", "114303.780000", "114305.270000", "114306.760000", "114308.250000", "114309.740000", "114311.230000", "114312.720000", "114314.210000", "114315.700000", "114317.190000", "114318.680000", "114320.170000", "114321.660000", "114323.150000", "114324.640000", "114326.130000", "114327.620000", "114329.110000", "114330.600000", "114332.090000", "114333.580000", "114335.070000", "114336.560000", "114338.050000", "114339.540000", "114341.030000", "114342.520000", "114344.010000", "114345.500000", "114346.990000", "114348.480000", "114349.970000", "114351.460000"],
      "ContentTime": ["114211.218000", "114211.222000", "114211.224000", "114211.227000", "114211.231000", "114211.233000", "114211.236000", "114211.239000", "114211.242000", "114211.245000", "114211.248000", "114211.251000", "114211.254000", "114211.257000", "114211.260000", "114211.263000", "114211.266000", "114211.269000", "114211.272000", "114211.275000", "114231.186000", "114231.189000", "114231.192000", "114231.195000", "114231.198000", "114231.201000", "114231.204000", "114231.207000", "114231.210000", "114231.213000", "114231.216000", "114231.219000", "114231.222000", "114231.225000", "114231.228000", "114231.231000", "114231.234000", "114231.237000", "114231.240000", "114231.243000", "114251.186000", "114251.189000", "114251.192000", "114251.195000", "114251.198000", "114251.201000", "114251.214000", "114251.217000", "114251.220000", "114251.223000", "114251.226000", "114251.229000", "114251.232000", "114251.235000", "114251.238000", "114251.241000", "114251.244000", "114251.247000", "114251.249000", "114251.253000", "114311.187000", "114311.190000", "114311.193000", "114311.196000", "114311.199000", "114311.202000", "114311.205000", "114311.214000", "114311.217000", "114311.220000", "114311.223000", "114311.226000", "114311.229000", "114311.232000", "114311.235000", "114311.238000", "114311.241000", "114311.244000", "114311.247000", "114311.250000", "114331.187000", "114331.190000", "114331.193000", "114331.196000", "114331.201000", "114331.204000", "114331.207000", "114331.210000", "114331.213000", "114331.216000", "114331.219000", "114331.222000", "114331.225000", "114331.228000", "114331.231000", "114331.234000", "114331.237000", "114331.239000", "114331.242000", "114331.246000", "114353.718000", "114353.722000", "114353.725000", "114353.738000", "114353.741000", "114353.753000", "114353.756000", "114353.760000", "114353.763000", "114353.767000", "114353.770000", "114353.773000", "114353.776000", "114353.779000", "114353.782000", "114353.785000", "114353.788000", "114353.792000", "114353.795000"],
      "InstanceCreationTime": ["114211.218000", "114211.222000", "114211.224000", "114211.227000", "114211.231000", "114211.233000", "114211.236000", "114211.239000", "114211.242000", "114211.245000", "114211.248000", "114211.251000", "114211.254000", "114211.257000", "114211.260000", "114211.263000", "114211.266000", "114211.269000", "114211.272000", "114211.275000", "114231.186000", "114231.189000", "114231.192000", "114231.195000", "114231.198000", "114231.201000", "114231.204000", "114231.207000", "114231.210000", "114231.213000", "114231.216000", "114231.219000", "114231.222000", "114231.225000", "114231.228000", "114231.231000", "114231.234000", "114231.237000", "114231.240000", "114231.243000", "114251.186000", "114251.189000", "114251.192000", "114251.195000", "114251.198000", "114251.201000", "114251.214000", "114251.217000", "114251.220000", "114251.223000", "114251.226000", "114251.229000", "114251.232000", "114251.235000", "114251.238000", "114251.241000", "114251.244000", "114251.247000", "114251.249000", "114251.253000", "114311.187000", "114311.190000", "114311.193000", "114311.196000", "114311.199000", "114311.202000", "114311.205000", "114311.214000", "114311.217000", "114311.220000", "114311.223000", "114311.226000", "114311.229000", "114311.232000", "114311.235000", "114311.238000", "114311.241000", "114311.244000", "114311.247000", "114311.250000", "114331.187000", "114331.190000", "114331.193000", "114331.196000", "114331.201000", "114331.204000", "114331.207000", "114331.210000", "114331.213000", "114331.216000", "114331.219000", "114331.222000", "114331.225000", "114331.228000", "114331.231000", "114331.234000", "114331.237000", "114331.239000", "114331.242000", "114331.246000", "114353.718000", "114353.722000", "114353.725000", "114353.738000", "114353.741000", "114353.753000", "114353.756000", "114353.760000", "114353.763000", "114353.767000", "114353.770000", "114353.773000", "114353.776000", "114353.779000", "114353.782000", "114353.785000", "114353.788000", "114353.792000", "114353.795000"],
      "InstanceNumber": [1, 2, 3, 4, 5, 6, 7, 8, 9, 10, 11, 12, 13, 14, 15, 16, 17, 18, 19, 20, 21, 22, 23, 24, 25, 26, 27, 28, 29, 30, 31, 32, 33, 34, 35, 36, 37, 38, 39, 40, 41, 42, 43, 44, 45, 46, 47, 48, 49, 50, 51, 52, 53, 54, 55, 56, 57, 58, 59, 60, 61, 62, 63, 64, 65, 66, 67, 68, 69, 70, 71, 72, 73, 74, 75, 76, 77, 78, 79, 80, 81, 82, 83, 84, 85, 86, 87, 88, 89, 90, 91, 92, 93, 94, 95, 96, 97, 98, 99, 100, 101, 102, 103, 104, 105, 106, 107, 108, 109, 110, 111, 112, 113, 114, 115, 116, 117, 118, 119],
      "LargestImagePixelValue": [40371, 39732, 39000, 37978, 38018, 38034, 37772, 37949, 37867, 37438, 37649, 37945, 37974, 38034, 38303, 38169, 38618, 38347, 37969, 38133, 38033, 38205, 38590, 38732, 38989, 38174, 38086, 38171, 38298, 38246, 38432, 38634, 38443, 38926, 38602, 38394, 38854, 38663, 38650, 38781, 38855, 38305, 38578, 38325, 38176, 39048, 38605, 38825, 38971, 38086, 38423, 38692, 38376, 38995, 38248, 38990, 39033, 38998, 38850, 38574, 38321, 38363, 38695, 38026, 38192, 38636, 38182, 38306, 38368, 38492, 38276, 38613, 38325, 38250, 38203, 37868, 38268, 38296, 39293, 38381, 38343, 38265, 38598, 38562, 38594, 38410, 38914, 38499, 38638, 38111, 38365, 38520, 38689, 38525, 38108, 38522, 38348, 38241, 38310, 37929, 38612, 38639, 38786, 38377, 38376, 38173, 38296, 38150, 38356, 38388, 38521, 38511, 37925, 38321, 38520, 38083, 38410, 38497, 38074],
      "WindowCenter": [9923.0, 9893.0, 9900.0, 9899.0, 9906.0, 9904.0, 9881.0, 9859.0, 9867.0, 9869.0, 9870.0, 9877.0, 9887.0, 9878.0, 9867.0, 9849.0, 9851.0, 9872.0, 9885.0, 9862.0, 9833.0, 9811.0, 9808.0, 9816.0, 9832.0, 9848.0, 9869.0, 9861.0, 9856.0, 9838.0, 9829.0, 9835.0, 9856.0, 9872.0, 9868.0, 9874.0, 9874.0, 9860.0, 9871.0, 9882.0, 9882.0, 9883.0, 9883.0, 9875.0, 9869.0, 9874.0, 9868.0, 9867.0, 9874.0, 9870.0, 9879.0, 9884.0, 9893.0, 9901.0, 9887.0, 9883.0, 9868.0, 9873.0, 9866.0, 9856.0, 9856.0, 9860.0, 9867.0, 9862.0, 9859.0, 9857.0, 9843.0, 9841.0, 9840.0, 9849.0, 9860.0, 9874.0, 9877.0, 9870.0, 9861.0, 9845.0, 9843.0, 9869.0, 9900.0, 9889.0, 9879.0, 9863.0, 9850.0, 9838.0, 9840.0, 9849.0, 9864.0, 9860.0, 9867.0, 9853.0, 9851.0, 9858.0, 9869.0, 9878.0, 9871.0, 9869.0, 9869.0, 9870.0, 9877.0, 9881.0, 9879.0, 9877.0, 9877.0, 9870.0, 9870.0, 9863.0, 9863.0, 9847.0, 9840.0, 9850.0, 9846.0, 9850.0, 9836.0, 9849.0, 9873.0, 9881.0, 9889.0, 9879.0, 9855.0],
      "WindowWidth": [21036.0, 20953.0, 20961.0, 20960.0, 20973.0, 20964.0, 20910.0, 20858.0, 20875.0, 20880.0, 20886.0, 20901.0, 20923.0, 20904.0, 20875.0, 20836.0, 20838.0, 20885.0, 20916.0, 20866.0, 20794.0, 20742.0, 20736.0, 20755.0, 20793.0, 20833.0, 20881.0, 20862.0, 20847.0, 20806.0, 20787.0, 20803.0, 20850.0, 20885.0, 20877.0, 20891.0, 20889.0, 20862.0, 20883.0, 20906.0, 20908.0, 20912.0, 20910.0, 20893.0, 20882.0, 20888.0, 20877.0, 20873.0, 20889.0, 20886.0, 20904.0, 20916.0, 20937.0, 20953.0, 20922.0, 20906.0, 20878.0, 20883.0, 20867.0, 20846.0, 20847.0, 20859.0, 20871.0, 20863.0, 20855.0, 20846.0, 20820.0, 20814.0, 20812.0, 20831.0, 20857.0, 20885.0, 20893.0, 20881.0, 20861.0, 20827.0, 20821.0, 20883.0, 20945.0, 20922.0, 20899.0, 20864.0, 20831.0, 20802.0, 20810.0, 20832.0, 20864.0, 20860.0, 20873.0, 20844.0, 20837.0, 20852.0, 20878.0, 20898.0, 20883.0, 20877.0, 20880.0, 20883.0, 20898.0, 20908.0, 20902.0, 20895.0, 20893.0, 20880.0, 20880.0, 20865.0, 20861.0, 20825.0, 20807.0, 20831.0, 20828.0, 20835.0, 20805.0, 20832.0, 20885.0, 20907.0, 20923.0, 20898.0, 20847.0]
    },
    "slices": {}
  }
}