{
  "AcquisitionMatrixPE": 104,
  "AcquisitionNumber": 1,
  "AcquisitionTime": "12:07:24.270000",
  "BandwidthPerPixelPhaseEncode": 17.17,
  "BaseResolution": 104,
  "BodyPartExamined": "BRAIN",
  "CoilString": "HC1-7;NC1_2",
  "ConsistencyInfo": "N4_VE11C_LATEST_20160120",
  "ConversionSoftware": "dcm2niix",
  "ConversionSoftwareVersion": "v1.0.20190720  (JP2:OpenJPEG) GCC7.3.0",
  "DerivedVendorReportedEchoSpacing": 0.000560011,
  "DeviceSerialNumber": "167006",
  "DwellTime": 2.1e-06,
  "EchoTime": 0.037,
  "EchoTrainLength": 104,
  "EffectiveEchoSpacing": 0.000560011,
  "FlipAngle": 52,
  "ImageComments": "Unaliased_MB4_PE3_LB",
  "ImageOrientationPatientDICOM": [0.999923, -0.010232, 0.00702888, 0.0120424, 0.936983, -0.349167],
  "ImageType": [
    "ORIGINAL",
    "PRIMARY",
    "M",
    "MB",
    "ND",
    "MOSAIC"
],
  "ImagingFrequency": 123.26,
  "InPlanePhaseEncodingDirectionDICOM": "COL",
  "InstitutionAddress": "Chemin_Queen-Mary_4565_Montreal_District_CA_H3W_1W5",
  "InstitutionName": "IUGM",
  "InstitutionalDepartmentName": "Department",
  "MRAcquisitionType": "2D",
  "MagneticFieldStrength": 3,
  "Manufacturer": "Siemens",
  "ManufacturersModelName": "Prisma_fit",
  "Modality": "MR",
  "MultibandAccelerationFactor": 4,
  "PartialFourier": 1,
  "PatientPosition": "HFS",
  "PercentPhaseFOV": 100,
  "PhaseEncodingDirection": "j",
  "PhaseEncodingSteps": 104,
  "PhaseResolution": 1,
  "PixelBandwidth": 2290,
  "ProcedureStepDescription": "hcptrt_generic",
  "ProtocolName": "func_task-language_run-2",
  "PulseSequenceDetails": "%CustomerSeq%_cmrr_mbep2d_bold",
  "ReceiveCoilActiveElements": "HC1-7;NC1,2",
  "ReceiveCoilName": "HeadNeck_64",
  "ReconMatrixPE": 104,
  "RepetitionTime": 1.49,
  "SAR": 0.0287272,
  "ScanOptions": "FS",
  "ScanningSequence": "EP",
  "SequenceName": "epfid2d1_104",
  "SequenceVariant": "SK_SS",
  "SeriesDescription": "func_task-language_run-2",
  "SeriesNumber": 35,
  "ShimSetting": [621, -7142, -8816, 662, 4, 183, 16, -27],
  "SliceThickness": 2,
  "SliceTiming": [0, 0.785, 0.0975, 0.8825, 0.1975, 0.98, 0.295, 1.0775, 0.3925, 1.1775, 0.49, 1.275, 0.5875, 1.3725, 0.6875, 0, 0.785, 0.0975, 0.8825, 0.1975, 0.98, 0.295, 1.0775, 0.3925, 1.1775, 0.49, 1.275, 0.5875, 1.3725, 0.6875, 0, 0.785, 0.0975, 0.8825, 0.1975, 0.98, 0.295, 1.0775, 0.3925, 1.1775, 0.49, 1.275, 0.5875, 1.3725, 0.6875, 0, 0.785, 0.0975, 0.8825, 0.1975, 0.98, 0.295, 1.0775, 0.3925, 1.1775, 0.49, 1.275, 0.5875, 1.3725, 0.6875],
  "SoftwareVersions": "syngo_MR_E11",
  "SpacingBetweenSlices": 2,
  "StationName": "MRC35049",
  "TaskName": "language",
  "TotalReadoutTime": 0.0576811,
  "TxRefAmp": 208.776,
  "WipMemBlock": "cf709a38-3202-412f-9a1a-f879d34a0f2c||Sequence: R016 ve11c/master r/e634e98; Dec 19 2017 11:00:25 by eja",
  "dcmmeta_affine": [
    [-1.9998458623886108, 0.024084756150841713, 0.006026542745530605, 107.55624389648438],
    [0.020463963970541954, 1.8739659786224365, -0.6984502077102661, -68.5918960571289],
    [0.014057769440114498, 0.6983346939086914, 1.874068021774292, -69.0165023803711],
    [0.0, 0.0, 0.0, 1.0]
],
  "dcmmeta_reorient_transform": [
    [0.0, -1.0, 0.0, 103.0],
    [1.0, 0.0, 0.0, 0.0],
    [0.0, 0.0, 1.0, 0.0],
    [0.0, 0.0, 0.0, 1.0]
],
  "dcmmeta_shape": [104, 104, 60, 159],
  "dcmmeta_slice_dim": 2,
  "dcmmeta_version": 0.6,
  "global": {
    "const": {
      "AcquisitionMatrix": [104, 0, 0, 104],
      "AngioFlag": "N",
      "BitsAllocated": 16,
      "BitsStored": 16,
      "BodyPartExamined": "BRAIN",
      "Columns": 832,
      "EchoNumbers": 1,
      "EchoTime": 37.0,
      "EchoTrainLength": 104,
      "FlipAngle": 52.0,
      "HighBit": 15,
      "ImageOrientationPatient": [0.99992294769038, -0.0102319822299, 0.00702888482172, 0.01204237842129, 0.93698299645996, -0.3491673602542],
      "ImagePositionPatient": [-846.74773145262, -799.10134228303, 251.98878233008],
      "ImageType": [
        "ORIGINAL",
        "PRIMARY",
        "M",
        "MB",
        "ND",
        "MOSAIC"
],
      "ImagedNucleus": "1H",
      "ImagingFrequency": 123.259568,
      "InPlanePhaseEncodingDirection": "COL",
      "MRAcquisitionType": "2D",
      "MagneticFieldStrength": 3.0,
      "Manufacturer": "SIEMENS",
      "ManufacturerModelName": "Prisma_fit",
      "Modality": "MR",
      "NumberOfAverages": 1.0,
      "NumberOfPhaseEncodingSteps": 104,
      "PercentPhaseFieldOfView": 100.0,
      "PercentSampling": 100.0,
      "PerformedProcedureStepStartTime": "104953.312000",
      "PhotometricInterpretation": "MONOCHROME2",
      "PixelBandwidth": 2290.0,
      "PixelRepresentation": 0,
      "PixelSpacing": [2.0, 2.0],
      "ProtocolName": "func_task-language_run-2",
      "RepetitionTime": 1490.0,
      "Rows": 832,
      "SAR": 0.02872721748213,
      "SamplesPerPixel": 1,
      "ScanOptions": "FS",
      "ScanningSequence": "EP",
      "SequenceName": "epfid2d1_104",
      "SequenceVariant": [
        "SK",
        "SS"
],
      "SeriesDescription": "func_task-language_run-2",
      "SeriesNumber": 35,
      "SeriesTime": "120851.248000",
      "SliceLocation": -40.392704989152,
      "SliceThickness": 2.0,
      "SmallestImagePixelValue": 0,
      "SoftwareVersions": "syngo MR E11",
      "SpacingBetweenSlices": 1.9999999599268,
      "SpecificCharacterSet": "ISO_IR 100",
      "StudyID": "1",
      "StudyTime": "104953.259000",
      "TransmitCoilName": "Body",
      "VariableFlipAngleFlag": "N",
      "WindowCenterWidthExplanation": "Algo1",
      "dBdt": 0.0},
    "slices": {}
  },
  "time": {
    "samples": {
      "AcquisitionNumber": [1, 2, 3, 4, 5, 6, 7, 8, 9, 10, 11, 12, 13, 14, 15, 16, 17, 18, 19, 20, 21, 22, 23, 24, 25, 26, 27, 28, 29, 30, 31, 32, 33, 34, 35, 36, 37, 38, 39, 40, 41, 42, 43, 44, 45, 46, 47, 48, 49, 50, 51, 52, 53, 54, 55, 56, 57, 58, 59, 60, 61, 62, 63, 64, 65, 66, 67, 68, 69, 70, 71, 72, 73, 74, 75, 76, 77, 78, 79, 80, 81, 82, 83, 84, 85, 86, 87, 88, 89, 90, 91, 92, 93, 94, 95, 96, 97, 98, 99, 100, 101, 102, 103, 104, 105, 106, 107, 108, 109, 110, 111, 112, 113, 114, 115, 116, 117, 118, 119, 120, 121, 122, 123, 124, 125, 126, 127, 128, 129, 130, 131, 132, 133, 134, 135, 136, 137, 138, 139, 140, 141, 142, 143, 144, 145, 146, 147, 148, 149, 150, 151, 152, 153, 154, 155, 156, 157, 158, 159],
      "AcquisitionTime": ["120724.270000", "120725.760000", "120727.250000", "120728.740000", "120730.230000", "120731.720000", "120733.210000", "120734.700000", "120736.190000", "120737.680000", "120739.170000", "120740.660000", "120742.150000", "120743.640000", "120745.130000", "120746.620000", "120748.110000", "120749.600000", "120751.090000", "120752.580000", "120754.070000", "120755.560000", "120757.050000", "120758.540000", "120800.030000", "120801.520000", "120803.010000", "120804.500000", "120805.990000", "120807.480000", "120808.970000", "120810.460000", "120811.950000", "120813.440000", "120814.930000", "120816.420000", "120817.910000", "120819.400000", "120820.890000", "120822.380000", "120823.870000", "120825.360000", "120826.850000", "120828.340000", "120829.830000", "120831.320000", "120832.810000", "120834.300000", "120835.790000", "120837.280000", "120838.770000", "120840.260000", "120841.750000", "120843.240000", "120844.730000", "120846.220000", "120847.710000", "120849.200000", "120850.690000", "120852.180000", "120853.670000", "120855.160000", "120856.650000", "120858.140000", "120859.630000", "120901.120000", "120902.610000", "120904.100000", "120905.590000", "120907.080000", "120908.570000", "120910.060000", "120911.550000", "120913.040000", "120914.530000", "120916.020000", "120917.510000", "120919.000000", "120920.490000", "120921.980000", "120923.470000", "120924.960000", "120926.450000", "120927.940000", "120929.430000", "120930.920000", "120932.410000", "120933.900000", "120935.390000", "120936.880000", "120938.370000", "120939.860000", "120941.350000", "120942.840000", "120944.330000", "120945.820000", "120947.310000", "120948.800000", "120950.290000", "120951.780000", "120953.270000", "120954.760000", "120956.250000", "120957.740000", "120959.230000", "121000.720000", "121002.210000", "121003.700000", "121005.190000", "121006.680000", "121008.170000", "121009.660000", "121011.150000", "121012.640000", "121014.130000", "121015.620000", "121017.110000", "121018.600000", "121020.090000", "121021.580000", "121023.070000", "121024.560000", "121026.050000", "121027.540000", "121029.030000", "121030.520000", "121032.010000", "121033.500000", "121034.990000", "121036.480000", "121037.970000", "121039.460000", "121040.950000", "121042.440000", "121043.930000", "121045.420000", "121046.910000", "121048.400000", "121049.890000", "121051.380000", "121052.870000", "121054.360000", "121055.850000", "121057.340000", "121058.830000", "121100.320000", "121101.810000", "121103.300000", "121104.790000", "121106.280000", "121107.770000", "121109.260000", "121110.750000", "121112.240000", "121113.730000", "121115.220000", "121116.710000", "121118.200000", "121119.690000"],
      "ContentTime": ["120851.251000", "120851.254000", "120851.257000", "120851.260000", "120851.264000", "120851.267000", "120851.270000", "120851.273000", "120851.276000", "120851.279000", "120851.282000", "120851.291000", "120851.294000", "120851.297000", "120851.300000", "120851.303000", "120851.306000", "120851.309000", "120851.312000", "120851.315000", "120851.318000", "120851.321000", "120851.324000", "120851.327000", "120851.330000", "120851.333000", "120851.336000", "120851.339000", "120851.353000", "120851.356000", "120851.359000", "120851.362000", "120851.365000", "120851.368000", "120911.187000", "120911.190000", "120911.193000", "120911.196000", "120911.216000", "120911.219000", "120911.222000", "120911.225000", "120911.228000", "120911.230000", "120911.233000", "120911.236000", "120911.239000", "120911.242000", "120911.245000", "120911.248000", "120911.251000", "120911.254000", "120911.257000", "120911.260000", "120931.186000", "120931.189000", "120931.192000", "120931.195000", "120931.198000", "120931.201000", "120931.204000", "120931.207000", "120931.210000", "120931.213000", "120931.216000", "120931.219000", "120931.222000", "120931.225000", "120931.228000", "120931.231000", "120931.234000", "120931.236000", "120931.239000", "120931.242000", "120951.186000", "120951.189000", "120951.192000", "120951.195000", "120951.198000", "120951.201000", "120951.204000", "120951.207000", "120951.210000", "120951.213000", "120951.216000", "120951.228000", "120951.230000", "120951.233000", "120951.236000", "120951.239000", "120951.242000", "120951.245000", "120951.248000", "120951.260000", "121011.186000", "121011.189000", "121011.192000", "121011.195000", "121011.198000", "121011.201000", "121011.204000", "121011.207000", "121011.210000", "121011.213000", "121011.216000", "121011.219000", "121011.222000", "121011.225000", "121011.228000", "121011.242000", "121011.245000", "121051.187000", "121051.190000", "121051.193000", "121051.196000", "121051.199000", "121051.202000", "121051.205000", "121051.208000", "121051.211000", "121051.214000", "121051.217000", "121051.220000", "121051.223000", "121051.227000", "121051.229000", "121051.232000", "121051.235000", "121051.238000", "121051.241000", "121051.244000", "121051.247000", "121051.250000", "121051.253000", "121051.256000", "121051.259000", "121051.262000", "121051.265000", "121122.259000", "121122.262000", "121122.265000", "121122.268000", "121122.279000", "121122.282000", "121122.285000", "121122.288000", "121122.291000", "121122.294000", "121122.297000", "121122.300000", "121122.303000", "121122.306000", "121122.309000", "121122.312000", "121122.315000", "121122.318000", "121122.321000", "121122.324000", "121122.327000"],
      "InstanceCreationTime": ["120851.251000", "120851.254000", "120851.257000", "120851.260000", "120851.264000", "120851.267000", "120851.270000", "120851.273000", "120851.276000", "120851.279000", "120851.282000", "120851.291000", "120851.294000", "120851.297000", "120851.300000", "120851.303000", "120851.306000", "120851.309000", "120851.312000", "120851.315000", "120851.318000", "120851.321000", "120851.324000", "120851.327000", "120851.330000", "120851.333000", "120851.336000", "120851.339000", "120851.353000", "120851.356000", "120851.359000", "120851.362000", "120851.365000", "120851.368000", "120911.187000", "120911.190000", "120911.193000", "120911.196000", "120911.216000", "120911.219000", "120911.222000", "120911.225000", "120911.228000", "120911.230000", "120911.233000", "120911.236000", "120911.239000", "120911.242000", "120911.245000", "120911.248000", "120911.251000", "120911.254000", "120911.257000", "120911.260000", "120931.186000", "120931.189000", "120931.192000", "120931.195000", "120931.198000", "120931.201000", "120931.204000", "120931.207000", "120931.210000", "120931.213000", "120931.216000", "120931.219000", "120931.222000", "120931.225000", "120931.228000", "120931.231000", "120931.234000", "120931.236000", "120931.239000", "120931.242000", "120951.186000", "120951.189000", "120951.192000", "120951.195000", "120951.198000", "120951.201000", "120951.204000", "120951.207000", "120951.210000", "120951.213000", "120951.216000", "120951.228000", "120951.230000", "120951.233000", "120951.236000", "120951.239000", "120951.242000", "120951.245000", "120951.248000", "120951.260000", "121011.186000", "121011.189000", "121011.192000", "121011.195000", "121011.198000", "121011.201000", "121011.204000", "121011.207000", "121011.210000", "121011.213000", "121011.216000", "121011.219000", "121011.222000", "121011.225000", "121011.228000", "121011.242000", "121011.245000", "121051.187000", "121051.190000", "121051.193000", "121051.196000", "121051.199000", "121051.202000", "121051.205000", "121051.208000", "121051.211000", "121051.214000", "121051.217000", "121051.220000", "121051.223000", "121051.227000", "121051.229000", "121051.232000", "121051.235000", "121051.238000", "121051.241000", "121051.244000", "121051.247000", "121051.250000", "121051.253000", "121051.256000", "121051.259000", "121051.262000", "121051.265000", "121122.259000", "121122.262000", "121122.265000", "121122.268000", "121122.279000", "121122.282000", "121122.285000", "121122.288000", "121122.291000", "121122.294000", "121122.297000", "121122.300000", "121122.303000", "121122.306000", "121122.309000", "121122.312000", "121122.315000", "121122.318000", "121122.321000", "121122.324000", "121122.327000"],
      "InstanceNumber": [1, 2, 3, 4, 5, 6, 7, 8, 9, 10, 11, 12, 13, 14, 15, 16, 17, 18, 19, 20, 21, 22, 23, 24, 25, 26, 27, 28, 29, 30, 31, 32, 33, 34, 35, 36, 37, 38, 39, 40, 41, 42, 43, 44, 45, 46, 47, 48, 49, 50, 51, 52, 53, 54, 55, 56, 57, 58, 59, 60, 61, 62, 63, 64, 65, 66, 67, 68, 69, 70, 71, 72, 73, 74, 75, 76, 77, 78, 79, 80, 81, 82, 83, 84, 85, 86, 87, 88, 89, 90, 91, 92, 93, 94, 95, 96, 97, 98, 99, 100, 101, 102, 103, 104, 105, 106, 107, 108, 109, 110, 111, 112, 113, 114, 115, 116, 117, 118, 119, 120, 121, 122, 123, 124, 125, 126, 127, 128, 129, 130, 131, 132, 133, 134, 135, 136, 137, 138, 139, 140, 141, 142, 143, 144, 145, 146, 147, 148, 149, 150, 151, 152, 153, 154, 155, 156, 157, 158, 159],
      "LargestImagePixelValue": [41325, 40124, 39150, 39103, 38610, 38615, 38938, 38230, 38077, 38391, 38400, 38245, 38460, 38579, 38422, 38568, 38545, 38671, 38538, 38482, 38678, 38411, 38238, 38533, 38494, 38464, 38527, 38848, 38484, 38632, 38292, 37928, 38216, 38793, 38837, 38534, 38256, 38057, 38303, 38524, 38562, 38562, 38726, 38350, 38632, 38430, 38869, 38537, 38896, 38456, 38330, 38393, 37953, 38437, 38418, 38817, 38644, 38408, 37926, 38286, 38304, 38738, 39194, 38711, 38172, 38311, 38357, 38338, 38341, 38205, 38382, 38481, 38677, 38349, 38258, 38519, 38931, 38576, 39091, 39120, 38585, 38570, 38618, 38875, 38506, 38696, 38496, 38360, 38437, 38283, 38333, 38312, 38623, 38470, 38239, 38870, 38517, 38310, 38602, 37596, 37917, 38555, 38295, 38494, 38422, 38399, 38312, 38122, 38398, 38246, 39061, 38378, 38178, 38143, 37921, 37650, 38049, 38489, 38399, 38377, 38767, 38066, 37947, 38533, 38378, 38054, 38123, 38624, 38871, 38408, 38231, 38302, 38324, 37743, 38046, 38873, 38522, 38471, 38348, 38361, 38534, 38012, 38041, 38016, 38451, 37806, 37772, 37545, 37574, 37901, 38286, 37870, 38247, 38899, 38826, 37918, 38271, 38281, 38488],
      "WindowCenter": [9908.0, 9880.0, 9863.0, 9863.0, 9855.0, 9852.0, 9859.0, 9857.0, 9867.0, 9867.0, 9864.0, 9840.0, 9837.0, 9843.0, 9837.0, 9837.0, 9827.0, 9826.0, 9827.0, 9834.0, 9844.0, 9836.0, 9827.0, 9833.0, 9836.0, 9826.0, 9817.0, 9824.0, 9841.0, 9852.0, 9845.0, 9838.0, 9826.0, 9825.0, 9827.0, 9833.0, 9836.0, 9830.0, 9821.0, 9809.0, 9813.0, 9822.0, 9842.0, 9839.0, 9836.0, 9827.0, 9825.0, 9833.0, 9851.0, 9859.0, 9866.0, 9857.0, 9840.0, 9822.0, 9826.0, 9827.0, 9842.0, 9846.0, 9832.0, 9818.0, 9815.0, 9823.0, 9855.0, 9893.0, 9825.0, 9827.0, 9833.0, 9836.0, 9852.0, 9856.0, 9865.0, 9854.0, 9838.0, 9827.0, 9803.0, 9776.0, 9762.0, 9767.0, 9784.0, 9803.0, 9799.0, 9799.0, 9800.0, 9799.0, 9800.0, 9810.0, 9826.0, 9829.0, 9828.0, 9835.0, 9838.0, 9836.0, 9834.0, 9818.0, 9810.0, 9805.0, 9810.0, 9824.0, 9833.0, 9816.0, 9810.0, 9807.0, 9805.0, 9815.0, 9832.0, 9841.0, 9836.0, 9820.0, 9809.0, 9813.0, 9829.0, 9827.0, 9819.0, 9820.0, 9834.0, 9832.0, 9835.0, 9827.0, 9818.0, 9818.0, 9833.0, 9848.0, 9865.0, 9865.0, 9859.0, 9831.0, 9811.0, 9805.0, 9813.0, 9825.0, 9837.0, 9846.0, 9844.0, 9822.0, 9810.0, 9806.0, 9803.0, 9813.0, 9823.0, 9833.0, 9834.0, 9825.0, 9817.0, 9816.0, 9823.0, 9829.0, 9823.0, 9802.0, 9783.0, 9772.0, 9776.0, 9761.0, 9767.0, 9783.0, 9812.0, 9820.0, 9810.0, 9800.0, 9789.0],
      "WindowWidth": [20995.0, 20917.0, 20871.0, 20865.0, 20842.0, 20830.0, 20844.0, 20846.0, 20871.0, 20871.0, 20859.0, 20808.0, 20798.0, 20809.0, 20798.0, 20798.0, 20776.0, 20773.0, 20775.0, 20792.0, 20812.0, 20793.0, 20773.0, 20784.0, 20793.0, 20770.0, 20752.0, 20764.0, 20801.0, 20830.0, 20817.0, 20800.0, 20772.0, 20769.0, 20774.0, 20790.0, 20798.0, 20787.0, 20763.0, 20734.0, 20738.0, 20762.0, 20807.0, 20805.0, 20794.0, 20773.0, 20770.0, 20788.0, 20826.0, 20851.0, 20863.0, 20844.0, 20806.0, 20767.0, 20771.0, 20773.0, 20806.0, 20820.0, 20787.0, 20751.0, 20740.0, 20760.0, 20835.0, 20930.0, 20774.0, 20774.0, 20783.0, 20794.0, 20831.0, 20845.0, 20864.0, 20835.0, 20798.0, 20772.0, 20720.0, 20661.0, 20625.0, 20633.0, 20670.0, 20714.0, 20710.0, 20711.0, 20711.0, 20710.0, 20715.0, 20740.0, 20773.0, 20783.0, 20779.0, 20788.0, 20796.0, 20793.0, 20785.0, 20752.0, 20734.0, 20722.0, 20738.0, 20769.0, 20787.0, 20755.0, 20735.0, 20725.0, 20721.0, 20745.0, 20784.0, 20806.0, 20795.0, 20760.0, 20733.0, 20743.0, 20776.0, 20776.0, 20762.0, 20764.0, 20792.0, 20793.0, 20795.0, 20775.0, 20757.0, 20757.0, 20789.0, 20826.0, 20863.0, 20865.0, 20850.0, 20784.0, 20742.0, 20725.0, 20741.0, 20774.0, 20801.0, 20825.0, 20811.0, 20764.0, 20733.0, 20722.0, 20714.0, 20737.0, 20765.0, 20789.0, 20789.0, 20769.0, 20751.0, 20751.0, 20764.0, 20782.0, 20767.0, 20719.0, 20671.0, 20648.0, 20654.0, 20625.0, 20639.0, 20673.0, 20740.0, 20760.0, 20735.0, 20712.0, 20689.0]
    },
    "slices": {}
  }
}