{
  "AcquisitionMatrixPE": 104,
  "AcquisitionNumber": 1,
  "AcquisitionTime": "11:49:32.275000",
  "BandwidthPerPixelPhaseEncode": 17.17,
  "BaseResolution": 104,
  "BodyPartExamined": "BRAIN",
  "CoilString": "HC1-7;NC1_2",
  "ConsistencyInfo": "N4_VE11C_LATEST_20160120",
  "ConversionSoftware": "dcm2niix",
  "ConversionSoftwareVersion": "v1.0.20190720  (JP2:OpenJPEG) GCC7.3.0",
  "DerivedVendorReportedEchoSpacing": 0.000560011,
  "DeviceSerialNumber": "167006",
  "DwellTime": 2.1e-06,
  "EchoTime": 0.037,
  "EchoTrainLength": 104,
  "EffectiveEchoSpacing": 0.000560011,
  "FlipAngle": 52,
  "ImageComments": "Unaliased_MB4_PE3_LB",
  "ImageOrientationPatientDICOM": [0.999923, -0.010232, 0.00702888, 0.0120424, 0.936983, -0.349167],
  "ImageType": [
    "ORIGINAL",
    "PRIMARY",
    "M",
    "MB",
    "ND",
    "MOSAIC"
],
  "ImagingFrequency": 123.26,
  "InPlanePhaseEncodingDirectionDICOM": "COL",
  "InstitutionAddress": "Chemin_Queen-Mary_4565_Montreal_District_CA_H3W_1W5",
  "InstitutionName": "IUGM",
  "InstitutionalDepartmentName": "Department",
  "MRAcquisitionType": "2D",
  "MagneticFieldStrength": 3,
  "Manufacturer": "Siemens",
  "ManufacturersModelName": "Prisma_fit",
  "Modality": "MR",
  "MultibandAccelerationFactor": 4,
  "PartialFourier": 1,
  "PatientPosition": "HFS",
  "PercentPhaseFOV": 100,
  "PhaseEncodingDirection": "j",
  "PhaseEncodingSteps": 104,
  "PhaseResolution": 1,
  "PixelBandwidth": 2290,
  "ProcedureStepDescription": "hcptrt_generic",
  "ProtocolName": "func_task-social_run-2",
  "PulseSequenceDetails": "%CustomerSeq%_cmrr_mbep2d_bold",
  "ReceiveCoilActiveElements": "HC1-7;NC1,2",
  "ReceiveCoilName": "HeadNeck_64",
  "ReconMatrixPE": 104,
  "RepetitionTime": 1.49,
  "SAR": 0.0286786,
  "ScanOptions": "FS",
  "ScanningSequence": "EP",
  "SequenceName": "epfid2d1_104",
  "SequenceVariant": "SK_SS",
  "SeriesDescription": "func_task-social_run-2",
  "SeriesNumber": 27,
  "ShimSetting": [621, -7142, -8816, 662, 4, 183, 16, -27],
  "SliceThickness": 2,
  "SliceTiming": [0, 0.7825, 0.0975, 0.88, 0.195, 0.98, 0.2925, 1.0775, 0.39, 1.175, 0.49, 1.2725, 0.5875, 1.37, 0.685, 0, 0.7825, 0.0975, 0.88, 0.195, 0.98, 0.2925, 1.0775, 0.39, 1.175, 0.49, 1.2725, 0.5875, 1.37, 0.685, 0, 0.7825, 0.0975, 0.88, 0.195, 0.98, 0.2925, 1.0775, 0.39, 1.175, 0.49, 1.2725, 0.5875, 1.37, 0.685, 0, 0.7825, 0.0975, 0.88, 0.195, 0.98, 0.2925, 1.0775, 0.39, 1.175, 0.49, 1.2725, 0.5875, 1.37, 0.685],
  "SoftwareVersions": "syngo_MR_E11",
  "SpacingBetweenSlices": 2,
  "StationName": "MRC35049",
  "TaskName": "social",
  "TotalReadoutTime": 0.0576811,
  "TxRefAmp": 208.776,
  "WipMemBlock": "592f3470-33b0-43b3-8ea6-410237aa0bbe||Sequence: R016 ve11c/master r/e634e98; Dec 19 2017 11:00:25 by eja",
  "dcmmeta_affine": [
    [-1.9998458623886108, 0.024084756150841713, 0.006026542745530605, 107.55624389648438],
    [0.020463963970541954, 1.8739659786224365, -0.6984502077102661, -68.5918960571289],
    [0.014057769440114498, 0.6983346939086914, 1.874068021774292, -69.0165023803711],
    [0.0, 0.0, 0.0, 1.0]
],
  "dcmmeta_reorient_transform": [
    [0.0, -1.0, 0.0, 103.0],
    [1.0, 0.0, 0.0, 0.0],
    [0.0, 0.0, 1.0, 0.0],
    [0.0, 0.0, 0.0, 1.0]
],
  "dcmmeta_shape": [104, 104, 60, 139],
  "dcmmeta_slice_dim": 2,
  "dcmmeta_version": 0.6,
  "global": {
    "const": {
      "AcquisitionMatrix": [104, 0, 0, 104],
      "AngioFlag": "N",
      "BitsAllocated": 16,
      "BitsStored": 16,
      "BodyPartExamined": "BRAIN",
      "Columns": 832,
      "EchoNumbers": 1,
      "EchoTime": 37.0,
      "EchoTrainLength": 104,
      "FlipAngle": 52.0,
      "HighBit": 15,
      "ImageOrientationPatient": [0.99992294769038, -0.0102319822299, 0.00702888482172, 0.01204237842129, 0.93698299645996, -0.3491673602542],
      "ImagePositionPatient": [-846.74773145262, -799.10134228303, 251.98878233008],
      "ImageType": [
        "ORIGINAL",
        "PRIMARY",
        "M",
        "MB",
        "ND",
        "MOSAIC"
],
      "ImagedNucleus": "1H",
      "ImagingFrequency": 123.259565,
      "InPlanePhaseEncodingDirection": "COL",
      "MRAcquisitionType": "2D",
      "MagneticFieldStrength": 3.0,
      "Manufacturer": "SIEMENS",
      "ManufacturerModelName": "Prisma_fit",
      "Modality": "MR",
      "NumberOfAverages": 1.0,
      "NumberOfPhaseEncodingSteps": 104,
      "PercentPhaseFieldOfView": 100.0,
      "PercentSampling": 100.0,
      "PerformedProcedureStepStartTime": "104953.312000",
      "PhotometricInterpretation": "MONOCHROME2",
      "PixelBandwidth": 2290.0,
      "PixelRepresentation": 0,
      "PixelSpacing": [2.0, 2.0],
      "ProtocolName": "func_task-social_run-2",
      "RepetitionTime": 1490.0,
      "Rows": 832,
      "SAR": 0.02867859168961,
      "SamplesPerPixel": 1,
      "ScanOptions": "FS",
      "ScanningSequence": "EP",
      "SequenceName": "epfid2d1_104",
      "SequenceVariant": [
        "SK",
        "SS"
],
      "SeriesDescription": "func_task-social_run-2",
      "SeriesNumber": 27,
      "SeriesTime": "115035.949000",
      "SliceLocation": -40.392704989152,
      "SliceThickness": 2.0,
      "SmallestImagePixelValue": 0,
      "SoftwareVersions": "syngo MR E11",
      "SpacingBetweenSlices": 1.9999999599268,
      "SpecificCharacterSet": "ISO_IR 100",
      "StudyID": "1",
      "StudyTime": "104953.259000",
      "TransmitCoilName": "Body",
      "VariableFlipAngleFlag": "N",
      "WindowCenterWidthExplanation": "Algo1",
      "dBdt": 0.0},
    "slices": {}
  },
  "time": {
    "samples": {
      "AcquisitionNumber": [1, 2, 3, 4, 5, 6, 7, 8, 9, 10, 11, 12, 13, 14, 15, 16, 17, 18, 19, 20, 21, 22, 23, 24, 25, 26, 27, 28, 29, 30, 31, 32, 33, 34, 35, 36, 37, 38, 39, 40, 41, 42, 43, 44, 45, 46, 47, 48, 49, 50, 51, 52, 53, 54, 55, 56, 57, 58, 59, 60, 61, 62, 63, 64, 65, 66, 67, 68, 69, 70, 71, 72, 73, 74, 75, 76, 77, 78, 79, 80, 81, 82, 83, 84, 85, 86, 87, 88, 89, 90, 91, 92, 93, 94, 95, 96, 97, 98, 99, 100, 101, 102, 103, 104, 105, 106, 107, 108, 109, 110, 111, 112, 113, 114, 115, 116, 117, 118, 119, 120, 121, 122, 123, 124, 125, 126, 127, 128, 129, 130, 131, 132, 133, 134, 135, 136, 137, 138, 139],
      "AcquisitionTime": ["114932.275000", "114933.765000", "114935.255000", "114936.745000", "114938.235000", "114939.725000", "114941.215000", "114942.705000", "114944.195000", "114945.685000", "114947.175000", "114948.665000", "114950.155000", "114951.645000", "114953.135000", "114954.625000", "114956.115000", "114957.605000", "114959.095000", "115000.585000", "115002.075000", "115003.565000", "115005.055000", "115006.545000", "115008.035000", "115009.525000", "115011.015000", "115012.505000", "115013.995000", "115015.485000", "115016.975000", "115018.465000", "115019.955000", "115021.445000", "115022.935000", "115024.425000", "115025.915000", "115027.405000", "115028.895000", "115030.385000", "115031.875000", "115033.365000", "115034.855000", "115036.345000", "115037.835000", "115039.325000", "115040.815000", "115042.305000", "115043.795000", "115045.285000", "115046.775000", "115048.265000", "115049.755000", "115051.245000", "115052.735000", "115054.225000", "115055.715000", "115057.205000", "115058.695000", "115100.185000", "115101.675000", "115103.165000", "115104.655000", "115106.145000", "115107.635000", "115109.125000", "115110.615000", "115112.105000", "115113.595000", "115115.085000", "115116.575000", "115118.065000", "115119.555000", "115121.045000", "115122.535000", "115124.025000", "115125.515000", "115127.005000", "115128.495000", "115129.985000", "115131.475000", "115132.965000", "115134.455000", "115135.945000", "115137.435000", "115138.925000", "115140.415000", "115141.905000", "115143.395000", "115144.885000", "115146.375000", "115147.865000", "115149.355000", "115150.845000", "115152.335000", "115153.825000", "115155.315000", "115156.805000", "115158.295000", "115159.785000", "115201.275000", "115202.765000", "115204.255000", "115205.745000", "115207.235000", "115208.725000", "115210.215000", "115211.705000", "115213.195000", "115214.685000", "115216.175000", "115217.665000", "115219.155000", "115220.645000", "115222.135000", "115223.625000", "115225.115000", "115226.605000", "115228.095000", "115229.585000", "115231.075000", "115232.565000", "115234.055000", "115235.545000", "115237.035000", "115238.525000", "115240.015000", "115241.505000", "115242.995000", "115244.485000", "115245.975000", "115247.465000", "115248.955000", "115250.445000", "115251.935000", "115253.425000", "115254.915000", "115256.405000", "115257.895000"],
      "ContentTime": ["115035.951000", "115035.955000", "115035.958000", "115035.961000", "115035.964000", "115035.967000", "115035.970000", "115035.973000", "115035.976000", "115035.979000", "115055.918000", "115055.921000", "115055.924000", "115055.927000", "115055.930000", "115055.933000", "115055.936000", "115055.939000", "115055.942000", "115055.945000", "115055.948000", "115055.951000", "115055.954000", "115055.957000", "115055.976000", "115055.979000", "115055.988000", "115055.991000", "115055.994000", "115055.997000", "115115.918000", "115115.921000", "115115.924000", "115115.927000", "115115.930000", "115115.933000", "115115.937000", "115115.940000", "115115.943000", "115115.946000", "115115.949000", "115115.952000", "115115.955000", "115115.958000", "115115.961000", "115115.965000", "115115.968000", "115115.971000", "115115.974000", "115115.977000", "115135.918000", "115135.921000", "115135.925000", "115135.928000", "115135.931000", "115135.934000", "115135.937000", "115135.939000", "115135.942000", "115135.945000", "115135.948000", "115135.952000", "115135.956000", "115135.959000", "115135.962000", "115135.965000", "115135.969000", "115135.972000", "115135.975000", "115135.978000", "115155.919000", "115155.922000", "115155.925000", "115155.928000", "115155.931000", "115155.934000", "115155.937000", "115155.940000", "115155.943000", "115155.946000", "115155.949000", "115155.952000", "115155.955000", "115155.958000", "115155.961000", "115155.964000", "115155.967000", "115155.970000", "115155.972000", "115155.975000", "115235.918000", "115235.921000", "115235.924000", "115235.927000", "115235.930000", "115235.933000", "115235.936000", "115235.939000", "115235.942000", "115235.945000", "115235.948000", "115235.950000", "115235.953000", "115235.956000", "115235.959000", "115235.962000", "115235.965000", "115235.968000", "115235.971000", "115235.974000", "115235.977000", "115235.980000", "115235.983000", "115235.986000", "115235.989000", "115235.991000", "115235.994000", "115235.997000", "115236.001000", "115236.004000", "115236.007000", "115236.010000", "115300.133000", "115300.136000", "115300.139000", "115300.142000", "115300.145000", "115300.148000", "115300.151000", "115300.154000", "115300.157000", "115300.160000", "115300.164000", "115300.167000", "115300.170000", "115300.172000", "115300.176000", "115300.179000", "115300.182000"],
      "InstanceCreationTime": ["115035.951000", "115035.955000", "115035.958000", "115035.961000", "115035.964000", "115035.967000", "115035.970000", "115035.973000", "115035.976000", "115035.979000", "115055.918000", "115055.921000", "115055.924000", "115055.927000", "115055.930000", "115055.933000", "115055.936000", "115055.939000", "115055.942000", "115055.945000", "115055.948000", "115055.951000", "115055.954000", "115055.957000", "115055.976000", "115055.979000", "115055.988000", "115055.991000", "115055.994000", "115055.997000", "115115.918000", "115115.921000", "115115.924000", "115115.927000", "115115.930000", "115115.933000", "115115.937000", "115115.940000", "115115.943000", "115115.946000", "115115.949000", "115115.952000", "115115.955000", "115115.958000", "115115.961000", "115115.965000", "115115.968000", "115115.971000", "115115.974000", "115115.977000", "115135.918000", "115135.921000", "115135.925000", "115135.928000", "115135.931000", "115135.934000", "115135.937000", "115135.939000", "115135.942000", "115135.945000", "115135.948000", "115135.952000", "115135.956000", "115135.959000", "115135.962000", "115135.965000", "115135.969000", "115135.972000", "115135.975000", "115135.978000", "115155.919000", "115155.922000", "115155.925000", "115155.928000", "115155.931000", "115155.934000", "115155.937000", "115155.940000", "115155.943000", "115155.946000", "115155.949000", "115155.952000", "115155.955000", "115155.958000", "115155.961000", "115155.964000", "115155.967000", "115155.970000", "115155.972000", "115155.975000", "115235.918000", "115235.921000", "115235.924000", "115235.927000", "115235.930000", "115235.933000", "115235.936000", "115235.939000", "115235.942000", "115235.945000", "115235.948000", "115235.950000", "115235.953000", "115235.956000", "115235.959000", "115235.962000", "115235.965000", "115235.968000", "115235.971000", "115235.974000", "115235.977000", "115235.980000", "115235.983000", "115235.986000", "115235.989000", "115235.991000", "115235.994000", "115235.997000", "115236.001000", "115236.004000", "115236.007000", "115236.010000", "115300.133000", "115300.136000", "115300.139000", "115300.142000", "115300.145000", "115300.148000", "115300.151000", "115300.154000", "115300.157000", "115300.160000", "115300.164000", "115300.167000", "115300.170000", "115300.172000", "115300.176000", "115300.179000", "115300.182000"],
      "InstanceNumber": [1, 2, 3, 4, 5, 6, 7, 8, 9, 10, 11, 12, 13, 14, 15, 16, 17, 18, 19, 20, 21, 22, 23, 24, 25, 26, 27, 28, 29, 30, 31, 32, 33, 34, 35, 36, 37, 38, 39, 40, 41, 42, 43, 44, 45, 46, 47, 48, 49, 50, 51, 52, 53, 54, 55, 56, 57, 58, 59, 60, 61, 62, 63, 64, 65, 66, 67, 68, 69, 70, 71, 72, 73, 74, 75, 76, 77, 78, 79, 80, 81, 82, 83, 84, 85, 86, 87, 88, 89, 90, 91, 92, 93, 94, 95, 96, 97, 98, 99, 100, 101, 102, 103, 104, 105, 106, 107, 108, 109, 110, 111, 112, 113, 114, 115, 116, 117, 118, 119, 120, 121, 122, 123, 124, 125, 126, 127, 128, 129, 130, 131, 132, 133, 134, 135, 136, 137, 138, 139],
      "LargestImagePixelValue": [40297, 39522, 39119, 38518, 38558, 38571, 38861, 38490, 38696, 38128, 38152, 38390, 38285, 38378, 38800, 38604, 38785, 38030, 37239, 37813, 38076, 38291, 38008, 38509, 38570, 38355, 38336, 38155, 38028, 38675, 38916, 38692, 38629, 38425, 38130, 38760, 37775, 38162, 38656, 38415, 38111, 38174, 38281, 38023, 38045, 38399, 37986, 38199, 38693, 37866, 38269, 38006, 38403, 38095, 38033, 38022, 38236, 38719, 38539, 38217, 38463, 38385, 37601, 38201, 38228, 37996, 38360, 37656, 37947, 38385, 37938, 37842, 38121, 38233, 38498, 38406, 37929, 38311, 38275, 38049, 38629, 38596, 38213, 38760, 38362, 38243, 38180, 38421, 38359, 38555, 38353, 38451, 38215, 38299, 38071, 38273, 38665, 38241, 38243, 38334, 38230, 38190, 38677, 38292, 37989, 38227, 37958, 37906, 38363, 38519, 38289, 37830, 38234, 38542, 38450, 38323, 38774, 38736, 38863, 38497, 38735, 38733, 38686, 38058, 38068, 38197, 38235, 38567, 37988, 37864, 38584, 38619, 38357, 37853, 37765, 38303, 38048, 38322, 37981],
      "WindowCenter": [9919.0, 9881.0, 9861.0, 9844.0, 9826.0, 9830.0, 9839.0, 9865.0, 9887.0, 9882.0, 9866.0, 9851.0, 9841.0, 9833.0, 9841.0, 9857.0, 9877.0, 9889.0, 9880.0, 9866.0, 9845.0, 9833.0, 9832.0, 9831.0, 9838.0, 9848.0, 9860.0, 9844.0, 9826.0, 9814.0, 9818.0, 9827.0, 9838.0, 9848.0, 9843.0, 9848.0, 9836.0, 9841.0, 9848.0, 9850.0, 9860.0, 9867.0, 9884.0, 9880.0, 9861.0, 9851.0, 9860.0, 9870.0, 9878.0, 9871.0, 9861.0, 9851.0, 9851.0, 9852.0, 9845.0, 9827.0, 9813.0, 9810.0, 9820.0, 9840.0, 9849.0, 9851.0, 9844.0, 9849.0, 9859.0, 9878.0, 9886.0, 9872.0, 9870.0, 9885.0, 9896.0, 9892.0, 9888.0, 9881.0, 9860.0, 9851.0, 9843.0, 9841.0, 9839.0, 9824.0, 9828.0, 9827.0, 9831.0, 9855.0, 9860.0, 9852.0, 9843.0, 9833.0, 9833.0, 9839.0, 9841.0, 9852.0, 9871.0, 9887.0, 9880.0, 9872.0, 9878.0, 9879.0, 9881.0, 9889.0, 9865.0, 9845.0, 9849.0, 9859.0, 9861.0, 9851.0, 9835.0, 9818.0, 9829.0, 9840.0, 9874.0, 9882.0, 9872.0, 9863.0, 9852.0, 9835.0, 9823.0, 9814.0, 9811.0, 9813.0, 9828.0, 9848.0, 9866.0, 9871.0, 9872.0, 9870.0, 9873.0, 9886.0, 9872.0, 9857.0, 9866.0, 9877.0, 9878.0, 9865.0, 9857.0, 9860.0, 9843.0, 9832.0, 9833.0],
      "WindowWidth": [21026.0, 20921.0, 20865.0, 20825.0, 20782.0, 20785.0, 20808.0, 20865.0, 20914.0, 20904.0, 20869.0, 20832.0, 20807.0, 20792.0, 20811.0, 20847.0, 20892.0, 20925.0, 20912.0, 20874.0, 20821.0, 20790.0, 20787.0, 20786.0, 20801.0, 20823.0, 20850.0, 20817.0, 20773.0, 20745.0, 20752.0, 20773.0, 20800.0, 20826.0, 20817.0, 20824.0, 20802.0, 20811.0, 20824.0, 20834.0, 20856.0, 20870.0, 20908.0, 20900.0, 20855.0, 20833.0, 20853.0, 20880.0, 20893.0, 20877.0, 20855.0, 20831.0, 20831.0, 20832.0, 20818.0, 20776.0, 20744.0, 20735.0, 20758.0, 20805.0, 20828.0, 20835.0, 20821.0, 20829.0, 20855.0, 20899.0, 20917.0, 20885.0, 20879.0, 20909.0, 20935.0, 20927.0, 20916.0, 20900.0, 20850.0, 20828.0, 20810.0, 20807.0, 20800.0, 20770.0, 20774.0, 20772.0, 20787.0, 20839.0, 20852.0, 20833.0, 20815.0, 20793.0, 20793.0, 20807.0, 20814.0, 20840.0, 20884.0, 20919.0, 20904.0, 20886.0, 20894.0, 20898.0, 20901.0, 20918.0, 20865.0, 20818.0, 20824.0, 20850.0, 20854.0, 20827.0, 20795.0, 20758.0, 20776.0, 20803.0, 20878.0, 20904.0, 20880.0, 20858.0, 20831.0, 20796.0, 20770.0, 20750.0, 20742.0, 20747.0, 20778.0, 20825.0, 20868.0, 20883.0, 20882.0, 20874.0, 20883.0, 20909.0, 20880.0, 20847.0, 20861.0, 20888.0, 20888.0, 20864.0, 20849.0, 20848.0, 20812.0, 20788.0, 20791.0]
    },
    "slices": {}
  }
}