{
  "AcquisitionMatrixPE": 104,
  "AcquisitionNumber": 1,
  "AcquisitionTime": "10:19:16.500000",
  "BandwidthPerPixelPhaseEncode": 17.17,
  "BaseResolution": 104,
  "BodyPartExamined": "BRAIN",
  "CoilString": "HC1-7;NC1_2",
  "ConsistencyInfo": "N4_VE11C_LATEST_20160120",
  "ConversionSoftware": "dcm2niix",
  "ConversionSoftwareVersion": "v1.0.20190720  (JP2:OpenJPEG) GCC7.3.0",
  "DerivedVendorReportedEchoSpacing": 0.000560011,
  "DeviceSerialNumber": "167006",
  "DwellTime": 2.1e-06,
  "EchoTime": 0.037,
  "EchoTrainLength": 104,
  "EffectiveEchoSpacing": 0.000560011,
  "FlipAngle": 52,
  "ImageComments": "Unaliased_MB4_PE3_LB",
  "ImageOrientationPatientDICOM": [0.999793, -0.0195809, 0.00558236, 0.0202444, 0.926662, -0.375349],
  "ImageType": [
    "ORIGINAL",
    "PRIMARY",
    "M",
    "MB",
    "ND",
    "MOSAIC"
],
  "ImagingFrequency": 123.259,
  "InPlanePhaseEncodingDirectionDICOM": "COL",
  "InstitutionAddress": "Chemin_Queen-Mary_4565_Montreal_District_CA_H3W_1W5",
  "InstitutionName": "IUGM",
  "InstitutionalDepartmentName": "Department",
  "MRAcquisitionType": "2D",
  "MagneticFieldStrength": 3,
  "Manufacturer": "Siemens",
  "ManufacturersModelName": "Prisma_fit",
  "Modality": "MR",
  "MultibandAccelerationFactor": 4,
  "PartialFourier": 1,
  "PatientPosition": "HFS",
  "PercentPhaseFOV": 100,
  "PhaseEncodingDirection": "j",
  "PhaseEncodingSteps": 104,
  "PhaseResolution": 1,
  "PixelBandwidth": 2290,
  "ProcedureStepDescription": "hcptrt_generic",
  "ProtocolName": "func_task-social_run-1",
  "PulseSequenceDetails": "%CustomerSeq%_cmrr_mbep2d_bold",
  "ReceiveCoilActiveElements": "HC1-7;NC1,2",
  "ReceiveCoilName": "HeadNeck_64",
  "ReconMatrixPE": 104,
  "RepetitionTime": 1.49,
  "SAR": 0.0285463,
  "ScanOptions": "FS",
  "ScanningSequence": "EP",
  "SequenceName": "epfid2d1_104",
  "SequenceVariant": "SK_SS",
  "SeriesDescription": "func_task-social_run-1",
  "SeriesNumber": 11,
  "ShimSetting": [628, -7137, -8814, 633, 33, 202, 23, -7],
  "SliceThickness": 2,
  "SliceTiming": [0, 0.7825, 0.0975, 0.88, 0.195, 0.98, 0.2925, 1.0775, 0.39, 1.175, 0.49, 1.2725, 0.5875, 1.37, 0.685, 0, 0.7825, 0.0975, 0.88, 0.195, 0.98, 0.2925, 1.0775, 0.39, 1.175, 0.49, 1.2725, 0.5875, 1.37, 0.685, 0, 0.7825, 0.0975, 0.88, 0.195, 0.98, 0.2925, 1.0775, 0.39, 1.175, 0.49, 1.2725, 0.5875, 1.37, 0.685, 0, 0.7825, 0.0975, 0.88, 0.195, 0.98, 0.2925, 1.0775, 0.39, 1.175, 0.49, 1.2725, 0.5875, 1.37, 0.685],
  "SoftwareVersions": "syngo_MR_E11",
  "SpacingBetweenSlices": 2,
  "StationName": "MRC35049",
  "TaskName": "social",
  "TotalReadoutTime": 0.0576811,
  "TxRefAmp": 207.532,
  "WipMemBlock": "22c2cc32-e8c9-4322-a2f9-a649ca215ca0||Sequence: R016 ve11c/master r/e634e98; Dec 19 2017 11:00:25 by eja",
  "dcmmeta_affine": [
    [-1.9995853900909424, 0.04048873111605644, -0.004353407770395279, 106.86528778076172],
    [0.03916170075535774, 1.85332453250885, -0.7507694363594055, -67.37720489501953],
    [0.0111647117882967, 0.750698983669281, 1.8537331819534302, -69.34465789794922],
    [0.0, 0.0, 0.0, 1.0]
],
  "dcmmeta_reorient_transform": [
    [0.0, -1.0, 0.0, 103.0],
    [1.0, 0.0, 0.0, 0.0],
    [0.0, 0.0, 1.0, 0.0],
    [0.0, 0.0, 0.0, 1.0]
],
  "dcmmeta_shape": [104, 104, 60, 139],
  "dcmmeta_slice_dim": 2,
  "dcmmeta_version": 0.6,
  "global": {
    "const": {
      "AcquisitionMatrix": [104, 0, 0, 104],
      "AngioFlag": "N",
      "BitsAllocated": 16,
      "BitsStored": 16,
      "BodyPartExamined": "BRAIN",
      "Columns": 832,
      "EchoNumbers": 1,
      "EchoTime": 37.0,
      "EchoTrainLength": 104,
      "FlipAngle": 52.0,
      "HighBit": 15,
      "ImageOrientationPatient": [0.99979269231102, -0.0195808503952, 0.00558235606925, 0.02024436618159, 0.92666224620493, -0.3753494999282],
      "ImagePositionPatient": [-853.62260726302, -783.87047421287, 277.16782245223],
      "ImageType": [
        "ORIGINAL",
        "PRIMARY",
        "M",
        "MB",
        "ND",
        "MOSAIC"
],
      "ImagedNucleus": "1H",
      "ImagingFrequency": 123.25944,
      "InPlanePhaseEncodingDirection": "COL",
      "MRAcquisitionType": "2D",
      "MagneticFieldStrength": 3.0,
      "Manufacturer": "SIEMENS",
      "ManufacturerModelName": "Prisma_fit",
      "Modality": "MR",
      "NumberOfAverages": 1.0,
      "NumberOfPhaseEncodingSteps": 104,
      "PercentPhaseFieldOfView": 100.0,
      "PercentSampling": 100.0,
      "PerformedProcedureStepStartTime": "100539.607000",
      "PhotometricInterpretation": "MONOCHROME2",
      "PixelBandwidth": 2290.0,
      "PixelRepresentation": 0,
      "PixelSpacing": [2.0, 2.0],
      "ProtocolName": "func_task-social_run-1",
      "RepetitionTime": 1490.0,
      "Rows": 832,
      "SAR": 0.02854631037667,
      "SamplesPerPixel": 1,
      "ScanOptions": "FS",
      "ScanningSequence": "EP",
      "SequenceName": "epfid2d1_104",
      "SequenceVariant": [
        "SK",
        "SS"
],
      "SeriesDescription": "func_task-social_run-1",
      "SeriesNumber": 11,
      "SeriesTime": "102043.946000",
      "SliceLocation": -39.213483396003,
      "SliceThickness": 2.0,
      "SmallestImagePixelValue": 0,
      "SoftwareVersions": "syngo MR E11",
      "SpacingBetweenSlices": 2.0000000637502,
      "SpecificCharacterSet": "ISO_IR 100",
      "StudyID": "1",
      "StudyTime": "100539.498000",
      "TransmitCoilName": "Body",
      "VariableFlipAngleFlag": "N",
      "WindowCenterWidthExplanation": "Algo1",
      "dBdt": 0.0},
    "slices": {}
  },
  "time": {
    "samples": {
      "AcquisitionNumber": [1, 2, 3, 4, 5, 6, 7, 8, 9, 10, 11, 12, 13, 14, 15, 16, 17, 18, 19, 20, 21, 22, 23, 24, 25, 26, 27, 28, 29, 30, 31, 32, 33, 34, 35, 36, 37, 38, 39, 40, 41, 42, 43, 44, 45, 46, 47, 48, 49, 50, 51, 52, 53, 54, 55, 56, 57, 58, 59, 60, 61, 62, 63, 64, 65, 66, 67, 68, 69, 70, 71, 72, 73, 74, 75, 76, 77, 78, 79, 80, 81, 82, 83, 84, 85, 86, 87, 88, 89, 90, 91, 92, 93, 94, 95, 96, 97, 98, 99, 100, 101, 102, 103, 104, 105, 106, 107, 108, 109, 110, 111, 112, 113, 114, 115, 116, 117, 118, 119, 120, 121, 122, 123, 124, 125, 126, 127, 128, 129, 130, 131, 132, 133, 134, 135, 136, 137, 138, 139],
      "AcquisitionTime": ["101916.500000", "101917.990000", "101919.480000", "101920.970000", "101922.460000", "101923.950000", "101925.440000", "101926.930000", "101928.420000", "101929.910000", "101931.400000", "101932.890000", "101934.380000", "101935.870000", "101937.360000", "101938.850000", "101940.340000", "101941.830000", "101943.320000", "101944.810000", "101946.300000", "101947.790000", "101949.280000", "101950.770000", "101952.260000", "101953.750000", "101955.240000", "101956.730000", "101958.220000", "101959.710000", "102001.200000", "102002.690000", "102004.180000", "102005.670000", "102007.160000", "102008.650000", "102010.140000", "102011.630000", "102013.120000", "102014.610000", "102016.100000", "102017.590000", "102019.080000", "102020.570000", "102022.060000", "102023.550000", "102025.040000", "102026.530000", "102028.020000", "102029.510000", "102031.000000", "102032.490000", "102033.980000", "102035.470000", "102036.960000", "102038.450000", "102039.940000", "102041.430000", "102042.920000", "102044.410000", "102045.900000", "102047.390000", "102048.880000", "102050.370000", "102051.860000", "102053.350000", "102054.840000", "102056.330000", "102057.820000", "102059.310000", "102100.800000", "102102.290000", "102103.780000", "102105.270000", "102106.760000", "102108.250000", "102109.740000", "102111.230000", "102112.720000", "102114.210000", "102115.700000", "102117.190000", "102118.680000", "102120.170000", "102121.660000", "102123.150000", "102124.640000", "102126.130000", "102127.620000", "102129.110000", "102130.600000", "102132.090000", "102133.580000", "102135.070000", "102136.560000", "102138.050000", "102139.540000", "102141.030000", "102142.520000", "102144.010000", "102145.500000", "102146.990000", "102148.480000", "102149.970000", "102151.460000", "102152.950000", "102154.440000", "102155.930000", "102157.420000", "102158.910000", "102200.400000", "102201.890000", "102203.380000", "102204.870000", "102206.360000", "102207.850000", "102209.340000", "102210.830000", "102212.320000", "102213.810000", "102215.300000", "102216.790000", "102218.280000", "102219.770000", "102221.260000", "102222.750000", "102224.240000", "102225.730000", "102227.220000", "102228.710000", "102230.200000", "102231.690000", "102233.180000", "102234.670000", "102236.160000", "102237.650000", "102239.140000", "102240.630000", "102242.120000"],
      "ContentTime": ["102043.949000", "102043.953000", "102043.956000", "102043.964000", "102043.967000", "102043.970000", "102043.973000", "102043.976000", "102043.979000", "102043.982000", "102043.985000", "102044.005000", "102044.008000", "102044.011000", "102044.014000", "102044.017000", "102044.020000", "102044.023000", "102044.026000", "102044.029000", "102044.032000", "102044.035000", "102044.038000", "102044.041000", "102044.043000", "102044.046000", "102044.049000", "102044.053000", "102044.056000", "102044.059000", "102044.061000", "102044.064000", "102044.067000", "102044.070000", "102103.910000", "102103.913000", "102103.916000", "102103.919000", "102103.928000", "102103.931000", "102103.934000", "102103.937000", "102103.940000", "102103.943000", "102103.946000", "102103.949000", "102103.952000", "102103.954000", "102103.957000", "102103.961000", "102103.964000", "102103.967000", "102103.969000", "102103.972000", "102123.910000", "102123.913000", "102123.916000", "102123.919000", "102123.922000", "102123.925000", "102123.928000", "102123.931000", "102123.934000", "102123.937000", "102123.940000", "102123.943000", "102123.945000", "102123.948000", "102123.951000", "102123.954000", "102123.957000", "102123.960000", "102123.963000", "102123.966000", "102143.909000", "102143.912000", "102143.915000", "102143.918000", "102143.921000", "102143.924000", "102143.927000", "102143.930000", "102143.933000", "102143.936000", "102143.939000", "102143.942000", "102143.945000", "102143.948000", "102143.951000", "102143.954000", "102143.957000", "102143.960000", "102143.963000", "102143.966000", "102143.969000", "102223.910000", "102223.913000", "102223.916000", "102223.919000", "102223.922000", "102223.925000", "102223.929000", "102223.932000", "102223.935000", "102223.938000", "102223.941000", "102223.944000", "102223.947000", "102223.950000", "102223.953000", "102223.956000", "102223.958000", "102223.961000", "102223.964000", "102223.967000", "102223.970000", "102223.973000", "102223.976000", "102223.979000", "102223.982000", "102223.985000", "102223.988000", "102223.991000", "102223.994000", "102223.997000", "102243.920000", "102243.923000", "102243.927000", "102243.930000", "102243.933000", "102243.936000", "102243.939000", "102243.942000", "102243.945000", "102243.948000", "102243.951000", "102243.955000", "102243.958000", "102243.961000"],
      "InstanceCreationTime": ["102043.949000", "102043.953000", "102043.956000", "102043.964000", "102043.967000", "102043.970000", "102043.973000", "102043.976000", "102043.979000", "102043.982000", "102043.985000", "102044.005000", "102044.008000", "102044.011000", "102044.014000", "102044.017000", "102044.020000", "102044.023000", "102044.026000", "102044.029000", "102044.032000", "102044.035000", "102044.038000", "102044.041000", "102044.043000", "102044.046000", "102044.049000", "102044.053000", "102044.056000", "102044.059000", "102044.061000", "102044.064000", "102044.067000", "102044.070000", "102103.910000", "102103.913000", "102103.916000", "102103.919000", "102103.928000", "102103.931000", "102103.934000", "102103.937000", "102103.940000", "102103.943000", "102103.946000", "102103.949000", "102103.952000", "102103.954000", "102103.957000", "102103.961000", "102103.964000", "102103.967000", "102103.969000", "102103.972000", "102123.910000", "102123.913000", "102123.916000", "102123.919000", "102123.922000", "102123.925000", "102123.928000", "102123.931000", "102123.934000", "102123.937000", "102123.940000", "102123.943000", "102123.945000", "102123.948000", "102123.951000", "102123.954000", "102123.957000", "102123.960000", "102123.963000", "102123.966000", "102143.909000", "102143.912000", "102143.915000", "102143.918000", "102143.921000", "102143.924000", "102143.927000", "102143.930000", "102143.933000", "102143.936000", "102143.939000", "102143.942000", "102143.945000", "102143.948000", "102143.951000", "102143.954000", "102143.957000", "102143.960000", "102143.963000", "102143.966000", "102143.969000", "102223.910000", "102223.913000", "102223.916000", "102223.919000", "102223.922000", "102223.925000", "102223.929000", "102223.932000", "102223.935000", "102223.938000", "102223.941000", "102223.944000", "102223.947000", "102223.950000", "102223.953000", "102223.956000", "102223.958000", "102223.961000", "102223.964000", "102223.967000", "102223.970000", "102223.973000", "102223.976000", "102223.979000", "102223.982000", "102223.985000", "102223.988000", "102223.991000", "102223.994000", "102223.997000", "102243.920000", "102243.923000", "102243.927000", "102243.930000", "102243.933000", "102243.936000", "102243.939000", "102243.942000", "102243.945000", "102243.948000", "102243.951000", "102243.955000", "102243.958000", "102243.961000"],
      "InstanceNumber": [1, 2, 3, 4, 5, 6, 7, 8, 9, 10, 11, 12, 13, 14, 15, 16, 17, 18, 19, 20, 21, 22, 23, 24, 25, 26, 27, 28, 29, 30, 31, 32, 33, 34, 35, 36, 37, 38, 39, 40, 41, 42, 43, 44, 45, 46, 47, 48, 49, 50, 51, 52, 53, 54, 55, 56, 57, 58, 59, 60, 61, 62, 63, 64, 65, 66, 67, 68, 69, 70, 71, 72, 73, 74, 75, 76, 77, 78, 79, 80, 81, 82, 83, 84, 85, 86, 87, 88, 89, 90, 91, 92, 93, 94, 95, 96, 97, 98, 99, 100, 101, 102, 103, 104, 105, 106, 107, 108, 109, 110, 111, 112, 113, 114, 115, 116, 117, 118, 119, 120, 121, 122, 123, 124, 125, 126, 127, 128, 129, 130, 131, 132, 133, 134, 135, 136, 137, 138, 139],
      "LargestImagePixelValue": [43347, 41845, 41426, 41085, 40781, 40269, 40474, 40117, 40057, 40168, 40227, 40395, 40047, 39822, 39945, 39572, 39315, 39713, 39959, 40090, 39933, 39973, 40077, 39572, 39853, 40086, 40358, 39508, 39856, 39806, 39881, 39839, 40111, 40073, 40622, 39945, 39759, 39810, 39825, 40185, 40163, 39939, 39726, 40164, 39695, 40105, 40198, 39619, 39876, 40079, 39664, 39734, 40231, 39657, 39431, 39879, 39296, 39378, 39606, 39854, 39676, 39961, 39555, 39780, 40199, 40241, 39711, 39922, 39590, 40255, 40169, 39689, 39712, 39801, 39410, 39764, 39745, 39751, 39200, 39578, 39619, 40256, 40097, 39840, 39826, 40224, 39975, 39958, 40423, 40173, 39646, 40262, 39799, 39347, 39442, 39897, 39916, 39630, 39727, 39613, 39716, 40103, 40181, 39703, 39436, 39118, 39894, 39924, 39902, 39201, 40227, 39673, 39077, 39789, 40088, 39836, 40040, 39816, 39398, 39885, 39951, 39657, 39803, 39749, 39977, 40073, 39809, 39742, 39634, 39691, 39928, 40183, 40700, 40232, 40226, 39517, 39278, 39871, 40392],
      "WindowCenter": [9924.0, 9889.0, 9894.0, 9886.0, 9878.0, 9863.0, 9854.0, 9850.0, 9850.0, 9858.0, 9867.0, 9870.0, 9871.0, 9873.0, 9879.0, 9873.0, 9863.0, 9854.0, 9852.0, 9862.0, 9863.0, 9870.0, 9870.0, 9870.0, 9869.0, 9864.0, 9879.0, 9875.0, 9881.0, 9871.0, 9862.0, 9854.0, 9868.0, 9877.0, 9885.0, 9873.0, 9881.0, 9881.0, 9883.0, 9895.0, 9896.0, 9889.0, 9884.0, 9881.0, 9872.0, 9872.0, 9870.0, 9863.0, 9862.0, 9868.0, 9863.0, 9863.0, 9869.0, 9872.0, 9867.0, 9874.0, 9859.0, 9849.0, 9855.0, 9854.0, 9853.0, 9845.0, 9853.0, 9863.0, 9879.0, 9878.0, 9866.0, 9871.0, 9872.0, 9877.0, 9879.0, 9873.0, 9875.0, 9880.0, 9867.0, 9858.0, 9856.0, 9855.0, 9857.0, 9846.0, 9835.0, 9825.0, 9825.0, 9831.0, 9844.0, 9861.0, 9871.0, 9856.0, 9852.0, 9851.0, 9848.0, 9870.0, 9872.0, 9866.0, 9864.0, 9857.0, 9855.0, 9864.0, 9865.0, 9872.0, 9866.0, 9874.0, 9880.0, 9874.0, 9867.0, 9852.0, 9855.0, 9852.0, 9853.0, 9848.0, 9877.0, 9875.0, 9861.0, 9857.0, 9846.0, 9852.0, 9855.0, 9871.0, 9873.0, 9880.0, 9879.0, 9882.0, 9874.0, 9867.0, 9856.0, 9854.0, 9854.0, 9857.0, 9848.0, 9837.0, 9819.0, 9816.0, 9824.0, 9833.0, 9834.0, 9827.0, 9829.0, 9834.0, 9828.0],
      "WindowWidth": [21043.0, 20950.0, 20949.0, 20928.0, 20906.0, 20872.0, 20852.0, 20841.0, 20843.0, 20860.0, 20881.0, 20889.0, 20891.0, 20897.0, 20909.0, 20897.0, 20873.0, 20853.0, 20846.0, 20869.0, 20872.0, 20886.0, 20885.0, 20884.0, 20880.0, 20875.0, 20907.0, 20902.0, 20911.0, 20887.0, 20866.0, 20849.0, 20879.0, 20899.0, 20917.0, 20895.0, 20912.0, 20911.0, 20918.0, 20941.0, 20944.0, 20930.0, 20922.0, 20912.0, 20892.0, 20893.0, 20887.0, 20868.0, 20865.0, 20877.0, 20867.0, 20869.0, 20881.0, 20894.0, 20883.0, 20895.0, 20864.0, 20839.0, 20851.0, 20850.0, 20849.0, 20830.0, 20849.0, 20873.0, 20906.0, 20903.0, 20880.0, 20888.0, 20891.0, 20901.0, 20907.0, 20895.0, 20900.0, 20906.0, 20880.0, 20858.0, 20853.0, 20850.0, 20857.0, 20831.0, 20805.0, 20781.0, 20781.0, 20794.0, 20826.0, 20862.0, 20884.0, 20850.0, 20840.0, 20838.0, 20839.0, 20883.0, 20889.0, 20878.0, 20870.0, 20856.0, 20850.0, 20872.0, 20875.0, 20885.0, 20875.0, 20891.0, 20902.0, 20893.0, 20876.0, 20845.0, 20846.0, 20841.0, 20845.0, 20838.0, 20897.0, 20896.0, 20869.0, 20855.0, 20831.0, 20842.0, 20853.0, 20887.0, 20893.0, 20908.0, 20906.0, 20913.0, 20896.0, 20879.0, 20852.0, 20847.0, 20845.0, 20852.0, 20832.0, 20804.0, 20766.0, 20758.0, 20774.0, 20798.0, 20798.0, 20784.0, 20788.0, 20797.0, 20785.0]
    },
    "slices": {}
  }
}