{
  "AcquisitionMatrixPE": 104,
  "AcquisitionNumber": 1,
  "AcquisitionTime": "10:23:51.797500",
  "BandwidthPerPixelPhaseEncode": 17.17,
  "BaseResolution": 104,
  "BodyPartExamined": "BRAIN",
  "CoilString": "HC1-7;NC1_2",
  "ConsistencyInfo": "N4_VE11C_LATEST_20160120",
  "ConversionSoftware": "dcm2niix",
  "ConversionSoftwareVersion": "v1.0.20190720  (JP2:OpenJPEG) GCC7.3.0",
  "DerivedVendorReportedEchoSpacing": 0.000560011,
  "DeviceSerialNumber": "167006",
  "DwellTime": 2.1e-06,
  "EchoTime": 0.037,
  "EchoTrainLength": 104,
  "EffectiveEchoSpacing": 0.000560011,
  "FlipAngle": 52,
  "ImageComments": "Unaliased_MB4_PE3_LB",
  "ImageOrientationPatientDICOM": [0.999793, -0.0195809, 0.00558236, 0.0202444, 0.926662, -0.375349],
  "ImageType": [
    "ORIGINAL",
    "PRIMARY",
    "M",
    "MB",
    "ND",
    "MOSAIC"
],
  "ImagingFrequency": 123.259,
  "InPlanePhaseEncodingDirectionDICOM": "COL",
  "InstitutionAddress": "Chemin_Queen-Mary_4565_Montreal_District_CA_H3W_1W5",
  "InstitutionName": "IUGM",
  "InstitutionalDepartmentName": "Department",
  "MRAcquisitionType": "2D",
  "MagneticFieldStrength": 3,
  "Manufacturer": "Siemens",
  "ManufacturersModelName": "Prisma_fit",
  "Modality": "MR",
  "MultibandAccelerationFactor": 4,
  "PartialFourier": 1,
  "PatientPosition": "HFS",
  "PercentPhaseFOV": 100,
  "PhaseEncodingDirection": "j",
  "PhaseEncodingSteps": 104,
  "PhaseResolution": 1,
  "PixelBandwidth": 2290,
  "ProcedureStepDescription": "hcptrt_generic",
  "ProtocolName": "func_task-motor_run-1",
  "PulseSequenceDetails": "%CustomerSeq%_cmrr_mbep2d_bold",
  "ReceiveCoilActiveElements": "HC1-7;NC1,2",
  "ReceiveCoilName": "HeadNeck_64",
  "ReconMatrixPE": 104,
  "RepetitionTime": 1.49,
  "SAR": 0.0285596,
  "ScanOptions": "FS",
  "ScanningSequence": "EP",
  "SequenceName": "epfid2d1_104",
  "SequenceVariant": "SK_SS",
  "SeriesDescription": "func_task-motor_run-1",
  "SeriesNumber": 13,
  "ShimSetting": [628, -7137, -8814, 633, 33, 202, 23, -7],
  "SliceThickness": 2,
  "SliceTiming": [0, 0.785, 0.1, 0.8825, 0.1975, 0.98, 0.295, 1.08, 0.3925, 1.1775, 0.49, 1.275, 0.59, 1.3725, 0.6875, 0, 0.785, 0.1, 0.8825, 0.1975, 0.98, 0.295, 1.08, 0.3925, 1.1775, 0.49, 1.275, 0.59, 1.3725, 0.6875, 0, 0.785, 0.1, 0.8825, 0.1975, 0.98, 0.295, 1.08, 0.3925, 1.1775, 0.49, 1.275, 0.59, 1.3725, 0.6875, 0, 0.785, 0.1, 0.8825, 0.1975, 0.98, 0.295, 1.08, 0.3925, 1.1775, 0.49, 1.275, 0.59, 1.3725, 0.6875],
  "SoftwareVersions": "syngo_MR_E11",
  "SpacingBetweenSlices": 2,
  "StationName": "MRC35049",
  "TaskName": "motor",
  "TotalReadoutTime": 0.0576811,
  "TxRefAmp": 207.532,
  "WipMemBlock": "c8d6a882-ba63-4200-b666-ec4ce98cf3ee||Sequence: R016 ve11c/master r/e634e98; Dec 19 2017 11:00:25 by eja",
  "dcmmeta_affine": [
    [-1.9995853900909424, 0.04048873111605644, -0.004353407770395279, 106.86528778076172],
    [0.03916170075535774, 1.85332453250885, -0.7507694363594055, -67.37720489501953],
    [0.0111647117882967, 0.750698983669281, 1.8537331819534302, -69.34465789794922],
    [0.0, 0.0, 0.0, 1.0]
],
  "dcmmeta_reorient_transform": [
    [0.0, -1.0, 0.0, 103.0],
    [1.0, 0.0, 0.0, 0.0],
    [0.0, 0.0, 1.0, 0.0],
    [0.0, 0.0, 0.0, 1.0]
],
  "dcmmeta_shape": [104, 104, 60, 144],
  "dcmmeta_slice_dim": 2,
  "dcmmeta_version": 0.6,
  "global": {
    "const": {
      "AcquisitionMatrix": [104, 0, 0, 104],
      "AngioFlag": "N",
      "BitsAllocated": 16,
      "BitsStored": 16,
      "BodyPartExamined": "BRAIN",
      "Columns": 832,
      "EchoNumbers": 1,
      "EchoTime": 37.0,
      "EchoTrainLength": 104,
      "FlipAngle": 52.0,
      "HighBit": 15,
      "ImageOrientationPatient": [0.99979269231102, -0.0195808503952, 0.00558235606925, 0.02024436618159, 0.92666224620493, -0.3753494999282],
      "ImagePositionPatient": [-853.62260726302, -783.87047421287, 277.16782245223],
      "ImageType": [
        "ORIGINAL",
        "PRIMARY",
        "M",
        "MB",
        "ND",
        "MOSAIC"
],
      "ImagedNucleus": "1H",
      "ImagingFrequency": 123.259443,
      "InPlanePhaseEncodingDirection": "COL",
      "MRAcquisitionType": "2D",
      "MagneticFieldStrength": 3.0,
      "Manufacturer": "SIEMENS",
      "ManufacturerModelName": "Prisma_fit",
      "Modality": "MR",
      "NumberOfAverages": 1.0,
      "NumberOfPhaseEncodingSteps": 104,
      "PercentPhaseFieldOfView": 100.0,
      "PercentSampling": 100.0,
      "PerformedProcedureStepStartTime": "100539.607000",
      "PhotometricInterpretation": "MONOCHROME2",
      "PixelBandwidth": 2290.0,
      "PixelRepresentation": 0,
      "PixelSpacing": [2.0, 2.0],
      "ProtocolName": "func_task-motor_run-1",
      "RepetitionTime": 1490.0,
      "Rows": 832,
      "SAR": 0.02855961285781,
      "SamplesPerPixel": 1,
      "ScanOptions": "FS",
      "ScanningSequence": "EP",
      "SequenceName": "epfid2d1_104",
      "SequenceVariant": [
        "SK",
        "SS"
],
      "SeriesDescription": "func_task-motor_run-1",
      "SeriesNumber": 13,
      "SeriesTime": "102515.643000",
      "SliceLocation": -39.213483396003,
      "SliceThickness": 2.0,
      "SmallestImagePixelValue": 0,
      "SoftwareVersions": "syngo MR E11",
      "SpacingBetweenSlices": 2.0000000637502,
      "SpecificCharacterSet": "ISO_IR 100",
      "StudyID": "1",
      "StudyTime": "100539.498000",
      "TransmitCoilName": "Body",
      "VariableFlipAngleFlag": "N",
      "WindowCenterWidthExplanation": "Algo1",
      "dBdt": 0.0},
    "slices": {}
  },
  "time": {
    "samples": {
      "AcquisitionNumber": [1, 2, 3, 4, 5, 6, 7, 8, 9, 10, 11, 12, 13, 14, 15, 16, 17, 18, 19, 20, 21, 22, 23, 24, 25, 26, 27, 28, 29, 30, 31, 32, 33, 34, 35, 36, 37, 38, 39, 40, 41, 42, 43, 44, 45, 46, 47, 48, 49, 50, 51, 52, 53, 54, 55, 56, 57, 58, 59, 60, 61, 62, 63, 64, 65, 66, 67, 68, 69, 70, 71, 72, 73, 74, 75, 76, 77, 78, 79, 80, 81, 82, 83, 84, 85, 86, 87, 88, 89, 90, 91, 92, 93, 94, 95, 96, 97, 98, 99, 100, 101, 102, 103, 104, 105, 106, 107, 108, 109, 110, 111, 112, 113, 114, 115, 116, 117, 118, 119, 120, 121, 122, 123, 124, 125, 126, 127, 128, 129, 130, 131, 132, 133, 134, 135, 136, 137, 138, 139, 140, 141, 142, 143, 144],
      "AcquisitionTime": ["102351.797500", "102353.287500", "102354.777500", "102356.267500", "102357.757500", "102359.247500", "102400.737500", "102402.227500", "102403.717500", "102405.207500", "102406.697500", "102408.187500", "102409.677500", "102411.167500", "102412.657500", "102414.147500", "102415.637500", "102417.127500", "102418.617500", "102420.107500", "102421.597500", "102423.087500", "102424.577500", "102426.067500", "102427.557500", "102429.047500", "102430.537500", "102432.027500", "102433.517500", "102435.007500", "102436.497500", "102437.987500", "102439.477500", "102440.967500", "102442.457500", "102443.947500", "102445.437500", "102446.927500", "102448.417500", "102449.907500", "102451.397500", "102452.887500", "102454.377500", "102455.867500", "102457.357500", "102458.847500", "102500.337500", "102501.827500", "102503.317500", "102504.807500", "102506.297500", "102507.787500", "102509.277500", "102510.767500", "102512.257500", "102513.747500", "102515.237500", "102516.727500", "102518.217500", "102519.707500", "102521.197500", "102522.687500", "102524.177500", "102525.667500", "102527.157500", "102528.647500", "102530.137500", "102531.627500", "102533.117500", "102534.607500", "102536.097500", "102537.587500", "102539.077500", "102540.567500", "102542.057500", "102543.547500", "102545.037500", "102546.527500", "102548.017500", "102549.507500", "102550.997500", "102552.487500", "102553.977500", "102555.467500", "102556.957500", "102558.447500", "102559.937500", "102601.427500", "102602.917500", "102604.407500", "102605.897500", "102607.387500", "102608.877500", "102610.367500", "102611.857500", "102613.347500", "102614.837500", "102616.327500", "102617.817500", "102619.307500", "102620.797500", "102622.287500", "102623.777500", "102625.267500", "102626.757500", "102628.247500", "102629.737500", "102631.227500", "102632.717500", "102634.207500", "102635.697500", "102637.187500", "102638.677500", "102640.167500", "102641.657500", "102643.147500", "102644.637500", "102646.127500", "102647.617500", "102649.107500", "102650.597500", "102652.087500", "102653.577500", "102655.067500", "102656.557500", "102658.047500", "102659.537500", "102701.027500", "102702.517500", "102704.007500", "102705.497500", "102706.987500", "102708.477500", "102709.967500", "102711.457500", "102712.947500", "102714.437500", "102715.927500", "102717.417500", "102718.907500", "102720.397500", "102721.887500", "102723.377500", "102724.867500"],
      "ContentTime": ["102515.645000", "102515.649000", "102515.660000", "102515.663000", "102515.674000", "102515.677000", "102515.680000", "102515.683000", "102515.686000", "102515.689000", "102515.692000", "102515.695000", "102515.698000", "102515.701000", "102515.704000", "102515.707000", "102515.710000", "102515.713000", "102515.716000", "102515.719000", "102515.726000", "102515.729000", "102515.732000", "102515.735000", "102515.738000", "102515.741000", "102515.744000", "102515.747000", "102515.749000", "102535.615000", "102535.618000", "102535.621000", "102535.624000", "102535.627000", "102535.630000", "102535.633000", "102535.636000", "102535.639000", "102535.644000", "102535.647000", "102535.650000", "102535.653000", "102535.656000", "102535.659000", "102535.662000", "102535.665000", "102535.668000", "102535.671000", "102535.674000", "102555.615000", "102555.618000", "102555.621000", "102555.624000", "102555.627000", "102555.630000", "102555.633000", "102555.636000", "102555.639000", "102555.642000", "102555.645000", "102555.648000", "102555.651000", "102555.654000", "102555.657000", "102555.660000", "102555.663000", "102555.666000", "102555.669000", "102555.672000", "102555.675000", "102615.615000", "102615.618000", "102615.621000", "102615.624000", "102615.627000", "102615.630000", "102615.633000", "102615.649000", "102615.652000", "102615.655000", "102615.658000", "102615.661000", "102615.664000", "102615.667000", "102615.670000", "102615.673000", "102615.689000", "102615.692000", "102615.695000", "102615.698000", "102655.614000", "102655.617000", "102655.620000", "102655.623000", "102655.626000", "102655.629000", "102655.641000", "102655.644000", "102655.647000", "102655.650000", "102655.653000", "102655.656000", "102655.659000", "102655.662000", "102655.665000", "102655.668000", "102655.671000", "102655.674000", "102655.677000", "102655.680000", "102655.683000", "102655.686000", "102655.688000", "102655.692000", "102655.695000", "102655.698000", "102655.701000", "102655.704000", "102655.707000", "102655.710000", "102655.712000", "102655.716000", "102727.239000", "102727.242000", "102727.245000", "102727.257000", "102727.260000", "102727.263000", "102727.266000", "102727.269000", "102727.272000", "102727.276000", "102727.279000", "102727.282000", "102727.285000", "102727.288000", "102727.291000", "102727.294000", "102727.297000", "102727.300000", "102727.303000", "102727.306000", "102727.309000", "102727.312000"],
      "InstanceCreationTime": ["102515.645000", "102515.649000", "102515.660000", "102515.663000", "102515.674000", "102515.677000", "102515.680000", "102515.683000", "102515.686000", "102515.689000", "102515.692000", "102515.695000", "102515.698000", "102515.701000", "102515.704000", "102515.707000", "102515.710000", "102515.713000", "102515.716000", "102515.719000", "102515.726000", "102515.729000", "102515.732000", "102515.735000", "102515.738000", "102515.741000", "102515.744000", "102515.747000", "102515.749000", "102535.615000", "102535.618000", "102535.621000", "102535.624000", "102535.627000", "102535.630000", "102535.633000", "102535.636000", "102535.639000", "102535.644000", "102535.647000", "102535.650000", "102535.653000", "102535.656000", "102535.659000", "102535.662000", "102535.665000", "102535.668000", "102535.671000", "102535.674000", "102555.615000", "102555.618000", "102555.621000", "102555.624000", "102555.627000", "102555.630000", "102555.633000", "102555.636000", "102555.639000", "102555.642000", "102555.645000", "102555.648000", "102555.651000", "102555.654000", "102555.657000", "102555.660000", "102555.663000", "102555.666000", "102555.669000", "102555.672000", "102555.675000", "102615.615000", "102615.618000", "102615.621000", "102615.624000", "102615.627000", "102615.630000", "102615.633000", "102615.649000", "102615.652000", "102615.655000", "102615.658000", "102615.661000", "102615.664000", "102615.667000", "102615.670000", "102615.673000", "102615.689000", "102615.692000", "102615.695000", "102615.698000", "102655.614000", "102655.617000", "102655.620000", "102655.623000", "102655.626000", "102655.629000", "102655.641000", "102655.644000", "102655.647000", "102655.650000", "102655.653000", "102655.656000", "102655.659000", "102655.662000", "102655.665000", "102655.668000", "102655.671000", "102655.674000", "102655.677000", "102655.680000", "102655.683000", "102655.686000", "102655.688000", "102655.692000", "102655.695000", "102655.698000", "102655.701000", "102655.704000", "102655.707000", "102655.710000", "102655.712000", "102655.716000", "102727.239000", "102727.242000", "102727.245000", "102727.257000", "102727.260000", "102727.263000", "102727.266000", "102727.269000", "102727.272000", "102727.276000", "102727.279000", "102727.282000", "102727.285000", "102727.288000", "102727.291000", "102727.294000", "102727.297000", "102727.300000", "102727.303000", "102727.306000", "102727.309000", "102727.312000"],
      "InstanceNumber": [1, 2, 3, 4, 5, 6, 7, 8, 9, 10, 11, 12, 13, 14, 15, 16, 17, 18, 19, 20, 21, 22, 23, 24, 25, 26, 27, 28, 29, 30, 31, 32, 33, 34, 35, 36, 37, 38, 39, 40, 41, 42, 43, 44, 45, 46, 47, 48, 49, 50, 51, 52, 53, 54, 55, 56, 57, 58, 59, 60, 61, 62, 63, 64, 65, 66, 67, 68, 69, 70, 71, 72, 73, 74, 75, 76, 77, 78, 79, 80, 81, 82, 83, 84, 85, 86, 87, 88, 89, 90, 91, 92, 93, 94, 95, 96, 97, 98, 99, 100, 101, 102, 103, 104, 105, 106, 107, 108, 109, 110, 111, 112, 113, 114, 115, 116, 117, 118, 119, 120, 121, 122, 123, 124, 125, 126, 127, 128, 129, 130, 131, 132, 133, 134, 135, 136, 137, 138, 139, 140, 141, 142, 143, 144],
      "LargestImagePixelValue": [42480, 41264, 40579, 40218, 39905, 39788, 39869, 39495, 39779, 39730, 39910, 40129, 39983, 39555, 39437, 39896, 39674, 39205, 39716, 39989, 39971, 40303, 40116, 39640, 39818, 39864, 39861, 39949, 39768, 39839, 39929, 39552, 39721, 40188, 40132, 40027, 40113, 40020, 40033, 39746, 39802, 39795, 39630, 36863, 41292, 40834, 39731, 39986, 39671, 39488, 39483, 40110, 39907, 39666, 39809, 39708, 40085, 39811, 39780, 39707, 39669, 39349, 39709, 39473, 39982, 39529, 39785, 39580, 39492, 39501, 39594, 39765, 40147, 40244, 37875, 40418, 39586, 39167, 39407, 38065, 38973, 39449, 39295, 38830, 38859, 39216, 39303, 40136, 39549, 39500, 39105, 39515, 39632, 39708, 39617, 39827, 39375, 39474, 39943, 40262, 39632, 38842, 39848, 39646, 40145, 39321, 39601, 39572, 39596, 39434, 39396, 39253, 39256, 39169, 38987, 39359, 39380, 39300, 38077, 39235, 39126, 39402, 39830, 39548, 39996, 39663, 39635, 39665, 39756, 39776, 39707, 39234, 39917, 39501, 39787, 39567, 39627, 39884, 39501, 39765, 39678, 39806, 39807, 39836],
      "WindowCenter": [9900.0, 9865.0, 9845.0, 9835.0, 9834.0, 9836.0, 9840.0, 9830.0, 9834.0, 9827.0, 9822.0, 9816.0, 9816.0, 9824.0, 9834.0, 9843.0, 9829.0, 9820.0, 9810.0, 9804.0, 9804.0, 9820.0, 9833.0, 9836.0, 9827.0, 9823.0, 9816.0, 9818.0, 9817.0, 9811.0, 9806.0, 9810.0, 9819.0, 9823.0, 9811.0, 9818.0, 9835.0, 9845.0, 9837.0, 9832.0, 9839.0, 9834.0, 9832.0, 9788.0, 9858.0, 9851.0, 9839.0, 9835.0, 9819.0, 9811.0, 9810.0, 9826.0, 9825.0, 9812.0, 9802.0, 9800.0, 9806.0, 9816.0, 9825.0, 9828.0, 9829.0, 9812.0, 9800.0, 9791.0, 9806.0, 9824.0, 9837.0, 9828.0, 9805.0, 9787.0, 9781.0, 9781.0, 9805.0, 9825.0, 9811.0, 9843.0, 9830.0, 9813.0, 9801.0, 9818.0, 9839.0, 9842.0, 9841.0, 9829.0, 9834.0, 9838.0, 9841.0, 9840.0, 9839.0, 9832.0, 9824.0, 9838.0, 9848.0, 9842.0, 9823.0, 9811.0, 9803.0, 9812.0, 9826.0, 9827.0, 9811.0, 9799.0, 9798.0, 9798.0, 9807.0, 9811.0, 9817.0, 9818.0, 9819.0, 9819.0, 9831.0, 9839.0, 9834.0, 9810.0, 9799.0, 9787.0, 9795.0, 9804.0, 9805.0, 9815.0, 9808.0, 9805.0, 9795.0, 9795.0, 9809.0, 9805.0, 9811.0, 9803.0, 9795.0, 9796.0, 9802.0, 9797.0, 9804.0, 9796.0, 9803.0, 9803.0, 9819.0, 9820.0, 9806.0, 9802.0, 9801.0, 9811.0, 9819.0, 9829.0],
      "WindowWidth": [20988.0, 20894.0, 20840.0, 20813.0, 20807.0, 20812.0, 20816.0, 20801.0, 20802.0, 20785.0, 20772.0, 20762.0, 20762.0, 20781.0, 20804.0, 20824.0, 20795.0, 20773.0, 20748.0, 20731.0, 20731.0, 20766.0, 20799.0, 20808.0, 20787.0, 20775.0, 20760.0, 20767.0, 20762.0, 20752.0, 20736.0, 20750.0, 20770.0, 20774.0, 20753.0, 20769.0, 20807.0, 20830.0, 20812.0, 20801.0, 20815.0, 20808.0, 20805.0, 20707.0, 20853.0, 20840.0, 20816.0, 20804.0, 20770.0, 20753.0, 20751.0, 20786.0, 20781.0, 20757.0, 20731.0, 20728.0, 20738.0, 20763.0, 20785.0, 20792.0, 20793.0, 20755.0, 20724.0, 20703.0, 20738.0, 20781.0, 20812.0, 20792.0, 20742.0, 20699.0, 20679.0, 20682.0, 20733.0, 20778.0, 20761.0, 20822.0, 20797.0, 20756.0, 20728.0, 20774.0, 20818.0, 20826.0, 20823.0, 20799.0, 20805.0, 20812.0, 20823.0, 20820.0, 20818.0, 20802.0, 20784.0, 20809.0, 20835.0, 20821.0, 20780.0, 20751.0, 20734.0, 20756.0, 20784.0, 20786.0, 20751.0, 20726.0, 20717.0, 20720.0, 20740.0, 20755.0, 20766.0, 20767.0, 20773.0, 20774.0, 20802.0, 20819.0, 20808.0, 20758.0, 20731.0, 20703.0, 20718.0, 20741.0, 20752.0, 20763.0, 20749.0, 20740.0, 20715.0, 20716.0, 20742.0, 20739.0, 20749.0, 20734.0, 20715.0, 20719.0, 20729.0, 20722.0, 20737.0, 20720.0, 20734.0, 20735.0, 20768.0, 20771.0, 20744.0, 20730.0, 20726.0, 20747.0, 20764.0, 20789.0]
    },
    "slices": {}
  }
}