{
  "AcquisitionMatrixPE": 104,
  "AcquisitionNumber": 1,
  "AcquisitionTime": "11:04:56.685000",
  "BandwidthPerPixelPhaseEncode": 17.17,
  "BaseResolution": 104,
  "BodyPartExamined": "BRAIN",
  "CoilString": "HC1-7;NC1_2",
  "ConsistencyInfo": "N4_VE11C_LATEST_20160120",
  "ConversionSoftware": "dcm2niix",
  "ConversionSoftwareVersion": "v1.0.20190720  (JP2:OpenJPEG) GCC7.3.0",
  "DerivedVendorReportedEchoSpacing": 0.000560011,
  "DeviceSerialNumber": "167006",
  "DwellTime": 2.1e-06,
  "EchoTime": 0.037,
  "EchoTrainLength": 104,
  "EffectiveEchoSpacing": 0.000560011,
  "FlipAngle": 52,
  "ImageComments": "Unaliased_MB4_PE3_LB",
  "ImageOrientationPatientDICOM": [0.999793, -0.0195809, 0.00558236, 0.0202444, 0.926662, -0.375349],
  "ImageType": [
    "ORIGINAL",
    "PRIMARY",
    "M",
    "MB",
    "ND",
    "MOSAIC"
],
  "ImagingFrequency": 123.259,
  "InPlanePhaseEncodingDirectionDICOM": "COL",
  "InstitutionAddress": "Chemin_Queen-Mary_4565_Montreal_District_CA_H3W_1W5",
  "InstitutionName": "IUGM",
  "InstitutionalDepartmentName": "Department",
  "MRAcquisitionType": "2D",
  "MagneticFieldStrength": 3,
  "Manufacturer": "Siemens",
  "ManufacturersModelName": "Prisma_fit",
  "Modality": "MR",
  "MultibandAccelerationFactor": 4,
  "PartialFourier": 1,
  "PatientPosition": "HFS",
  "PercentPhaseFOV": 100,
  "PhaseEncodingDirection": "j",
  "PhaseEncodingSteps": 104,
  "PhaseResolution": 1,
  "PixelBandwidth": 2290,
  "ProcedureStepDescription": "hcptrt_generic",
  "ProtocolName": "func_task-motor_run-2",
  "PulseSequenceDetails": "%CustomerSeq%_cmrr_mbep2d_bold",
  "ReceiveCoilActiveElements": "HC1-7;NC1,2",
  "ReceiveCoilName": "HeadNeck_64",
  "ReconMatrixPE": 104,
  "RepetitionTime": 1.49,
  "SAR": 0.0285596,
  "ScanOptions": "FS",
  "ScanningSequence": "EP",
  "SequenceName": "epfid2d1_104",
  "SequenceVariant": "SK_SS",
  "SeriesDescription": "func_task-motor_run-2",
  "SeriesNumber": 31,
  "ShimSetting": [628, -7137, -8814, 633, 33, 202, 23, -7],
  "SliceThickness": 2,
  "SliceTiming": [0, 0.785, 0.0975, 0.8825, 0.195, 0.98, 0.295, 1.0775, 0.3925, 1.175, 0.49, 1.275, 0.5875, 1.3725, 0.685, 0, 0.785, 0.0975, 0.8825, 0.195, 0.98, 0.295, 1.0775, 0.3925, 1.175, 0.49, 1.275, 0.5875, 1.3725, 0.685, 0, 0.785, 0.0975, 0.8825, 0.195, 0.98, 0.295, 1.0775, 0.3925, 1.175, 0.49, 1.275, 0.5875, 1.3725, 0.685, 0, 0.785, 0.0975, 0.8825, 0.195, 0.98, 0.295, 1.0775, 0.3925, 1.175, 0.49, 1.275, 0.5875, 1.3725, 0.685],
  "SoftwareVersions": "syngo_MR_E11",
  "SpacingBetweenSlices": 2,
  "StationName": "MRC35049",
  "TaskName": "motor",
  "TotalReadoutTime": 0.0576811,
  "TxRefAmp": 207.532,
  "WipMemBlock": "9651137f-d1f6-4635-b0f3-5e4426a05d01||Sequence: R016 ve11c/master r/e634e98; Dec 19 2017 11:00:25 by eja",
  "dcmmeta_affine": [
    [-1.9995853900909424, 0.04048873111605644, -0.004353407770395279, 106.86528778076172],
    [0.03916170075535774, 1.85332453250885, -0.7507694363594055, -67.37720489501953],
    [0.0111647117882967, 0.750698983669281, 1.8537331819534302, -69.34465789794922],
    [0.0, 0.0, 0.0, 1.0]
],
  "dcmmeta_reorient_transform": [
    [0.0, -1.0, 0.0, 103.0],
    [1.0, 0.0, 0.0, 0.0],
    [0.0, 0.0, 1.0, 0.0],
    [0.0, 0.0, 0.0, 1.0]
],
  "dcmmeta_shape": [104, 104, 60, 144],
  "dcmmeta_slice_dim": 2,
  "dcmmeta_version": 0.6,
  "global": {
    "const": {
      "AcquisitionMatrix": [104, 0, 0, 104],
      "AngioFlag": "N",
      "BitsAllocated": 16,
      "BitsStored": 16,
      "BodyPartExamined": "BRAIN",
      "Columns": 832,
      "EchoNumbers": 1,
      "EchoTime": 37.0,
      "EchoTrainLength": 104,
      "FlipAngle": 52.0,
      "HighBit": 15,
      "ImageOrientationPatient": [0.99979269231102, -0.0195808503952, 0.00558235606925, 0.02024436618159, 0.92666224620493, -0.3753494999282],
      "ImagePositionPatient": [-853.62260726302, -783.87047421287, 277.16782245223],
      "ImageType": [
        "ORIGINAL",
        "PRIMARY",
        "M",
        "MB",
        "ND",
        "MOSAIC"
],
      "ImagedNucleus": "1H",
      "ImagingFrequency": 123.259454,
      "InPlanePhaseEncodingDirection": "COL",
      "MRAcquisitionType": "2D",
      "MagneticFieldStrength": 3.0,
      "Manufacturer": "SIEMENS",
      "ManufacturerModelName": "Prisma_fit",
      "Modality": "MR",
      "NumberOfAverages": 1.0,
      "NumberOfPhaseEncodingSteps": 104,
      "PercentPhaseFieldOfView": 100.0,
      "PercentSampling": 100.0,
      "PerformedProcedureStepStartTime": "100539.607000",
      "PhotometricInterpretation": "MONOCHROME2",
      "PixelBandwidth": 2290.0,
      "PixelRepresentation": 0,
      "PixelSpacing": [2.0, 2.0],
      "ProtocolName": "func_task-motor_run-2",
      "RepetitionTime": 1490.0,
      "Rows": 832,
      "SAR": 0.02855961285781,
      "SamplesPerPixel": 1,
      "ScanOptions": "FS",
      "ScanningSequence": "EP",
      "SequenceName": "epfid2d1_104",
      "SequenceVariant": [
        "SK",
        "SS"
],
      "SeriesDescription": "func_task-motor_run-2",
      "SeriesNumber": 31,
      "SeriesTime": "110623.942000",
      "SliceLocation": -39.213483396003,
      "SliceThickness": 2.0,
      "SmallestImagePixelValue": 0,
      "SoftwareVersions": "syngo MR E11",
      "SpacingBetweenSlices": 2.0000000637502,
      "SpecificCharacterSet": "ISO_IR 100",
      "StudyID": "1",
      "StudyTime": "100539.498000",
      "TransmitCoilName": "Body",
      "VariableFlipAngleFlag": "N",
      "WindowCenterWidthExplanation": "Algo1",
      "dBdt": 0.0},
    "slices": {}
  },
  "time": {
    "samples": {
      "AcquisitionNumber": [1, 2, 3, 4, 5, 6, 7, 8, 9, 10, 11, 12, 13, 14, 15, 16, 17, 18, 19, 20, 21, 22, 23, 24, 25, 26, 27, 28, 29, 30, 31, 32, 33, 34, 35, 36, 37, 38, 39, 40, 41, 42, 43, 44, 45, 46, 47, 48, 49, 50, 51, 52, 53, 54, 55, 56, 57, 58, 59, 60, 61, 62, 63, 64, 65, 66, 67, 68, 69, 70, 71, 72, 73, 74, 75, 76, 77, 78, 79, 80, 81, 82, 83, 84, 85, 86, 87, 88, 89, 90, 91, 92, 93, 94, 95, 96, 97, 98, 99, 100, 101, 102, 103, 104, 105, 106, 107, 108, 109, 110, 111, 112, 113, 114, 115, 116, 117, 118, 119, 120, 121, 122, 123, 124, 125, 126, 127, 128, 129, 130, 131, 132, 133, 134, 135, 136, 137, 138, 139, 140, 141, 142, 143, 144],
      "AcquisitionTime": ["110456.685000", "110458.175000", "110459.665000", "110501.155000", "110502.645000", "110504.135000", "110505.625000", "110507.115000", "110508.605000", "110510.095000", "110511.585000", "110513.075000", "110514.565000", "110516.055000", "110517.545000", "110519.035000", "110520.525000", "110522.015000", "110523.505000", "110524.995000", "110526.485000", "110527.975000", "110529.465000", "110530.955000", "110532.445000", "110533.935000", "110535.425000", "110536.915000", "110538.405000", "110539.895000", "110541.385000", "110542.875000", "110544.365000", "110545.855000", "110547.345000", "110548.835000", "110550.325000", "110551.815000", "110553.305000", "110554.795000", "110556.285000", "110557.775000", "110559.265000", "110600.755000", "110602.245000", "110603.735000", "110605.225000", "110606.715000", "110608.205000", "110609.695000", "110611.185000", "110612.675000", "110614.165000", "110615.655000", "110617.145000", "110618.635000", "110620.125000", "110621.615000", "110623.105000", "110624.595000", "110626.085000", "110627.575000", "110629.065000", "110630.555000", "110632.045000", "110633.535000", "110635.025000", "110636.515000", "110638.005000", "110639.495000", "110640.985000", "110642.475000", "110643.965000", "110645.455000", "110646.945000", "110648.435000", "110649.925000", "110651.415000", "110652.905000", "110654.395000", "110655.885000", "110657.375000", "110658.865000", "110700.355000", "110701.845000", "110703.335000", "110704.825000", "110706.315000", "110707.805000", "110709.295000", "110710.785000", "110712.275000", "110713.765000", "110715.255000", "110716.745000", "110718.235000", "110719.725000", "110721.215000", "110722.705000", "110724.195000", "110725.685000", "110727.175000", "110728.665000", "110730.155000", "110731.645000", "110733.135000", "110734.625000", "110736.115000", "110737.605000", "110739.095000", "110740.585000", "110742.075000", "110743.565000", "110745.055000", "110746.545000", "110748.035000", "110749.525000", "110751.015000", "110752.505000", "110753.995000", "110755.485000", "110756.975000", "110758.465000", "110759.955000", "110801.445000", "110802.935000", "110804.425000", "110805.915000", "110807.405000", "110808.895000", "110810.385000", "110811.875000", "110813.365000", "110814.855000", "110816.345000", "110817.835000", "110819.325000", "110820.815000", "110822.305000", "110823.795000", "110825.285000", "110826.775000", "110828.265000", "110829.755000"],
      "ContentTime": ["110623.944000", "110623.948000", "110623.951000", "110623.954000", "110623.957000", "110623.960000", "110623.963000", "110623.970000", "110623.973000", "110623.976000", "110623.979000", "110623.982000", "110623.985000", "110623.988000", "110623.991000", "110623.994000", "110623.997000", "110624.001000", "110624.004000", "110624.007000", "110624.010000", "110624.019000", "110624.022000", "110624.025000", "110624.028000", "110624.032000", "110624.035000", "110624.037000", "110624.040000", "110643.910000", "110643.913000", "110643.916000", "110643.919000", "110643.922000", "110643.925000", "110643.928000", "110643.932000", "110643.935000", "110643.938000", "110643.941000", "110643.944000", "110643.947000", "110643.950000", "110643.953000", "110643.956000", "110643.959000", "110643.962000", "110643.965000", "110643.968000", "110703.910000", "110703.913000", "110703.916000", "110703.919000", "110703.924000", "110703.927000", "110703.930000", "110703.933000", "110703.936000", "110703.939000", "110703.942000", "110703.945000", "110703.948000", "110703.951000", "110703.954000", "110703.957000", "110703.960000", "110703.963000", "110703.966000", "110703.969000", "110723.910000", "110723.913000", "110723.916000", "110723.919000", "110723.922000", "110723.925000", "110723.928000", "110723.938000", "110723.941000", "110723.944000", "110723.947000", "110723.950000", "110723.953000", "110723.956000", "110723.959000", "110723.962000", "110723.965000", "110723.968000", "110723.971000", "110723.974000", "110743.910000", "110743.920000", "110743.923000", "110743.926000", "110743.929000", "110743.932000", "110743.935000", "110743.938000", "110743.941000", "110743.944000", "110743.947000", "110743.950000", "110743.953000", "110743.956000", "110743.959000", "110743.962000", "110743.965000", "110743.968000", "110743.971000", "110743.974000", "110743.977000", "110823.910000", "110823.913000", "110823.916000", "110823.919000", "110823.922000", "110823.925000", "110823.928000", "110823.931000", "110823.934000", "110823.937000", "110823.940000", "110823.943000", "110823.946000", "110823.949000", "110823.952000", "110823.955000", "110823.958000", "110823.961000", "110823.964000", "110823.967000", "110823.970000", "110823.973000", "110823.976000", "110823.979000", "110823.982000", "110823.985000", "110823.988000", "110823.991000", "110832.197000", "110832.200000", "110832.204000", "110832.207000", "110832.210000", "110832.213000"],
      "InstanceCreationTime": ["110623.944000", "110623.948000", "110623.951000", "110623.954000", "110623.957000", "110623.960000", "110623.963000", "110623.970000", "110623.973000", "110623.976000", "110623.979000", "110623.982000", "110623.985000", "110623.988000", "110623.991000", "110623.994000", "110623.997000", "110624.001000", "110624.004000", "110624.007000", "110624.010000", "110624.019000", "110624.022000", "110624.025000", "110624.028000", "110624.032000", "110624.035000", "110624.037000", "110624.040000", "110643.910000", "110643.913000", "110643.916000", "110643.919000", "110643.922000", "110643.925000", "110643.928000", "110643.932000", "110643.935000", "110643.938000", "110643.941000", "110643.944000", "110643.947000", "110643.950000", "110643.953000", "110643.956000", "110643.959000", "110643.962000", "110643.965000", "110643.968000", "110703.910000", "110703.913000", "110703.916000", "110703.919000", "110703.924000", "110703.927000", "110703.930000", "110703.933000", "110703.936000", "110703.939000", "110703.942000", "110703.945000", "110703.948000", "110703.951000", "110703.954000", "110703.957000", "110703.960000", "110703.963000", "110703.966000", "110703.969000", "110723.910000", "110723.913000", "110723.916000", "110723.919000", "110723.922000", "110723.925000", "110723.928000", "110723.938000", "110723.941000", "110723.944000", "110723.947000", "110723.950000", "110723.953000", "110723.956000", "110723.959000", "110723.962000", "110723.965000", "110723.968000", "110723.971000", "110723.974000", "110743.910000", "110743.920000", "110743.923000", "110743.926000", "110743.929000", "110743.932000", "110743.935000", "110743.938000", "110743.941000", "110743.944000", "110743.947000", "110743.950000", "110743.953000", "110743.956000", "110743.959000", "110743.962000", "110743.965000", "110743.968000", "110743.971000", "110743.974000", "110743.977000", "110823.910000", "110823.913000", "110823.916000", "110823.919000", "110823.922000", "110823.925000", "110823.928000", "110823.931000", "110823.934000", "110823.937000", "110823.940000", "110823.943000", "110823.946000", "110823.949000", "110823.952000", "110823.955000", "110823.958000", "110823.961000", "110823.964000", "110823.967000", "110823.970000", "110823.973000", "110823.976000", "110823.979000", "110823.982000", "110823.985000", "110823.988000", "110823.991000", "110832.197000", "110832.200000", "110832.204000", "110832.207000", "110832.210000", "110832.213000"],
      "InstanceNumber": [1, 2, 3, 4, 5, 6, 7, 8, 9, 10, 11, 12, 13, 14, 15, 16, 17, 18, 19, 20, 21, 22, 23, 24, 25, 26, 27, 28, 29, 30, 31, 32, 33, 34, 35, 36, 37, 38, 39, 40, 41, 42, 43, 44, 45, 46, 47, 48, 49, 50, 51, 52, 53, 54, 55, 56, 57, 58, 59, 60, 61, 62, 63, 64, 65, 66, 67, 68, 69, 70, 71, 72, 73, 74, 75, 76, 77, 78, 79, 80, 81, 82, 83, 84, 85, 86, 87, 88, 89, 90, 91, 92, 93, 94, 95, 96, 97, 98, 99, 100, 101, 102, 103, 104, 105, 106, 107, 108, 109, 110, 111, 112, 113, 114, 115, 116, 117, 118, 119, 120, 121, 122, 123, 124, 125, 126, 127, 128, 129, 130, 131, 132, 133, 134, 135, 136, 137, 138, 139, 140, 141, 142, 143, 144],
      "LargestImagePixelValue": [40688, 39418, 38436, 38551, 38123, 38128, 37906, 37344, 37559, 37526, 37951, 37879, 37562, 37656, 37372, 37422, 37616, 37717, 37714, 37909, 37556, 37188, 37288, 37110, 37358, 37320, 37767, 38133, 37263, 37409, 37106, 37216, 37483, 37354, 37269, 37362, 37494, 37588, 37341, 38008, 38145, 37974, 38437, 38335, 38266, 37800, 37821, 37632, 37426, 37660, 37332, 38899, 38009, 38068, 37989, 37727, 37722, 37730, 37393, 37774, 37465, 37639, 37819, 37796, 37600, 37317, 37473, 37233, 37358, 37635, 37635, 37349, 37240, 37073, 37509, 37412, 37816, 37672, 37743, 37973, 37932, 37863, 37288, 37729, 37554, 37609, 37454, 38140, 38125, 38016, 37367, 37463, 37962, 37400, 37215, 37327, 37637, 37751, 37857, 38026, 37951, 37142, 37766, 37502, 37574, 38119, 38303, 38626, 37874, 37856, 37450, 37759, 37325, 38123, 38126, 38450, 37672, 37482, 37670, 38149, 37972, 37750, 37811, 37889, 38111, 37901, 37779, 38032, 37621, 37915, 37468, 37293, 37763, 38256, 38156, 38161, 37739, 37592, 37050, 37602, 37544, 37202, 37029, 37534],
      "WindowCenter": [9876.0, 9842.0, 9823.0, 9812.0, 9812.0, 9811.0, 9805.0, 9789.0, 9787.0, 9787.0, 9802.0, 9813.0, 9825.0, 9834.0, 9814.0, 9785.0, 9771.0, 9774.0, 9784.0, 9794.0, 9812.0, 9817.0, 9816.0, 9800.0, 9782.0, 9769.0, 9775.0, 9801.0, 9816.0, 9824.0, 9801.0, 9799.0, 9804.0, 9805.0, 9802.0, 9801.0, 9798.0, 9789.0, 9781.0, 9794.0, 9802.0, 9813.0, 9820.0, 9835.0, 9828.0, 9818.0, 9818.0, 9815.0, 9802.0, 9801.0, 9806.0, 9837.0, 9824.0, 9806.0, 9796.0, 9796.0, 9796.0, 9805.0, 9800.0, 9798.0, 9782.0, 9778.0, 9778.0, 9780.0, 9787.0, 9789.0, 9795.0, 9782.0, 9777.0, 9786.0, 9797.0, 9805.0, 9802.0, 9786.0, 9789.0, 9784.0, 9782.0, 9779.0, 9786.0, 9803.0, 9799.0, 9808.0, 9812.0, 9818.0, 9801.0, 9789.0, 9772.0, 9777.0, 9786.0, 9794.0, 9790.0, 9791.0, 9804.0, 9791.0, 9782.0, 9773.0, 9777.0, 9778.0, 9778.0, 9793.0, 9794.0, 9782.0, 9787.0, 9787.0, 9765.0, 9765.0, 9773.0, 9788.0, 9796.0, 9808.0, 9801.0, 9792.0, 9779.0, 9778.0, 9785.0, 9792.0, 9788.0, 9796.0, 9795.0, 9787.0, 9789.0, 9787.0, 9803.0, 9798.0, 9796.0, 9795.0, 9805.0, 9812.0, 9807.0, 9808.0, 9792.0, 9783.0, 9778.0, 9776.0, 9777.0, 9787.0, 9789.0, 9781.0, 9782.0, 9796.0, 9806.0, 9793.0, 9783.0, 9771.0],
      "WindowWidth": [20927.0, 20835.0, 20785.0, 20756.0, 20751.0, 20748.0, 20733.0, 20699.0, 20695.0, 20696.0, 20726.0, 20751.0, 20781.0, 20802.0, 20761.0, 20695.0, 20660.0, 20663.0, 20685.0, 20711.0, 20752.0, 20764.0, 20759.0, 20725.0, 20683.0, 20651.0, 20666.0, 20725.0, 20765.0, 20777.0, 20730.0, 20721.0, 20732.0, 20737.0, 20735.0, 20730.0, 20719.0, 20698.0, 20680.0, 20705.0, 20725.0, 20752.0, 20766.0, 20796.0, 20778.0, 20761.0, 20764.0, 20757.0, 20733.0, 20731.0, 20737.0, 20801.0, 20775.0, 20733.0, 20712.0, 20713.0, 20713.0, 20732.0, 20723.0, 20717.0, 20682.0, 20669.0, 20670.0, 20680.0, 20696.0, 20699.0, 20710.0, 20682.0, 20666.0, 20690.0, 20717.0, 20734.0, 20732.0, 20697.0, 20700.0, 20691.0, 20685.0, 20677.0, 20691.0, 20728.0, 20722.0, 20742.0, 20757.0, 20765.0, 20726.0, 20696.0, 20661.0, 20672.0, 20692.0, 20710.0, 20703.0, 20703.0, 20728.0, 20706.0, 20687.0, 20665.0, 20669.0, 20671.0, 20674.0, 20705.0, 20708.0, 20685.0, 20693.0, 20692.0, 20646.0, 20639.0, 20657.0, 20690.0, 20713.0, 20743.0, 20728.0, 20706.0, 20675.0, 20672.0, 20687.0, 20702.0, 20698.0, 20713.0, 20709.0, 20691.0, 20696.0, 20696.0, 20729.0, 20720.0, 20712.0, 20711.0, 20734.0, 20748.0, 20740.0, 20743.0, 20707.0, 20684.0, 20668.0, 20662.0, 20670.0, 20693.0, 20699.0, 20685.0, 20689.0, 20719.0, 20741.0, 20711.0, 20685.0, 20656.0]
    },
    "slices": {}
  }
}