{
  "AcquisitionMatrixPE": 104,
  "AcquisitionNumber": 1,
  "AcquisitionTime": "10:14:18.452500",
  "BandwidthPerPixelPhaseEncode": 17.17,
  "BaseResolution": 104,
  "BodyPartExamined": "BRAIN",
  "CoilString": "HC1-7;NC1_2",
  "ConsistencyInfo": "N4_VE11C_LATEST_20160120",
  "ConversionSoftware": "dcm2niix",
  "ConversionSoftwareVersion": "v1.0.20190720  (JP2:OpenJPEG) GCC7.3.0",
  "DerivedVendorReportedEchoSpacing": 0.000560011,
  "DeviceSerialNumber": "167006",
  "DwellTime": 2.1e-06,
  "EchoTime": 0.037,
  "EchoTrainLength": 104,
  "EffectiveEchoSpacing": 0.000560011,
  "FlipAngle": 52,
  "ImageComments": "Unaliased_MB4_PE3_LB",
  "ImageOrientationPatientDICOM": [0.999793, -0.0195809, 0.00558236, 0.0202444, 0.926662, -0.375349],
  "ImageType": [
    "ORIGINAL",
    "PRIMARY",
    "M",
    "MB",
    "ND",
    "MOSAIC"
],
  "ImagingFrequency": 123.259,
  "InPlanePhaseEncodingDirectionDICOM": "COL",
  "InstitutionAddress": "Chemin_Queen-Mary_4565_Montreal_District_CA_H3W_1W5",
  "InstitutionName": "IUGM",
  "InstitutionalDepartmentName": "Department",
  "MRAcquisitionType": "2D",
  "MagneticFieldStrength": 3,
  "Manufacturer": "Siemens",
  "ManufacturersModelName": "Prisma_fit",
  "Modality": "MR",
  "MultibandAccelerationFactor": 4,
  "PartialFourier": 1,
  "PatientPosition": "HFS",
  "PercentPhaseFOV": 100,
  "PhaseEncodingDirection": "j",
  "PhaseEncodingSteps": 104,
  "PhaseResolution": 1,
  "PixelBandwidth": 2290,
  "ProcedureStepDescription": "hcptrt_generic",
  "ProtocolName": "func_task-language_run-1",
  "PulseSequenceDetails": "%CustomerSeq%_cmrr_mbep2d_bold",
  "ReceiveCoilActiveElements": "HC1-7;NC1,2",
  "ReceiveCoilName": "HeadNeck_64",
  "ReconMatrixPE": 104,
  "RepetitionTime": 1.49,
  "SAR": 0.0285947,
  "ScanOptions": "FS",
  "ScanningSequence": "EP",
  "SequenceName": "epfid2d1_104",
  "SequenceVariant": "SK_SS",
  "SeriesDescription": "func_task-language_run-1",
  "SeriesNumber": 9,
  "ShimSetting": [628, -7137, -8814, 633, 33, 202, 23, -7],
  "SliceThickness": 2,
  "SliceTiming": [0, 0.785, 0.1, 0.8825, 0.1975, 0.98, 0.295, 1.08, 0.3925, 1.1775, 0.49, 1.275, 0.59, 1.3725, 0.6875, 0, 0.785, 0.1, 0.8825, 0.1975, 0.98, 0.295, 1.08, 0.3925, 1.1775, 0.49, 1.275, 0.59, 1.3725, 0.6875, 0, 0.785, 0.1, 0.8825, 0.1975, 0.98, 0.295, 1.08, 0.3925, 1.1775, 0.49, 1.275, 0.59, 1.3725, 0.6875, 0, 0.785, 0.1, 0.8825, 0.1975, 0.98, 0.295, 1.08, 0.3925, 1.1775, 0.49, 1.275, 0.59, 1.3725, 0.6875],
  "SoftwareVersions": "syngo_MR_E11",
  "SpacingBetweenSlices": 2,
  "StationName": "MRC35049",
  "TaskName": "language",
  "TotalReadoutTime": 0.0576811,
  "TxRefAmp": 207.532,
  "WipMemBlock": "cb7a8323-6a4c-4924-a88b-64e1ef3ca7c2||Sequence: R016 ve11c/master r/e634e98; Dec 19 2017 11:00:25 by eja",
  "dcmmeta_affine": [
    [-1.9995853900909424, 0.04048873111605644, -0.004353407770395279, 106.86528778076172],
    [0.03916170075535774, 1.85332453250885, -0.7507694363594055, -67.37720489501953],
    [0.0111647117882967, 0.750698983669281, 1.8537331819534302, -69.34465789794922],
    [0.0, 0.0, 0.0, 1.0]
],
  "dcmmeta_reorient_transform": [
    [0.0, -1.0, 0.0, 103.0],
    [1.0, 0.0, 0.0, 0.0],
    [0.0, 0.0, 1.0, 0.0],
    [0.0, 0.0, 0.0, 1.0]
],
  "dcmmeta_shape": [104, 104, 60, 159],
  "dcmmeta_slice_dim": 2,
  "dcmmeta_version": 0.6,
  "global": {
    "const": {
      "AcquisitionMatrix": [104, 0, 0, 104],
      "AngioFlag": "N",
      "BitsAllocated": 16,
      "BitsStored": 16,
      "BodyPartExamined": "BRAIN",
      "Columns": 832,
      "EchoNumbers": 1,
      "EchoTime": 37.0,
      "EchoTrainLength": 104,
      "FlipAngle": 52.0,
      "HighBit": 15,
      "ImageOrientationPatient": [0.99979269231102, -0.0195808503952, 0.00558235606925, 0.02024436618159, 0.92666224620493, -0.3753494999282],
      "ImagePositionPatient": [-853.62260726302, -783.87047421287, 277.16782245223],
      "ImageType": [
        "ORIGINAL",
        "PRIMARY",
        "M",
        "MB",
        "ND",
        "MOSAIC"
],
      "ImagedNucleus": "1H",
      "ImagingFrequency": 123.259436,
      "InPlanePhaseEncodingDirection": "COL",
      "MRAcquisitionType": "2D",
      "MagneticFieldStrength": 3.0,
      "Manufacturer": "SIEMENS",
      "ManufacturerModelName": "Prisma_fit",
      "Modality": "MR",
      "NumberOfAverages": 1.0,
      "NumberOfPhaseEncodingSteps": 104,
      "PercentPhaseFieldOfView": 100.0,
      "PercentSampling": 100.0,
      "PerformedProcedureStepStartTime": "100539.607000",
      "PhotometricInterpretation": "MONOCHROME2",
      "PixelBandwidth": 2290.0,
      "PixelRepresentation": 0,
      "PixelSpacing": [2.0, 2.0],
      "ProtocolName": "func_task-language_run-1",
      "RepetitionTime": 1490.0,
      "Rows": 832,
      "SAR": 0.02859471166092,
      "SamplesPerPixel": 1,
      "ScanOptions": "FS",
      "ScanningSequence": "EP",
      "SequenceName": "epfid2d1_104",
      "SequenceVariant": [
        "SK",
        "SS"
],
      "SeriesDescription": "func_task-language_run-1",
      "SeriesNumber": 9,
      "SeriesTime": "101540.420000",
      "SliceLocation": -39.213483396003,
      "SliceThickness": 2.0,
      "SmallestImagePixelValue": 0,
      "SoftwareVersions": "syngo MR E11",
      "SpacingBetweenSlices": 2.0000000637502,
      "SpecificCharacterSet": "ISO_IR 100",
      "StudyID": "1",
      "StudyTime": "100539.498000",
      "TransmitCoilName": "Body",
      "VariableFlipAngleFlag": "N",
      "WindowCenterWidthExplanation": "Algo1",
      "dBdt": 0.0},
    "slices": {}
  },
  "time": {
    "samples": {
      "AcquisitionNumber": [1, 2, 3, 4, 5, 6, 7, 8, 9, 10, 11, 12, 13, 14, 15, 16, 17, 18, 19, 20, 21, 22, 23, 24, 25, 26, 27, 28, 29, 30, 31, 32, 33, 34, 35, 36, 37, 38, 39, 40, 41, 42, 43, 44, 45, 46, 47, 48, 49, 50, 51, 52, 53, 54, 55, 56, 57, 58, 59, 60, 61, 62, 63, 64, 65, 66, 67, 68, 69, 70, 71, 72, 73, 74, 75, 76, 77, 78, 79, 80, 81, 82, 83, 84, 85, 86, 87, 88, 89, 90, 91, 92, 93, 94, 95, 96, 97, 98, 99, 100, 101, 102, 103, 104, 105, 106, 107, 108, 109, 110, 111, 112, 113, 114, 115, 116, 117, 118, 119, 120, 121, 122, 123, 124, 125, 126, 127, 128, 129, 130, 131, 132, 133, 134, 135, 136, 137, 138, 139, 140, 141, 142, 143, 144, 145, 146, 147, 148, 149, 150, 151, 152, 153, 154, 155, 156, 157, 158, 159],
      "AcquisitionTime": ["101418.452500", "101419.942500", "101421.432500", "101422.922500", "101424.412500", "101425.902500", "101427.392500", "101428.882500", "101430.372500", "101431.862500", "101433.352500", "101434.842500", "101436.332500", "101437.822500", "101439.312500", "101440.802500", "101442.292500", "101443.782500", "101445.272500", "101446.762500", "101448.252500", "101449.742500", "101451.232500", "101452.722500", "101454.212500", "101455.702500", "101457.192500", "101458.682500", "101500.172500", "101501.662500", "101503.152500", "101504.642500", "101506.132500", "101507.622500", "101509.112500", "101510.602500", "101512.092500", "101513.582500", "101515.072500", "101516.562500", "101518.052500", "101519.542500", "101521.032500", "101522.522500", "101524.012500", "101525.502500", "101526.992500", "101528.482500", "101529.972500", "101531.462500", "101532.952500", "101534.442500", "101535.932500", "101537.422500", "101538.912500", "101540.402500", "101541.892500", "101543.382500", "101544.872500", "101546.362500", "101547.852500", "101549.342500", "101550.832500", "101552.322500", "101553.812500", "101555.302500", "101556.792500", "101558.282500", "101559.772500", "101601.262500", "101602.752500", "101604.242500", "101605.732500", "101607.222500", "101608.712500", "101610.202500", "101611.692500", "101613.182500", "101614.672500", "101616.162500", "101617.652500", "101619.142500", "101620.632500", "101622.122500", "101623.612500", "101625.102500", "101626.592500", "101628.082500", "101629.572500", "101631.062500", "101632.552500", "101634.042500", "101635.532500", "101637.022500", "101638.512500", "101640.002500", "101641.492500", "101642.982500", "101644.472500", "101645.962500", "101647.452500", "101648.942500", "101650.432500", "101651.922500", "101653.412500", "101654.902500", "101656.392500", "101657.882500", "101659.372500", "101700.862500", "101702.352500", "101703.842500", "101705.332500", "101706.822500", "101708.312500", "101709.802500", "101711.292500", "101712.782500", "101714.272500", "101715.762500", "101717.252500", "101718.742500", "101720.232500", "101721.722500", "101723.212500", "101724.702500", "101726.192500", "101727.682500", "101729.172500", "101730.662500", "101732.152500", "101733.642500", "101735.132500", "101736.622500", "101738.112500", "101739.602500", "101741.092500", "101742.582500", "101744.072500", "101745.562500", "101747.052500", "101748.542500", "101750.032500", "101751.522500", "101753.012500", "101754.502500", "101755.992500", "101757.482500", "101758.972500", "101800.462500", "101801.952500", "101803.442500", "101804.932500", "101806.422500", "101807.912500", "101809.402500", "101810.892500", "101812.382500", "101813.872500"],
      "ContentTime": ["101540.422000", "101540.426000", "101540.428000", "101540.436000", "101540.439000", "101540.442000", "101540.445000", "101540.448000", "101540.451000", "101540.454000", "101540.457000", "101540.460000", "101540.463000", "101540.465000", "101540.468000", "101540.471000", "101540.474000", "101540.477000", "101540.480000", "101540.483000", "101540.486000", "101540.489000", "101540.496000", "101540.499000", "101540.502000", "101540.505000", "101540.508000", "101540.511000", "101600.378000", "101600.381000", "101600.384000", "101600.387000", "101600.390000", "101600.393000", "101600.396000", "101600.399000", "101600.401000", "101600.404000", "101600.407000", "101600.410000", "101600.413000", "101600.416000", "101600.419000", "101600.422000", "101600.425000", "101600.428000", "101600.431000", "101600.433000", "101620.378000", "101620.381000", "101620.384000", "101620.387000", "101620.390000", "101620.393000", "101620.396000", "101620.399000", "101620.401000", "101620.404000", "101620.407000", "101620.410000", "101620.413000", "101620.416000", "101620.419000", "101620.422000", "101620.425000", "101620.428000", "101620.431000", "101620.434000", "101640.378000", "101640.381000", "101640.384000", "101640.387000", "101640.390000", "101640.393000", "101640.396000", "101640.399000", "101640.402000", "101640.405000", "101640.408000", "101640.411000", "101640.414000", "101640.425000", "101640.428000", "101640.431000", "101640.433000", "101640.436000", "101640.440000", "101640.442000", "101700.378000", "101700.381000", "101700.384000", "101700.387000", "101700.390000", "101700.393000", "101700.395000", "101700.398000", "101700.401000", "101700.404000", "101700.407000", "101700.410000", "101700.413000", "101700.416000", "101700.419000", "101700.422000", "101700.434000", "101700.436000", "101700.440000", "101700.442000", "101740.377000", "101740.380000", "101740.383000", "101740.386000", "101740.389000", "101740.392000", "101740.395000", "101740.398000", "101740.401000", "101740.404000", "101740.406000", "101740.416000", "101740.419000", "101740.422000", "101740.426000", "101740.429000", "101740.432000", "101740.435000", "101740.438000", "101740.441000", "101740.444000", "101740.447000", "101740.450000", "101740.453000", "101740.456000", "101740.459000", "101816.376000", "101816.379000", "101816.382000", "101816.385000", "101816.388000", "101816.391000", "101816.395000", "101816.398000", "101816.400000", "101816.403000", "101816.406000", "101816.409000", "101816.412000", "101816.415000", "101816.418000", "101816.421000", "101816.424000", "101816.427000", "101816.430000", "101816.433000", "101816.436000", "101816.439000", "101816.442000", "101816.445000", "101816.447000"],
      "InstanceCreationTime": ["101540.422000", "101540.426000", "101540.428000", "101540.436000", "101540.439000", "101540.442000", "101540.445000", "101540.448000", "101540.451000", "101540.454000", "101540.457000", "101540.460000", "101540.463000", "101540.465000", "101540.468000", "101540.471000", "101540.474000", "101540.477000", "101540.480000", "101540.483000", "101540.486000", "101540.489000", "101540.496000", "101540.499000", "101540.502000", "101540.505000", "101540.508000", "101540.511000", "101600.378000", "101600.381000", "101600.384000", "101600.387000", "101600.390000", "101600.393000", "101600.396000", "101600.399000", "101600.401000", "101600.404000", "101600.407000", "101600.410000", "101600.413000", "101600.416000", "101600.419000", "101600.422000", "101600.425000", "101600.428000", "101600.431000", "101600.433000", "101620.378000", "101620.381000", "101620.384000", "101620.387000", "101620.390000", "101620.393000", "101620.396000", "101620.399000", "101620.401000", "101620.404000", "101620.407000", "101620.410000", "101620.413000", "101620.416000", "101620.419000", "101620.422000", "101620.425000", "101620.428000", "101620.431000", "101620.434000", "101640.378000", "101640.381000", "101640.384000", "101640.387000", "101640.390000", "101640.393000", "101640.396000", "101640.399000", "101640.402000", "101640.405000", "101640.408000", "101640.411000", "101640.414000", "101640.425000", "101640.428000", "101640.431000", "101640.433000", "101640.436000", "101640.440000", "101640.442000", "101700.378000", "101700.381000", "101700.384000", "101700.387000", "101700.390000", "101700.393000", "101700.395000", "101700.398000", "101700.401000", "101700.404000", "101700.407000", "101700.410000", "101700.413000", "101700.416000", "101700.419000", "101700.422000", "101700.434000", "101700.436000", "101700.440000", "101700.442000", "101740.377000", "101740.380000", "101740.383000", "101740.386000", "101740.389000", "101740.392000", "101740.395000", "101740.398000", "101740.401000", "101740.404000", "101740.406000", "101740.416000", "101740.419000", "101740.422000", "101740.426000", "101740.429000", "101740.432000", "101740.435000", "101740.438000", "101740.441000", "101740.444000", "101740.447000", "101740.450000", "101740.453000", "101740.456000", "101740.459000", "101816.376000", "101816.379000", "101816.382000", "101816.385000", "101816.388000", "101816.391000", "101816.395000", "101816.398000", "101816.400000", "101816.403000", "101816.406000", "101816.409000", "101816.412000", "101816.415000", "101816.418000", "101816.421000", "101816.424000", "101816.427000", "101816.430000", "101816.433000", "101816.436000", "101816.439000", "101816.442000", "101816.445000", "101816.447000"],
      "InstanceNumber": [1, 2, 3, 4, 5, 6, 7, 8, 9, 10, 11, 12, 13, 14, 15, 16, 17, 18, 19, 20, 21, 22, 23, 24, 25, 26, 27, 28, 29, 30, 31, 32, 33, 34, 35, 36, 37, 38, 39, 40, 41, 42, 43, 44, 45, 46, 47, 48, 49, 50, 51, 52, 53, 54, 55, 56, 57, 58, 59, 60, 61, 62, 63, 64, 65, 66, 67, 68, 69, 70, 71, 72, 73, 74, 75, 76, 77, 78, 79, 80, 81, 82, 83, 84, 85, 86, 87, 88, 89, 90, 91, 92, 93, 94, 95, 96, 97, 98, 99, 100, 101, 102, 103, 104, 105, 106, 107, 108, 109, 110, 111, 112, 113, 114, 115, 116, 117, 118, 119, 120, 121, 122, 123, 124, 125, 126, 127, 128, 129, 130, 131, 132, 133, 134, 135, 136, 137, 138, 139, 140, 141, 142, 143, 144, 145, 146, 147, 148, 149, 150, 151, 152, 153, 154, 155, 156, 157, 158, 159],
      "LargestImagePixelValue": [43681, 42150, 41545, 41262, 40989, 40982, 40422, 40831, 40665, 40948, 40766, 40898, 40602, 40744, 41016, 41219, 40915, 40805, 40448, 40907, 40338, 40897, 40914, 40583, 40573, 40683, 40592, 41072, 41022, 41194, 41169, 40880, 40989, 40942, 40919, 40614, 40412, 40999, 40452, 40312, 40279, 40333, 40874, 41112, 41086, 40783, 40252, 40236, 40450, 40625, 40701, 40690, 40704, 40883, 40953, 40820, 40772, 40642, 41122, 40773, 41346, 40921, 40541, 40303, 40939, 40689, 39824, 40020, 39812, 40651, 40583, 40458, 40932, 40501, 40509, 40977, 40460, 40477, 40734, 40849, 40962, 41130, 41066, 41164, 40670, 40327, 40835, 40708, 40971, 40835, 40415, 40731, 40391, 40320, 40622, 40429, 40884, 40812, 40605, 40468, 40207, 40012, 40199, 40538, 40879, 40866, 39933, 40048, 40640, 40786, 40477, 40877, 40487, 40470, 40420, 40536, 40205, 40199, 39963, 39986, 40908, 40176, 40135, 39943, 39323, 39667, 40280, 40505, 40670, 40606, 40117, 39924, 39616, 39714, 39861, 40488, 40603, 40194, 40289, 40364, 40482, 40705, 39929, 40302, 40722, 40671, 41102, 40662, 40954, 39990, 40324, 40181, 40120, 40465, 40190, 40390, 39864, 39822, 39825],
      "WindowCenter": [9961.0, 9928.0, 9910.0, 9908.0, 9916.0, 9916.0, 9902.0, 9892.0, 9884.0, 9899.0, 9909.0, 9900.0, 9883.0, 9871.0, 9871.0, 9885.0, 9888.0, 9881.0, 9875.0, 9880.0, 9866.0, 9879.0, 9888.0, 9887.0, 9874.0, 9864.0, 9863.0, 9876.0, 9893.0, 9895.0, 9888.0, 9881.0, 9895.0, 9888.0, 9881.0, 9872.0, 9874.0, 9902.0, 9910.0, 9903.0, 9877.0, 9856.0, 9866.0, 9878.0, 9887.0, 9890.0, 9883.0, 9873.0, 9858.0, 9855.0, 9871.0, 9875.0, 9883.0, 9891.0, 9883.0, 9883.0, 9883.0, 9882.0, 9896.0, 9900.0, 9891.0, 9881.0, 9873.0, 9875.0, 9897.0, 9911.0, 9898.0, 9880.0, 9861.0, 9857.0, 9863.0, 9872.0, 9890.0, 9893.0, 9886.0, 9875.0, 9867.0, 9866.0, 9856.0, 9854.0, 9854.0, 9869.0, 9887.0, 9898.0, 9885.0, 9876.0, 9872.0, 9863.0, 9862.0, 9864.0, 9867.0, 9890.0, 9900.0, 9893.0, 9883.0, 9865.0, 9862.0, 9871.0, 9882.0, 9879.0, 9867.0, 9851.0, 9864.0, 9887.0, 9891.0, 9875.0, 9844.0, 9834.0, 9855.0, 9870.0, 9877.0, 9891.0, 9887.0, 9893.0, 9903.0, 9902.0, 9889.0, 9868.0, 9853.0, 9859.0, 9895.0, 9912.0, 9908.0, 9906.0, 9869.0, 9854.0, 9834.0, 9846.0, 9865.0, 9893.0, 9897.0, 9890.0, 9872.0, 9855.0, 9858.0, 9874.0, 9885.0, 9875.0, 9851.0, 9857.0, 9873.0, 9858.0, 9834.0, 9813.0, 9810.0, 9834.0, 9861.0, 9874.0, 9881.0, 9876.0, 9867.0, 9849.0, 9833.0, 9845.0, 9856.0, 9868.0, 9875.0, 9873.0, 9857.0],
      "WindowWidth": [21126.0, 21038.0, 20987.0, 20976.0, 20990.0, 20987.0, 20961.0, 20933.0, 20916.0, 20948.0, 20974.0, 20955.0, 20914.0, 20886.0, 20887.0, 20914.0, 20924.0, 20912.0, 20899.0, 20907.0, 20880.0, 20906.0, 20924.0, 20922.0, 20896.0, 20872.0, 20869.0, 20896.0, 20937.0, 20944.0, 20929.0, 20911.0, 20937.0, 20924.0, 20910.0, 20891.0, 20897.0, 20956.0, 20977.0, 20960.0, 20902.0, 20851.0, 20871.0, 20901.0, 20925.0, 20932.0, 20914.0, 20891.0, 20856.0, 20849.0, 20884.0, 20899.0, 20917.0, 20932.0, 20916.0, 20915.0, 20914.0, 20915.0, 20942.0, 20951.0, 20929.0, 20907.0, 20890.0, 20898.0, 20944.0, 20978.0, 20951.0, 20906.0, 20865.0, 20853.0, 20866.0, 20890.0, 20931.0, 20940.0, 20922.0, 20894.0, 20877.0, 20876.0, 20855.0, 20847.0, 20846.0, 20880.0, 20919.0, 20946.0, 20921.0, 20899.0, 20885.0, 20867.0, 20865.0, 20872.0, 20882.0, 20932.0, 20951.0, 20935.0, 20909.0, 20869.0, 20861.0, 20886.0, 20911.0, 20911.0, 20879.0, 20843.0, 20865.0, 20917.0, 20929.0, 20896.0, 20829.0, 20807.0, 20849.0, 20881.0, 20904.0, 20929.0, 20921.0, 20933.0, 20957.0, 20956.0, 20928.0, 20879.0, 20846.0, 20858.0, 20937.0, 20979.0, 20974.0, 20969.0, 20886.0, 20845.0, 20803.0, 20830.0, 20874.0, 20935.0, 20945.0, 20930.0, 20889.0, 20849.0, 20854.0, 20891.0, 20916.0, 20893.0, 20841.0, 20849.0, 20886.0, 20856.0, 20801.0, 20754.0, 20744.0, 20798.0, 20860.0, 20892.0, 20904.0, 20897.0, 20873.0, 20834.0, 20802.0, 20828.0, 20853.0, 20886.0, 20898.0, 20892.0, 20853.0]
    },
    "slices": {}
  }
}