{
  "AcquisitionMatrixPE": 104,
  "AcquisitionNumber": 1,
  "AcquisitionTime": "10:51:31.327500",
  "BandwidthPerPixelPhaseEncode": 17.17,
  "BaseResolution": 104,
  "BodyPartExamined": "BRAIN",
  "CoilString": "HC1-7;NC1_2",
  "ConsistencyInfo": "N4_VE11C_LATEST_20160120",
  "ConversionSoftware": "dcm2niix",
  "ConversionSoftwareVersion": "v1.0.20190720  (JP2:OpenJPEG) GCC7.3.0",
  "DerivedVendorReportedEchoSpacing": 0.000560011,
  "DeviceSerialNumber": "167006",
  "DwellTime": 2.1e-06,
  "EchoTime": 0.037,
  "EchoTrainLength": 104,
  "EffectiveEchoSpacing": 0.000560011,
  "FlipAngle": 52,
  "ImageComments": "Unaliased_MB4_PE3_LB",
  "ImageOrientationPatientDICOM": [0.999793, -0.0195809, 0.00558236, 0.0202444, 0.926662, -0.375349],
  "ImageType": [
    "ORIGINAL",
    "PRIMARY",
    "M",
    "MB",
    "ND",
    "MOSAIC"
],
  "ImagingFrequency": 123.259,
  "InPlanePhaseEncodingDirectionDICOM": "COL",
  "InstitutionAddress": "Chemin_Queen-Mary_4565_Montreal_District_CA_H3W_1W5",
  "InstitutionName": "IUGM",
  "InstitutionalDepartmentName": "Department",
  "MRAcquisitionType": "2D",
  "MagneticFieldStrength": 3,
  "Manufacturer": "Siemens",
  "ManufacturersModelName": "Prisma_fit",
  "Modality": "MR",
  "MultibandAccelerationFactor": 4,
  "PartialFourier": 1,
  "PatientPosition": "HFS",
  "PercentPhaseFOV": 100,
  "PhaseEncodingDirection": "j",
  "PhaseEncodingSteps": 104,
  "PhaseResolution": 1,
  "PixelBandwidth": 2290,
  "ProcedureStepDescription": "hcptrt_generic",
  "ProtocolName": "func_task-gambling_run-2",
  "PulseSequenceDetails": "%CustomerSeq%_cmrr_mbep2d_bold",
  "ReceiveCoilActiveElements": "HC1-7;NC1,2",
  "ReceiveCoilName": "HeadNeck_64",
  "ReconMatrixPE": 104,
  "RepetitionTime": 1.49,
  "SAR": 0.0285168,
  "ScanOptions": "FS",
  "ScanningSequence": "EP",
  "SequenceName": "epfid2d1_104",
  "SequenceVariant": "SK_SS",
  "SeriesDescription": "func_task-gambling_run-2",
  "SeriesNumber": 25,
  "ShimSetting": [628, -7137, -8814, 633, 33, 202, 23, -7],
  "SliceThickness": 2,
  "SliceTiming": [0, 0.7825, 0.0975, 0.8825, 0.195, 0.98, 0.2925, 1.0775, 0.3925, 1.175, 0.49, 1.2725, 0.5875, 1.3725, 0.685, 0, 0.7825, 0.0975, 0.8825, 0.195, 0.98, 0.2925, 1.0775, 0.3925, 1.175, 0.49, 1.2725, 0.5875, 1.3725, 0.685, 0, 0.7825, 0.0975, 0.8825, 0.195, 0.98, 0.2925, 1.0775, 0.3925, 1.175, 0.49, 1.2725, 0.5875, 1.3725, 0.685, 0, 0.7825, 0.0975, 0.8825, 0.195, 0.98, 0.2925, 1.0775, 0.3925, 1.175, 0.49, 1.2725, 0.5875, 1.3725, 0.685],
  "SoftwareVersions": "syngo_MR_E11",
  "SpacingBetweenSlices": 2,
  "StationName": "MRC35049",
  "TaskName": "gambling",
  "TotalReadoutTime": 0.0576811,
  "TxRefAmp": 207.532,
  "WipMemBlock": "f9be0c42-1699-4e5f-9ced-70fd451b4b7a||Sequence: R016 ve11c/master r/e634e98; Dec 19 2017 11:00:25 by eja",
  "dcmmeta_affine": [
    [-1.9995853900909424, 0.04048873111605644, -0.004353407770395279, 106.86528778076172],
    [0.03916170075535774, 1.85332453250885, -0.7507694363594055, -67.37720489501953],
    [0.0111647117882967, 0.750698983669281, 1.8537331819534302, -69.34465789794922],
    [0.0, 0.0, 0.0, 1.0]
],
  "dcmmeta_reorient_transform": [
    [0.0, -1.0, 0.0, 103.0],
    [1.0, 0.0, 0.0, 0.0],
    [0.0, 0.0, 1.0, 0.0],
    [0.0, 0.0, 0.0, 1.0]
],
  "dcmmeta_shape": [104, 104, 60, 129],
  "dcmmeta_slice_dim": 2,
  "dcmmeta_version": 0.6,
  "global": {
    "const": {
      "AcquisitionMatrix": [104, 0, 0, 104],
      "AngioFlag": "N",
      "BitsAllocated": 16,
      "BitsStored": 16,
      "BodyPartExamined": "BRAIN",
      "Columns": 832,
      "EchoNumbers": 1,
      "EchoTime": 37.0,
      "EchoTrainLength": 104,
      "FlipAngle": 52.0,
      "HighBit": 15,
      "ImageOrientationPatient": [0.99979269231102, -0.0195808503952, 0.00558235606925, 0.02024436618159, 0.92666224620493, -0.3753494999282],
      "ImagePositionPatient": [-853.62260726302, -783.87047421287, 277.16782245223],
      "ImageType": [
        "ORIGINAL",
        "PRIMARY",
        "M",
        "MB",
        "ND",
        "MOSAIC"
],
      "ImagedNucleus": "1H",
      "ImagingFrequency": 123.259451,
      "InPlanePhaseEncodingDirection": "COL",
      "MRAcquisitionType": "2D",
      "MagneticFieldStrength": 3.0,
      "Manufacturer": "SIEMENS",
      "ManufacturerModelName": "Prisma_fit",
      "Modality": "MR",
      "NumberOfAverages": 1.0,
      "NumberOfPhaseEncodingSteps": 104,
      "PercentPhaseFieldOfView": 100.0,
      "PercentSampling": 100.0,
      "PerformedProcedureStepStartTime": "100539.607000",
      "PhotometricInterpretation": "MONOCHROME2",
      "PixelBandwidth": 2290.0,
      "PixelRepresentation": 0,
      "PixelSpacing": [2.0, 2.0],
      "ProtocolName": "func_task-gambling_run-2",
      "RepetitionTime": 1490.0,
      "Rows": 832,
      "SAR": 0.02851677054813,
      "SamplesPerPixel": 1,
      "ScanOptions": "FS",
      "ScanningSequence": "EP",
      "SequenceName": "epfid2d1_104",
      "SequenceVariant": [
        "SK",
        "SS"
],
      "SeriesDescription": "func_task-gambling_run-2",
      "SeriesNumber": 25,
      "SeriesTime": "105243.935000",
      "SliceLocation": -39.213483396003,
      "SliceThickness": 2.0,
      "SmallestImagePixelValue": 0,
      "SoftwareVersions": "syngo MR E11",
      "SpacingBetweenSlices": 2.0000000637502,
      "SpecificCharacterSet": "ISO_IR 100",
      "StudyID": "1",
      "StudyTime": "100539.498000",
      "TransmitCoilName": "Body",
      "VariableFlipAngleFlag": "N",
      "WindowCenterWidthExplanation": "Algo1",
      "dBdt": 0.0},
    "slices": {}
  },
  "time": {
    "samples": {
      "AcquisitionNumber": [1, 2, 3, 4, 5, 6, 7, 8, 9, 10, 11, 12, 13, 14, 15, 16, 17, 18, 19, 20, 21, 22, 23, 24, 25, 26, 27, 28, 29, 30, 31, 32, 33, 34, 35, 36, 37, 38, 39, 40, 41, 42, 43, 44, 45, 46, 47, 48, 49, 50, 51, 52, 53, 54, 55, 56, 57, 58, 59, 60, 61, 62, 63, 64, 65, 66, 67, 68, 69, 70, 71, 72, 73, 74, 75, 76, 77, 78, 79, 80, 81, 82, 83, 84, 85, 86, 87, 88, 89, 90, 91, 92, 93, 94, 95, 96, 97, 98, 99, 100, 101, 102, 103, 104, 105, 106, 107, 108, 109, 110, 111, 112, 113, 114, 115, 116, 117, 118, 119, 120, 121, 122, 123, 124, 125, 126, 127, 128, 129],
      "AcquisitionTime": ["105131.327500", "105132.817500", "105134.307500", "105135.797500", "105137.287500", "105138.777500", "105140.267500", "105141.757500", "105143.247500", "105144.737500", "105146.227500", "105147.717500", "105149.207500", "105150.697500", "105152.187500", "105153.677500", "105155.167500", "105156.657500", "105158.147500", "105159.637500", "105201.127500", "105202.617500", "105204.107500", "105205.597500", "105207.087500", "105208.577500", "105210.067500", "105211.557500", "105213.047500", "105214.537500", "105216.027500", "105217.517500", "105219.007500", "105220.497500", "105221.987500", "105223.477500", "105224.967500", "105226.457500", "105227.947500", "105229.437500", "105230.927500", "105232.417500", "105233.907500", "105235.397500", "105236.887500", "105238.377500", "105239.867500", "105241.357500", "105242.847500", "105244.337500", "105245.827500", "105247.317500", "105248.807500", "105250.297500", "105251.787500", "105253.277500", "105254.767500", "105256.257500", "105257.747500", "105259.237500", "105300.727500", "105302.217500", "105303.707500", "105305.197500", "105306.687500", "105308.177500", "105309.667500", "105311.157500", "105312.647500", "105314.137500", "105315.627500", "105317.117500", "105318.607500", "105320.097500", "105321.587500", "105323.077500", "105324.567500", "105326.057500", "105327.547500", "105329.037500", "105330.527500", "105332.017500", "105333.507500", "105334.997500", "105336.487500", "105337.977500", "105339.467500", "105340.957500", "105342.447500", "105343.937500", "105345.427500", "105346.917500", "105348.407500", "105349.897500", "105351.387500", "105352.877500", "105354.367500", "105355.857500", "105357.347500", "105358.837500", "105400.327500", "105401.817500", "105403.307500", "105404.797500", "105406.287500", "105407.777500", "105409.267500", "105410.757500", "105412.247500", "105413.737500", "105415.227500", "105416.717500", "105418.207500", "105419.697500", "105421.187500", "105422.677500", "105424.167500", "105425.657500", "105427.147500", "105428.637500", "105430.127500", "105431.617500", "105433.107500", "105434.597500", "105436.087500", "105437.577500", "105439.067500", "105440.557500", "105442.047500"],
      "ContentTime": ["105243.938000", "105243.941000", "105243.944000", "105243.947000", "105243.950000", "105243.953000", "105243.956000", "105243.959000", "105243.962000", "105243.965000", "105243.971000", "105243.974000", "105243.979000", "105243.982000", "105243.985000", "105243.987000", "105243.991000", "105303.910000", "105303.913000", "105303.916000", "105303.919000", "105303.922000", "105303.925000", "105303.928000", "105303.931000", "105303.934000", "105303.937000", "105303.940000", "105303.943000", "105303.946000", "105303.949000", "105303.952000", "105303.955000", "105303.958000", "105303.961000", "105303.964000", "105303.967000", "105323.910000", "105323.913000", "105323.916000", "105323.919000", "105323.922000", "105323.925000", "105323.928000", "105323.931000", "105323.941000", "105323.944000", "105323.947000", "105323.950000", "105323.953000", "105323.956000", "105323.959000", "105323.962000", "105323.965000", "105323.968000", "105323.971000", "105323.974000", "105343.910000", "105343.913000", "105343.916000", "105343.919000", "105343.922000", "105343.925000", "105343.928000", "105343.931000", "105343.934000", "105343.937000", "105343.940000", "105343.943000", "105343.946000", "105343.949000", "105343.952000", "105343.955000", "105343.958000", "105343.961000", "105343.964000", "105343.966000", "105343.970000", "105403.909000", "105403.912000", "105403.915000", "105403.918000", "105403.921000", "105403.924000", "105403.927000", "105403.930000", "105403.933000", "105403.936000", "105403.939000", "105403.945000", "105403.948000", "105403.951000", "105403.954000", "105403.957000", "105403.960000", "105403.963000", "105403.966000", "105403.969000", "105443.910000", "105443.913000", "105443.916000", "105443.919000", "105443.922000", "105443.925000", "105443.928000", "105443.931000", "105443.934000", "105443.937000", "105443.940000", "105443.943000", "105443.946000", "105443.949000", "105443.952000", "105443.955000", "105443.958000", "105443.961000", "105443.964000", "105443.967000", "105443.970000", "105443.973000", "105443.976000", "105443.979000", "105443.982000", "105443.985000", "105443.988000", "105443.991000", "105443.994000", "105443.997000", "105444.639000"],
      "InstanceCreationTime": ["105243.938000", "105243.941000", "105243.944000", "105243.947000", "105243.950000", "105243.953000", "105243.956000", "105243.959000", "105243.962000", "105243.965000", "105243.971000", "105243.974000", "105243.979000", "105243.982000", "105243.985000", "105243.987000", "105243.991000", "105303.910000", "105303.913000", "105303.916000", "105303.919000", "105303.922000", "105303.925000", "105303.928000", "105303.931000", "105303.934000", "105303.937000", "105303.940000", "105303.943000", "105303.946000", "105303.949000", "105303.952000", "105303.955000", "105303.958000", "105303.961000", "105303.964000", "105303.967000", "105323.910000", "105323.913000", "105323.916000", "105323.919000", "105323.922000", "105323.925000", "105323.928000", "105323.931000", "105323.941000", "105323.944000", "105323.947000", "105323.950000", "105323.953000", "105323.956000", "105323.959000", "105323.962000", "105323.965000", "105323.968000", "105323.971000", "105323.974000", "105343.910000", "105343.913000", "105343.916000", "105343.919000", "105343.922000", "105343.925000", "105343.928000", "105343.931000", "105343.934000", "105343.937000", "105343.940000", "105343.943000", "105343.946000", "105343.949000", "105343.952000", "105343.955000", "105343.958000", "105343.961000", "105343.964000", "105343.966000", "105343.970000", "105403.909000", "105403.912000", "105403.915000", "105403.918000", "105403.921000", "105403.924000", "105403.927000", "105403.930000", "105403.933000", "105403.936000", "105403.939000", "105403.945000", "105403.948000", "105403.951000", "105403.954000", "105403.957000", "105403.960000", "105403.963000", "105403.966000", "105403.969000", "105443.910000", "105443.913000", "105443.916000", "105443.919000", "105443.922000", "105443.925000", "105443.928000", "105443.931000", "105443.934000", "105443.937000", "105443.940000", "105443.943000", "105443.946000", "105443.949000", "105443.952000", "105443.955000", "105443.958000", "105443.961000", "105443.964000", "105443.967000", "105443.970000", "105443.973000", "105443.976000", "105443.979000", "105443.982000", "105443.985000", "105443.988000", "105443.991000", "105443.994000", "105443.997000", "105444.639000"],
      "InstanceNumber": [1, 2, 3, 4, 5, 6, 7, 8, 9, 10, 11, 12, 13, 14, 15, 16, 17, 18, 19, 20, 21, 22, 23, 24, 25, 26, 27, 28, 29, 30, 31, 32, 33, 34, 35, 36, 37, 38, 39, 40, 41, 42, 43, 44, 45, 46, 47, 48, 49, 50, 51, 52, 53, 54, 55, 56, 57, 58, 59, 60, 61, 62, 63, 64, 65, 66, 67, 68, 69, 70, 71, 72, 73, 74, 75, 76, 77, 78, 79, 80, 81, 82, 83, 84, 85, 86, 87, 88, 89, 90, 91, 92, 93, 94, 95, 96, 97, 98, 99, 100, 101, 102, 103, 104, 105, 106, 107, 108, 109, 110, 111, 112, 113, 114, 115, 116, 117, 118, 119, 120, 121, 122, 123, 124, 125, 126, 127, 128, 129],
      "LargestImagePixelValue": [42093, 40508, 40096, 39678, 39533, 38887, 39177, 39043, 39333, 38971, 38633, 39403, 38827, 38960, 38956, 38999, 39205, 39113, 39023, 39395, 38592, 38992, 39146, 39697, 38740, 38879, 39126, 38721, 39243, 38713, 38928, 39026, 38741, 38765, 38741, 39077, 38891, 39173, 38590, 38620, 38246, 39012, 38353, 38595, 38574, 38587, 38623, 38611, 38971, 38713, 39153, 38884, 38757, 38837, 38893, 38423, 38927, 38872, 38889, 38759, 38941, 38844, 38542, 38760, 38863, 39481, 38518, 38672, 38521, 38897, 38885, 38548, 38870, 38935, 38739, 38752, 38867, 38659, 38822, 38887, 38639, 38605, 38519, 38593, 38920, 38749, 38835, 38744, 38799, 38597, 38717, 38347, 38777, 39042, 38473, 38628, 38341, 38931, 38797, 38870, 38633, 38569, 38816, 38782, 38727, 38796, 39023, 38698, 38964, 38648, 39064, 38530, 39201, 38521, 38524, 38945, 38362, 38315, 38628, 37809, 38590, 38340, 38161, 38115, 37918, 38071, 37865, 38210, 37799],
      "WindowCenter": [9906.0, 9872.0, 9862.0, 9861.0, 9860.0, 9846.0, 9838.0, 9827.0, 9830.0, 9823.0, 9825.0, 9839.0, 9842.0, 9843.0, 9841.0, 9831.0, 9823.0, 9830.0, 9833.0, 9841.0, 9835.0, 9832.0, 9824.0, 9828.0, 9822.0, 9823.0, 9822.0, 9822.0, 9819.0, 9813.0, 9823.0, 9831.0, 9818.0, 9801.0, 9789.0, 9778.0, 9785.0, 9803.0, 9813.0, 9823.0, 9818.0, 9806.0, 9789.0, 9788.0, 9795.0, 9814.0, 9822.0, 9817.0, 9808.0, 9806.0, 9812.0, 9814.0, 9816.0, 9816.0, 9816.0, 9811.0, 9815.0, 9815.0, 9814.0, 9808.0, 9815.0, 9814.0, 9817.0, 9825.0, 9825.0, 9823.0, 9808.0, 9807.0, 9805.0, 9811.0, 9813.0, 9807.0, 9809.0, 9816.0, 9817.0, 9824.0, 9825.0, 9818.0, 9810.0, 9814.0, 9808.0, 9809.0, 9808.0, 9800.0, 9800.0, 9801.0, 9816.0, 9826.0, 9827.0, 9810.0, 9784.0, 9765.0, 9762.0, 9784.0, 9806.0, 9833.0, 9837.0, 9828.0, 9804.0, 9791.0, 9792.0, 9796.0, 9805.0, 9816.0, 9817.0, 9810.0, 9807.0, 9807.0, 9823.0, 9831.0, 9824.0, 9809.0, 9807.0, 9809.0, 9807.0, 9807.0, 9800.0, 9803.0, 9801.0, 9787.0, 9791.0, 9791.0, 9791.0, 9794.0, 9789.0, 9793.0, 9784.0, 9777.0, 9779.0],
      "WindowWidth": [20995.0, 20904.0, 20874.0, 20865.0, 20859.0, 20827.0, 20808.0, 20782.0, 20784.0, 20767.0, 20776.0, 20804.0, 20816.0, 20819.0, 20810.0, 20784.0, 20769.0, 20785.0, 20797.0, 20811.0, 20799.0, 20790.0, 20773.0, 20779.0, 20768.0, 20771.0, 20767.0, 20765.0, 20755.0, 20744.0, 20769.0, 20786.0, 20759.0, 20722.0, 20691.0, 20667.0, 20685.0, 20724.0, 20748.0, 20767.0, 20760.0, 20731.0, 20696.0, 20693.0, 20707.0, 20750.0, 20768.0, 20761.0, 20737.0, 20730.0, 20744.0, 20751.0, 20756.0, 20756.0, 20757.0, 20748.0, 20751.0, 20749.0, 20748.0, 20737.0, 20751.0, 20751.0, 20763.0, 20778.0, 20776.0, 20767.0, 20738.0, 20734.0, 20728.0, 20738.0, 20745.0, 20737.0, 20744.0, 20757.0, 20761.0, 20775.0, 20779.0, 20764.0, 20743.0, 20746.0, 20736.0, 20740.0, 20736.0, 20722.0, 20720.0, 20724.0, 20755.0, 20774.0, 20774.0, 20738.0, 20680.0, 20641.0, 20634.0, 20681.0, 20735.0, 20794.0, 20805.0, 20781.0, 20728.0, 20698.0, 20701.0, 20709.0, 20728.0, 20753.0, 20757.0, 20742.0, 20733.0, 20733.0, 20769.0, 20785.0, 20770.0, 20739.0, 20733.0, 20739.0, 20735.0, 20731.0, 20718.0, 20725.0, 20718.0, 20693.0, 20697.0, 20698.0, 20696.0, 20707.0, 20701.0, 20705.0, 20686.0, 20673.0, 20677.0]
    },
    "slices": {}
  }
}