{
  "AcquisitionMatrixPE": 104,
  "AcquisitionNumber": 1,
  "AcquisitionTime": "10:21:44.975000",
  "BandwidthPerPixelPhaseEncode": 17.17,
  "BaseResolution": 104,
  "BodyPartExamined": "BRAIN",
  "CoilString": "HC1-7;NC1_2",
  "ConsistencyInfo": "N4_VE11C_LATEST_20160120",
  "ConversionSoftware": "dcm2niix",
  "ConversionSoftwareVersion": "v1.0.20200427",
  "DerivedVendorReportedEchoSpacing": 0.000560011,
  "DeviceSerialNumber": "167006",
  "DwellTime": 2.1e-06,
  "EchoTime": 0.037,
  "EchoTrainLength": 104,
  "EffectiveEchoSpacing": 0.000560011,
  "FlipAngle": 52,
  "ImageComments": "Unaliased_MB4_PE3_LB",
  "ImageOrientationPatientDICOM": [0.998781, -0.0490369, 0.00565131, 0.0472761, 0.917369, -0.39522],
  "ImageType": [
    "ORIGINAL",
    "PRIMARY",
    "M",
    "MB",
    "ND",
    "MOSAIC"
],
  "ImagingFrequency": 123.259,
  "InPlanePhaseEncodingDirectionDICOM": "COL",
  "InstitutionAddress": "Chemin_Queen-Mary_4565_Montreal_District_CA_H3W_1W5",
  "InstitutionName": "IUGM",
  "InstitutionalDepartmentName": "Department",
  "MRAcquisitionType": "2D",
  "MagneticFieldStrength": 3,
  "Manufacturer": "Siemens",
  "ManufacturersModelName": "Prisma_fit",
  "Modality": "MR",
  "MultibandAccelerationFactor": 4,
  "PartialFourier": 1,
  "PatientPosition": "HFS",
  "PercentPhaseFOV": 100,
  "PercentSampling": 100,
  "PhaseEncodingDirection": "j",
  "PhaseEncodingSteps": 104,
  "PhaseResolution": 1,
  "PixelBandwidth": 2290,
  "ProcedureStepDescription": "hcptrt_generic",
  "ProtocolName": "func_task-social_run-2",
  "PulseSequenceDetails": "%CustomerSeq%_cmrr_mbep2d_bold",
  "ReceiveCoilActiveElements": "HC1-7;NC1,2",
  "ReceiveCoilName": "HeadNeck_64",
  "ReconMatrixPE": 104,
  "RepetitionTime": 1.49,
  "SAR": 0.0286157,
  "ScanOptions": "FS",
  "ScanningSequence": "EP",
  "SequenceName": "epfid2d1_104",
  "SequenceVariant": "SK_SS",
  "SeriesDescription": "func_task-social_run-2",
  "SeriesNumber": 29,
  "ShimSetting": [631, -7248, -8867, 597, 0, -244, -125, -15],
  "SliceThickness": 2,
  "SliceTiming": [0, 0.785, 0.0975, 0.8825, 0.1975, 0.98, 0.295, 1.0775, 0.3925, 1.175, 0.49, 1.275, 0.5875, 1.3725, 0.6875, 0, 0.785, 0.0975, 0.8825, 0.1975, 0.98, 0.295, 1.0775, 0.3925, 1.175, 0.49, 1.275, 0.5875, 1.3725, 0.6875, 0, 0.785, 0.0975, 0.8825, 0.1975, 0.98, 0.295, 1.0775, 0.3925, 1.175, 0.49, 1.275, 0.5875, 1.3725, 0.6875, 0, 0.785, 0.0975, 0.8825, 0.1975, 0.98, 0.295, 1.0775, 0.3925, 1.175, 0.49, 1.275, 0.5875, 1.3725, 0.6875],
  "SoftwareVersions": "syngo_MR_E11",
  "SpacingBetweenSlices": 2,
  "StationName": "MRC35049",
  "TaskName": "social",
  "TotalReadoutTime": 0.0576811,
  "TxRefAmp": 218.088,
  "WipMemBlock": "51ea1b95-1d2f-41d3-a871-e91724f7501f||Sequence: R016 ve11c/master r/e634e98; Dec 19 2017 11:00:25 by eja",
  "dcmmeta_affine": [
    [-1.9975619316101074, 0.0945521742105484, -0.028392063453793526, 102.3973388671875],
    [0.0980738177895546, 1.8347382545471191, -0.7900106906890869, -64.61471557617188],
    [0.011302612721920013, 0.7904399633407593, 1.8371381759643555, -82.33715057373047],
    [0.0, 0.0, 0.0, 1.0]
],
  "dcmmeta_reorient_transform": [
    [0.0, -1.0, 0.0, 103.0],
    [1.0, 0.0, 0.0, 0.0],
    [0.0, 0.0, 1.0, 0.0],
    [0.0, 0.0, 0.0, 1.0]
],
  "dcmmeta_shape": [104, 104, 60, 139],
  "dcmmeta_slice_dim": 2,
  "dcmmeta_version": 0.6,
  "global": {
    "const": {
      "AcquisitionMatrix": [104, 0, 0, 104],
      "AngioFlag": "N",
      "BitsAllocated": 16,
      "BitsStored": 16,
      "BodyPartExamined": "BRAIN",
      "Columns": 832,
      "EchoNumbers": 1,
      "EchoTime": 37.0,
      "EchoTrainLength": 104,
      "FlipAngle": 52.0,
      "HighBit": 15,
      "ImageOrientationPatient": [0.99878097915637, -0.0490369086805, 0.00565130626449, 0.04727608655929, 0.917369143644, -0.3952199715722],
      "ImagePositionPatient": [-873.66575972707, -756.50919362904, 282.68415214952],
      "ImageType": [
        "ORIGINAL",
        "PRIMARY",
        "M",
        "MB",
        "ND",
        "MOSAIC"
],
      "ImagedNucleus": "1H",
      "ImagingFrequency": 123.259065,
      "InPlanePhaseEncodingDirection": "COL",
      "MRAcquisitionType": "2D",
      "MagneticFieldStrength": 3.0,
      "Manufacturer": "SIEMENS",
      "ManufacturerModelName": "Prisma_fit",
      "Modality": "MR",
      "NumberOfAverages": 1.0,
      "NumberOfPhaseEncodingSteps": 104,
      "PercentPhaseFieldOfView": 100.0,
      "PercentSampling": 100.0,
      "PerformedProcedureStepStartTime": "093014.698000",
      "PhotometricInterpretation": "MONOCHROME2",
      "PixelBandwidth": 2290.0,
      "PixelRepresentation": 0,
      "PixelSpacing": [2.0, 2.0],
      "ProtocolName": "func_task-social_run-2",
      "RepetitionTime": 1490.0,
      "Rows": 832,
      "SAR": 0.02861565401384,
      "SamplesPerPixel": 1,
      "ScanOptions": "FS",
      "ScanningSequence": "EP",
      "SequenceName": "epfid2d1_104",
      "SequenceVariant": [
        "SK",
        "SS"
],
      "SeriesDescription": "func_task-social_run-2",
      "SeriesNumber": 29,
      "SeriesTime": "102305.276000",
      "SliceLocation": -51.562840350691,
      "SliceThickness": 2.0,
      "SmallestImagePixelValue": 0,
      "SoftwareVersions": "syngo MR E11",
      "SpacingBetweenSlices": 1.9999999653148,
      "SpecificCharacterSet": "ISO_IR 100",
      "StudyID": "1",
      "StudyTime": "093014.575000",
      "TransmitCoilName": "Body",
      "VariableFlipAngleFlag": "N",
      "WindowCenterWidthExplanation": "Algo1",
      "dBdt": 0.0},
    "slices": {}
  },
  "time": {
    "samples": {
      "AcquisitionNumber": [1, 2, 3, 4, 5, 6, 7, 8, 9, 10, 11, 12, 13, 14, 15, 16, 17, 18, 19, 20, 21, 22, 23, 24, 25, 26, 27, 28, 29, 30, 31, 32, 33, 34, 35, 36, 37, 38, 39, 40, 41, 42, 43, 44, 45, 46, 47, 48, 49, 50, 51, 52, 53, 54, 55, 56, 57, 58, 59, 60, 61, 62, 63, 64, 65, 66, 67, 68, 69, 70, 71, 72, 73, 74, 75, 76, 77, 78, 79, 80, 81, 82, 83, 84, 85, 86, 87, 88, 89, 90, 91, 92, 93, 94, 95, 96, 97, 98, 99, 100, 101, 102, 103, 104, 105, 106, 107, 108, 109, 110, 111, 112, 113, 114, 115, 116, 117, 118, 119, 120, 121, 122, 123, 124, 125, 126, 127, 128, 129, 130, 131, 132, 133, 134, 135, 136, 137, 138, 139],
      "AcquisitionTime": ["102144.975000", "102146.465000", "102147.955000", "102149.445000", "102150.935000", "102152.425000", "102153.915000", "102155.405000", "102156.895000", "102158.385000", "102159.875000", "102201.365000", "102202.855000", "102204.345000", "102205.835000", "102207.325000", "102208.815000", "102210.305000", "102211.795000", "102213.285000", "102214.775000", "102216.265000", "102217.755000", "102219.245000", "102220.735000", "102222.225000", "102223.715000", "102225.205000", "102226.695000", "102228.185000", "102229.675000", "102231.165000", "102232.655000", "102234.145000", "102235.635000", "102237.125000", "102238.615000", "102240.105000", "102241.595000", "102243.085000", "102244.575000", "102246.065000", "102247.555000", "102249.045000", "102250.535000", "102252.025000", "102253.515000", "102255.005000", "102256.495000", "102257.985000", "102259.475000", "102300.965000", "102302.455000", "102303.945000", "102305.435000", "102306.925000", "102308.415000", "102309.905000", "102311.395000", "102312.885000", "102314.375000", "102315.865000", "102317.355000", "102318.845000", "102320.335000", "102321.825000", "102323.315000", "102324.805000", "102326.295000", "102327.785000", "102329.275000", "102330.765000", "102332.255000", "102333.745000", "102335.235000", "102336.725000", "102338.215000", "102339.705000", "102341.195000", "102342.685000", "102344.175000", "102345.665000", "102347.155000", "102348.645000", "102350.135000", "102351.625000", "102353.115000", "102354.605000", "102356.095000", "102357.585000", "102359.075000", "102400.565000", "102402.055000", "102403.545000", "102405.035000", "102406.525000", "102408.015000", "102409.505000", "102410.995000", "102412.485000", "102413.975000", "102415.465000", "102416.955000", "102418.445000", "102419.935000", "102421.425000", "102422.915000", "102424.405000", "102425.895000", "102427.385000", "102428.875000", "102430.365000", "102431.855000", "102433.345000", "102434.835000", "102436.325000", "102437.815000", "102439.305000", "102440.795000", "102442.285000", "102443.775000", "102445.265000", "102446.755000", "102448.245000", "102449.735000", "102451.225000", "102452.715000", "102454.205000", "102455.695000", "102457.185000", "102458.675000", "102500.165000", "102501.655000", "102503.145000", "102504.635000", "102506.125000", "102507.615000", "102509.105000", "102510.595000"],
      "ContentTime": ["102305.279000", "102305.282000", "102305.285000", "102305.288000", "102305.292000", "102305.295000", "102305.304000", "102305.307000", "102305.310000", "102305.313000", "102305.316000", "102305.319000", "102305.322000", "102305.325000", "102305.327000", "102305.330000", "102305.333000", "102305.336000", "102305.339000", "102305.342000", "102305.345000", "102305.348000", "102305.350000", "102305.353000", "102305.356000", "102305.359000", "102325.246000", "102325.249000", "102325.252000", "102325.255000", "102325.258000", "102325.260000", "102325.263000", "102325.266000", "102325.269000", "102325.272000", "102325.275000", "102325.278000", "102325.281000", "102325.284000", "102325.286000", "102325.289000", "102325.292000", "102325.295000", "102325.298000", "102325.301000", "102345.246000", "102345.249000", "102345.252000", "102345.255000", "102345.258000", "102345.260000", "102345.274000", "102345.277000", "102345.280000", "102345.283000", "102345.286000", "102345.289000", "102345.292000", "102345.295000", "102345.298000", "102345.300000", "102345.309000", "102345.312000", "102345.314000", "102345.317000", "102405.246000", "102405.249000", "102405.252000", "102405.254000", "102405.257000", "102405.260000", "102405.263000", "102405.266000", "102405.269000", "102405.277000", "102405.280000", "102405.283000", "102405.286000", "102405.289000", "102405.292000", "102405.295000", "102405.298000", "102405.300000", "102405.303000", "102405.306000", "102425.246000", "102425.249000", "102425.252000", "102425.255000", "102425.258000", "102425.260000", "102425.263000", "102425.266000", "102425.269000", "102425.272000", "102425.275000", "102425.278000", "102425.281000", "102425.284000", "102425.286000", "102425.289000", "102425.292000", "102425.295000", "102425.298000", "102425.301000", "102425.306000", "102505.245000", "102505.248000", "102505.251000", "102505.254000", "102505.257000", "102505.259000", "102505.262000", "102505.265000", "102505.268000", "102505.271000", "102505.274000", "102505.277000", "102505.280000", "102505.283000", "102505.286000", "102505.289000", "102505.291000", "102505.294000", "102505.297000", "102505.300000", "102505.303000", "102505.306000", "102505.309000", "102505.312000", "102505.315000", "102505.318000", "102505.320000", "102512.575000", "102512.578000", "102512.581000", "102512.584000", "102512.587000"],
      "InstanceCreationTime": ["102305.279000", "102305.282000", "102305.285000", "102305.288000", "102305.292000", "102305.295000", "102305.304000", "102305.307000", "102305.310000", "102305.313000", "102305.316000", "102305.319000", "102305.322000", "102305.325000", "102305.327000", "102305.330000", "102305.333000", "102305.336000", "102305.339000", "102305.342000", "102305.345000", "102305.348000", "102305.350000", "102305.353000", "102305.356000", "102305.359000", "102325.246000", "102325.249000", "102325.252000", "102325.255000", "102325.258000", "102325.260000", "102325.263000", "102325.266000", "102325.269000", "102325.272000", "102325.275000", "102325.278000", "102325.281000", "102325.284000", "102325.286000", "102325.289000", "102325.292000", "102325.295000", "102325.298000", "102325.301000", "102345.246000", "102345.249000", "102345.252000", "102345.255000", "102345.258000", "102345.260000", "102345.274000", "102345.277000", "102345.280000", "102345.283000", "102345.286000", "102345.289000", "102345.292000", "102345.295000", "102345.298000", "102345.300000", "102345.309000", "102345.312000", "102345.314000", "102345.317000", "102405.246000", "102405.249000", "102405.252000", "102405.254000", "102405.257000", "102405.260000", "102405.263000", "102405.266000", "102405.269000", "102405.277000", "102405.280000", "102405.283000", "102405.286000", "102405.289000", "102405.292000", "102405.295000", "102405.298000", "102405.300000", "102405.303000", "102405.306000", "102425.246000", "102425.249000", "102425.252000", "102425.255000", "102425.258000", "102425.260000", "102425.263000", "102425.266000", "102425.269000", "102425.272000", "102425.275000", "102425.278000", "102425.281000", "102425.284000", "102425.286000", "102425.289000", "102425.292000", "102425.295000", "102425.298000", "102425.301000", "102425.306000", "102505.245000", "102505.248000", "102505.251000", "102505.254000", "102505.257000", "102505.259000", "102505.262000", "102505.265000", "102505.268000", "102505.271000", "102505.274000", "102505.277000", "102505.280000", "102505.283000", "102505.286000", "102505.289000", "102505.291000", "102505.294000", "102505.297000", "102505.300000", "102505.303000", "102505.306000", "102505.309000", "102505.312000", "102505.315000", "102505.318000", "102505.320000", "102512.575000", "102512.578000", "102512.581000", "102512.584000", "102512.587000"],
      "InstanceNumber": [1, 2, 3, 4, 5, 6, 7, 8, 9, 10, 11, 12, 13, 14, 15, 16, 17, 18, 19, 20, 21, 22, 23, 24, 25, 26, 27, 28, 29, 30, 31, 32, 33, 34, 35, 36, 37, 38, 39, 40, 41, 42, 43, 44, 45, 46, 47, 48, 49, 50, 51, 52, 53, 54, 55, 56, 57, 58, 59, 60, 61, 62, 63, 64, 65, 66, 67, 68, 69, 70, 71, 72, 73, 74, 75, 76, 77, 78, 79, 80, 81, 82, 83, 84, 85, 86, 87, 88, 89, 90, 91, 92, 93, 94, 95, 96, 97, 98, 99, 100, 101, 102, 103, 104, 105, 106, 107, 108, 109, 110, 111, 112, 113, 114, 115, 116, 117, 118, 119, 120, 121, 122, 123, 124, 125, 126, 127, 128, 129, 130, 131, 132, 133, 134, 135, 136, 137, 138, 139],
      "LargestImagePixelValue": [44801, 43345, 43803, 43000, 42545, 42436, 43024, 42910, 42931, 42944, 42607, 42530, 42655, 42986, 42313, 42505, 42632, 42831, 42758, 43159, 42940, 42921, 42636, 42414, 42959, 42802, 42781, 43028, 42509, 42944, 43138, 42865, 42859, 43016, 42888, 42639, 42528, 42408, 42501, 42878, 42452, 42520, 42843, 42350, 42615, 42293, 42525, 42247, 42240, 42728, 41983, 42741, 42592, 43105, 42495, 42598, 42519, 42690, 43414, 42912, 42867, 42259, 42744, 42137, 42663, 42431, 42566, 42199, 42572, 42438, 42098, 42350, 42370, 41791, 42648, 42640, 42507, 42935, 42565, 42752, 42975, 42540, 42571, 43300, 42512, 42550, 42708, 42770, 42372, 42726, 42834, 42557, 42372, 42356, 42801, 42811, 42662, 42833, 43003, 42318, 43029, 42436, 42115, 42790, 42576, 42934, 42559, 42478, 42746, 42851, 43068, 42331, 42711, 43060, 42744, 42563, 42358, 42227, 42461, 42641, 42693, 42697, 43004, 42604, 42767, 42707, 42837, 42504, 42566, 42874, 42685, 42958, 42646, 42939, 43153, 42861, 42682, 42596, 42555],
      "WindowCenter": [10102.0, 10044.0, 10043.0, 10032.0, 10018.0, 9997.0, 9994.0, 10010.0, 10017.0, 10018.0, 10012.0, 10011.0, 10016.0, 10016.0, 10010.0, 10019.0, 10012.0, 10007.0, 10015.0, 10009.0, 10007.0, 10000.0, 10001.0, 10011.0, 10011.0, 10011.0, 9997.0, 9994.0, 10001.0, 10010.0, 10008.0, 10000.0, 9985.0, 9998.0, 10006.0, 10005.0, 9999.0, 9992.0, 9999.0, 9999.0, 10007.0, 10015.0, 10014.0, 10009.0, 10001.0, 9994.0, 9992.0, 9992.0, 9993.0, 9998.0, 9987.0, 9999.0, 9993.0, 9982.0, 9966.0, 9964.0, 9965.0, 9973.0, 9979.0, 9980.0, 9974.0, 9968.0, 9980.0, 9975.0, 9980.0, 9980.0, 9982.0, 9990.0, 9999.0, 10006.0, 10000.0, 9993.0, 9998.0, 9998.0, 10001.0, 10002.0, 9994.0, 9983.0, 9968.0, 9968.0, 9967.0, 9966.0, 9965.0, 9986.0, 9989.0, 9975.0, 9965.0, 9956.0, 9951.0, 9964.0, 9967.0, 9974.0, 9983.0, 9994.0, 10009.0, 10010.0, 10002.0, 10007.0, 10009.0, 10020.0, 10019.0, 10005.0, 9989.0, 9992.0, 9994.0, 10002.0, 10003.0, 9995.0, 9995.0, 9999.0, 9998.0, 9986.0, 9984.0, 9995.0, 9991.0, 9983.0, 9976.0, 9971.0, 9977.0, 9978.0, 9982.0, 9977.0, 9982.0, 10000.0, 10008.0, 9995.0, 9986.0, 9979.0, 9980.0, 9986.0, 9991.0, 9998.0, 10006.0, 9995.0, 9969.0, 9957.0, 9949.0, 9949.0, 9951.0],
      "WindowWidth": [21705.0, 21542.0, 21516.0, 21479.0, 21442.0, 21387.0, 21377.0, 21412.0, 21431.0, 21429.0, 21417.0, 21416.0, 21424.0, 21422.0, 21411.0, 21431.0, 21418.0, 21405.0, 21425.0, 21412.0, 21404.0, 21389.0, 21393.0, 21415.0, 21418.0, 21414.0, 21384.0, 21375.0, 21391.0, 21410.0, 21407.0, 21388.0, 21359.0, 21384.0, 21402.0, 21400.0, 21387.0, 21375.0, 21389.0, 21388.0, 21405.0, 21421.0, 21422.0, 21413.0, 21398.0, 21379.0, 21374.0, 21374.0, 21377.0, 21387.0, 21367.0, 21392.0, 21381.0, 21352.0, 21317.0, 21309.0, 21314.0, 21331.0, 21340.0, 21341.0, 21333.0, 21323.0, 21347.0, 21340.0, 21347.0, 21345.0, 21353.0, 21370.0, 21388.0, 21404.0, 21389.0, 21378.0, 21386.0, 21386.0, 21395.0, 21396.0, 21378.0, 21352.0, 21322.0, 21324.0, 21320.0, 21320.0, 21311.0, 21355.0, 21365.0, 21338.0, 21314.0, 21291.0, 21284.0, 21308.0, 21317.0, 21330.0, 21350.0, 21378.0, 21413.0, 21413.0, 21398.0, 21404.0, 21409.0, 21436.0, 21433.0, 21404.0, 21371.0, 21371.0, 21379.0, 21397.0, 21398.0, 21384.0, 21381.0, 21384.0, 21383.0, 21358.0, 21357.0, 21376.0, 21368.0, 21353.0, 21336.0, 21329.0, 21339.0, 21344.0, 21351.0, 21339.0, 21352.0, 21388.0, 21408.0, 21379.0, 21359.0, 21345.0, 21346.0, 21358.0, 21368.0, 21383.0, 21403.0, 21382.0, 21322.0, 21291.0, 21274.0, 21273.0, 21281.0]
    },
    "slices": {}
  }
}