{
  "AcquisitionMatrixPE": 104,
  "AcquisitionNumber": 1,
  "AcquisitionTime": "10:02:15.807500",
  "BandwidthPerPixelPhaseEncode": 17.17,
  "BaseResolution": 104,
  "BodyPartExamined": "BRAIN",
  "CoilString": "HC1-7;NC1_2",
  "ConsistencyInfo": "N4_VE11C_LATEST_20160120",
  "ConversionSoftware": "dcm2niix",
  "ConversionSoftwareVersion": "v1.0.20200427",
  "DerivedVendorReportedEchoSpacing": 0.000560011,
  "DeviceSerialNumber": "167006",
  "DwellTime": 2.1e-06,
  "EchoTime": 0.037,
  "EchoTrainLength": 104,
  "EffectiveEchoSpacing": 0.000560011,
  "FlipAngle": 52,
  "ImageComments": "Unaliased_MB4_PE3_LB",
  "ImageOrientationPatientDICOM": [0.998781, -0.0490369, 0.00565131, 0.0472761, 0.917369, -0.39522],
  "ImageType": [
    "ORIGINAL",
    "PRIMARY",
    "M",
    "MB",
    "ND",
    "MOSAIC"
],
  "ImagingFrequency": 123.259,
  "InPlanePhaseEncodingDirectionDICOM": "COL",
  "InstitutionAddress": "Chemin_Queen-Mary_4565_Montreal_District_CA_H3W_1W5",
  "InstitutionName": "IUGM",
  "InstitutionalDepartmentName": "Department",
  "MRAcquisitionType": "2D",
  "MagneticFieldStrength": 3,
  "Manufacturer": "Siemens",
  "ManufacturersModelName": "Prisma_fit",
  "Modality": "MR",
  "MultibandAccelerationFactor": 4,
  "PartialFourier": 1,
  "PatientPosition": "HFS",
  "PercentPhaseFOV": 100,
  "PercentSampling": 100,
  "PhaseEncodingDirection": "j",
  "PhaseEncodingSteps": 104,
  "PhaseResolution": 1,
  "PixelBandwidth": 2290,
  "ProcedureStepDescription": "hcptrt_generic",
  "ProtocolName": "func_task-motor_run-1",
  "PulseSequenceDetails": "%CustomerSeq%_cmrr_mbep2d_bold",
  "ReceiveCoilActiveElements": "HC1-7;NC1,2",
  "ReceiveCoilName": "HeadNeck_64",
  "ReconMatrixPE": 104,
  "RepetitionTime": 1.49,
  "SAR": 0.028629,
  "ScanOptions": "FS",
  "ScanningSequence": "EP",
  "SequenceName": "epfid2d1_104",
  "SequenceVariant": "SK_SS",
  "SeriesDescription": "func_task-motor_run-1",
  "SeriesNumber": 19,
  "ShimSetting": [631, -7248, -8867, 597, 0, -244, -125, -15],
  "SliceThickness": 2,
  "SliceTiming": [0, 0.785, 0.0975, 0.8825, 0.195, 0.98, 0.295, 1.0775, 0.3925, 1.175, 0.49, 1.275, 0.5875, 1.3725, 0.685, 0, 0.785, 0.0975, 0.8825, 0.195, 0.98, 0.295, 1.0775, 0.3925, 1.175, 0.49, 1.275, 0.5875, 1.3725, 0.685, 0, 0.785, 0.0975, 0.8825, 0.195, 0.98, 0.295, 1.0775, 0.3925, 1.175, 0.49, 1.275, 0.5875, 1.3725, 0.685, 0, 0.785, 0.0975, 0.8825, 0.195, 0.98, 0.295, 1.0775, 0.3925, 1.175, 0.49, 1.275, 0.5875, 1.3725, 0.685],
  "SoftwareVersions": "syngo_MR_E11",
  "SpacingBetweenSlices": 2,
  "StationName": "MRC35049",
  "TaskName": "motor",
  "TotalReadoutTime": 0.0576811,
  "TxRefAmp": 218.088,
  "WipMemBlock": "a23bafed-c974-4cff-9272-e63d1f6dc7ea||Sequence: R016 ve11c/master r/e634e98; Dec 19 2017 11:00:25 by eja",
  "dcmmeta_affine": [
    [-1.9975619316101074, 0.0945521742105484, -0.028392063453793526, 102.3973388671875],
    [0.0980738177895546, 1.8347382545471191, -0.7900106906890869, -64.61471557617188],
    [0.011302612721920013, 0.7904399633407593, 1.8371381759643555, -82.33715057373047],
    [0.0, 0.0, 0.0, 1.0]
],
  "dcmmeta_reorient_transform": [
    [0.0, -1.0, 0.0, 103.0],
    [1.0, 0.0, 0.0, 0.0],
    [0.0, 0.0, 1.0, 0.0],
    [0.0, 0.0, 0.0, 1.0]
],
  "dcmmeta_shape": [104, 104, 60, 144],
  "dcmmeta_slice_dim": 2,
  "dcmmeta_version": 0.6,
  "global": {
    "const": {
      "AcquisitionMatrix": [104, 0, 0, 104],
      "AngioFlag": "N",
      "BitsAllocated": 16,
      "BitsStored": 16,
      "BodyPartExamined": "BRAIN",
      "Columns": 832,
      "EchoNumbers": 1,
      "EchoTime": 37.0,
      "EchoTrainLength": 104,
      "FlipAngle": 52.0,
      "HighBit": 15,
      "ImageOrientationPatient": [0.99878097915637, -0.0490369086805, 0.00565130626449, 0.04727608655929, 0.917369143644, -0.3952199715722],
      "ImagePositionPatient": [-873.66575972707, -756.50919362904, 282.68415214952],
      "ImageType": [
        "ORIGINAL",
        "PRIMARY",
        "M",
        "MB",
        "ND",
        "MOSAIC"
],
      "ImagedNucleus": "1H",
      "ImagingFrequency": 123.259058,
      "InPlanePhaseEncodingDirection": "COL",
      "MRAcquisitionType": "2D",
      "MagneticFieldStrength": 3.0,
      "Manufacturer": "SIEMENS",
      "ManufacturerModelName": "Prisma_fit",
      "Modality": "MR",
      "NumberOfAverages": 1.0,
      "NumberOfPhaseEncodingSteps": 104,
      "PercentPhaseFieldOfView": 100.0,
      "PercentSampling": 100.0,
      "PerformedProcedureStepStartTime": "093014.698000",
      "PhotometricInterpretation": "MONOCHROME2",
      "PixelBandwidth": 2290.0,
      "PixelRepresentation": 0,
      "PixelSpacing": [2.0, 2.0],
      "ProtocolName": "func_task-motor_run-1",
      "RepetitionTime": 1490.0,
      "Rows": 832,
      "SAR": 0.0286289895551,
      "SamplesPerPixel": 1,
      "ScanOptions": "FS",
      "ScanningSequence": "EP",
      "SequenceName": "epfid2d1_104",
      "SequenceVariant": [
        "SK",
        "SS"
],
      "SeriesDescription": "func_task-motor_run-1",
      "SeriesNumber": 19,
      "SeriesTime": "100345.133000",
      "SliceLocation": -51.562840350691,
      "SliceThickness": 2.0,
      "SmallestImagePixelValue": 0,
      "SoftwareVersions": "syngo MR E11",
      "SpacingBetweenSlices": 1.9999999653148,
      "SpecificCharacterSet": "ISO_IR 100",
      "StudyID": "1",
      "StudyTime": "093014.575000",
      "TransmitCoilName": "Body",
      "VariableFlipAngleFlag": "N",
      "WindowCenterWidthExplanation": "Algo1",
      "dBdt": 0.0},
    "slices": {}
  },
  "time": {
    "samples": {
      "AcquisitionNumber": [1, 2, 3, 4, 5, 6, 7, 8, 9, 10, 11, 12, 13, 14, 15, 16, 17, 18, 19, 20, 21, 22, 23, 24, 25, 26, 27, 28, 29, 30, 31, 32, 33, 34, 35, 36, 37, 38, 39, 40, 41, 42, 43, 44, 45, 46, 47, 48, 49, 50, 51, 52, 53, 54, 55, 56, 57, 58, 59, 60, 61, 62, 63, 64, 65, 66, 67, 68, 69, 70, 71, 72, 73, 74, 75, 76, 77, 78, 79, 80, 81, 82, 83, 84, 85, 86, 87, 88, 89, 90, 91, 92, 93, 94, 95, 96, 97, 98, 99, 100, 101, 102, 103, 104, 105, 106, 107, 108, 109, 110, 111, 112, 113, 114, 115, 116, 117, 118, 119, 120, 121, 122, 123, 124, 125, 126, 127, 128, 129, 130, 131, 132, 133, 134, 135, 136, 137, 138, 139, 140, 141, 142, 143, 144],
      "AcquisitionTime": ["100215.807500", "100217.297500", "100218.787500", "100220.277500", "100221.767500", "100223.257500", "100224.747500", "100226.237500", "100227.727500", "100229.217500", "100230.707500", "100232.197500", "100233.687500", "100235.177500", "100236.667500", "100238.157500", "100239.647500", "100241.137500", "100242.627500", "100244.117500", "100245.607500", "100247.097500", "100248.587500", "100250.077500", "100251.567500", "100253.057500", "100254.547500", "100256.037500", "100257.527500", "100259.017500", "100300.507500", "100301.997500", "100303.487500", "100304.977500", "100306.467500", "100307.957500", "100309.447500", "100310.937500", "100312.427500", "100313.917500", "100315.407500", "100316.897500", "100318.387500", "100319.877500", "100321.367500", "100322.857500", "100324.347500", "100325.837500", "100327.327500", "100328.817500", "100330.307500", "100331.797500", "100333.287500", "100334.777500", "100336.267500", "100337.757500", "100339.247500", "100340.737500", "100342.227500", "100343.717500", "100345.207500", "100346.697500", "100348.187500", "100349.677500", "100351.167500", "100352.657500", "100354.147500", "100355.637500", "100357.127500", "100358.617500", "100400.107500", "100401.597500", "100403.087500", "100404.577500", "100406.067500", "100407.557500", "100409.047500", "100410.537500", "100412.027500", "100413.517500", "100415.007500", "100416.497500", "100417.987500", "100419.477500", "100420.967500", "100422.457500", "100423.947500", "100425.437500", "100426.927500", "100428.417500", "100429.907500", "100431.397500", "100432.887500", "100434.377500", "100435.867500", "100437.357500", "100438.847500", "100440.337500", "100441.827500", "100443.317500", "100444.807500", "100446.297500", "100447.787500", "100449.277500", "100450.767500", "100452.257500", "100453.747500", "100455.237500", "100456.727500", "100458.217500", "100459.707500", "100501.197500", "100502.687500", "100504.177500", "100505.667500", "100507.157500", "100508.647500", "100510.137500", "100511.627500", "100513.117500", "100514.607500", "100516.097500", "100517.587500", "100519.077500", "100520.567500", "100522.057500", "100523.547500", "100525.037500", "100526.527500", "100528.017500", "100529.507500", "100530.997500", "100532.487500", "100533.977500", "100535.467500", "100536.957500", "100538.447500", "100539.937500", "100541.427500", "100542.917500", "100544.407500", "100545.897500", "100547.387500", "100548.877500"],
      "ContentTime": ["100345.135000", "100345.138000", "100345.142000", "100345.144000", "100345.147000", "100345.150000", "100345.153000", "100345.156000", "100345.159000", "100345.162000", "100345.165000", "100345.168000", "100345.171000", "100345.173000", "100345.176000", "100345.179000", "100345.182000", "100345.185000", "100345.188000", "100345.191000", "100345.194000", "100345.197000", "100345.200000", "100345.202000", "100345.205000", "100345.208000", "100345.211000", "100345.214000", "100345.217000", "100345.220000", "100345.223000", "100345.226000", "100345.228000", "100345.231000", "100345.234000", "100405.103000", "100405.106000", "100405.109000", "100405.112000", "100405.115000", "100405.118000", "100405.121000", "100405.124000", "100405.126000", "100405.129000", "100405.132000", "100405.135000", "100405.138000", "100405.141000", "100405.144000", "100405.146000", "100405.149000", "100405.152000", "100405.155000", "100405.158000", "100425.103000", "100425.106000", "100425.109000", "100425.111000", "100425.115000", "100425.117000", "100425.120000", "100425.123000", "100425.126000", "100425.129000", "100425.132000", "100425.135000", "100425.138000", "100425.141000", "100425.144000", "100425.146000", "100425.149000", "100425.152000", "100425.155000", "100425.158000", "100425.161000", "100445.103000", "100445.106000", "100445.109000", "100445.112000", "100445.115000", "100445.118000", "100445.121000", "100445.124000", "100445.127000", "100445.130000", "100445.132000", "100445.135000", "100445.138000", "100445.141000", "100445.144000", "100445.147000", "100445.150000", "100445.153000", "100445.155000", "100445.158000", "100525.104000", "100525.107000", "100525.110000", "100525.113000", "100525.116000", "100525.118000", "100525.121000", "100525.124000", "100525.127000", "100525.130000", "100525.133000", "100525.136000", "100525.139000", "100525.142000", "100525.145000", "100525.148000", "100525.150000", "100525.153000", "100525.156000", "100525.159000", "100525.162000", "100525.165000", "100525.168000", "100525.171000", "100525.174000", "100525.177000", "100525.180000", "100525.183000", "100525.186000", "100525.188000", "100551.277000", "100551.281000", "100551.283000", "100551.286000", "100551.289000", "100551.292000", "100551.295000", "100551.298000", "100551.301000", "100551.308000", "100551.311000", "100551.314000", "100551.317000", "100551.320000", "100551.323000", "100551.326000", "100551.329000", "100551.332000"],
      "InstanceCreationTime": ["100345.135000", "100345.138000", "100345.142000", "100345.144000", "100345.147000", "100345.150000", "100345.153000", "100345.156000", "100345.159000", "100345.162000", "100345.165000", "100345.168000", "100345.171000", "100345.173000", "100345.176000", "100345.179000", "100345.182000", "100345.185000", "100345.188000", "100345.191000", "100345.194000", "100345.197000", "100345.200000", "100345.202000", "100345.205000", "100345.208000", "100345.211000", "100345.214000", "100345.217000", "100345.220000", "100345.223000", "100345.226000", "100345.228000", "100345.231000", "100345.234000", "100405.103000", "100405.106000", "100405.109000", "100405.112000", "100405.115000", "100405.118000", "100405.121000", "100405.124000", "100405.126000", "100405.129000", "100405.132000", "100405.135000", "100405.138000", "100405.141000", "100405.144000", "100405.146000", "100405.149000", "100405.152000", "100405.155000", "100405.158000", "100425.103000", "100425.106000", "100425.109000", "100425.111000", "100425.115000", "100425.117000", "100425.120000", "100425.123000", "100425.126000", "100425.129000", "100425.132000", "100425.135000", "100425.138000", "100425.141000", "100425.144000", "100425.146000", "100425.149000", "100425.152000", "100425.155000", "100425.158000", "100425.161000", "100445.103000", "100445.106000", "100445.109000", "100445.112000", "100445.115000", "100445.118000", "100445.121000", "100445.124000", "100445.127000", "100445.130000", "100445.132000", "100445.135000", "100445.138000", "100445.141000", "100445.144000", "100445.147000", "100445.150000", "100445.153000", "100445.155000", "100445.158000", "100525.104000", "100525.107000", "100525.110000", "100525.113000", "100525.116000", "100525.118000", "100525.121000", "100525.124000", "100525.127000", "100525.130000", "100525.133000", "100525.136000", "100525.139000", "100525.142000", "100525.145000", "100525.148000", "100525.150000", "100525.153000", "100525.156000", "100525.159000", "100525.162000", "100525.165000", "100525.168000", "100525.171000", "100525.174000", "100525.177000", "100525.180000", "100525.183000", "100525.186000", "100525.188000", "100551.277000", "100551.281000", "100551.283000", "100551.286000", "100551.289000", "100551.292000", "100551.295000", "100551.298000", "100551.301000", "100551.308000", "100551.311000", "100551.314000", "100551.317000", "100551.320000", "100551.323000", "100551.326000", "100551.329000", "100551.332000"],
      "InstanceNumber": [1, 2, 3, 4, 5, 6, 7, 8, 9, 10, 11, 12, 13, 14, 15, 16, 17, 18, 19, 20, 21, 22, 23, 24, 25, 26, 27, 28, 29, 30, 31, 32, 33, 34, 35, 36, 37, 38, 39, 40, 41, 42, 43, 44, 45, 46, 47, 48, 49, 50, 51, 52, 53, 54, 55, 56, 57, 58, 59, 60, 61, 62, 63, 64, 65, 66, 67, 68, 69, 70, 71, 72, 73, 74, 75, 76, 77, 78, 79, 80, 81, 82, 83, 84, 85, 86, 87, 88, 89, 90, 91, 92, 93, 94, 95, 96, 97, 98, 99, 100, 101, 102, 103, 104, 105, 106, 107, 108, 109, 110, 111, 112, 113, 114, 115, 116, 117, 118, 119, 120, 121, 122, 123, 124, 125, 126, 127, 128, 129, 130, 131, 132, 133, 134, 135, 136, 137, 138, 139, 140, 141, 142, 143, 144],
      "LargestImagePixelValue": [45456, 44095, 43037, 42525, 41944, 42138, 42369, 42082, 41720, 41769, 41109, 41961, 41090, 41024, 40654, 40276, 40742, 39979, 40474, 40401, 41733, 40591, 41661, 40916, 40345, 41297, 42088, 41426, 40329, 40625, 40115, 39993, 39374, 39768, 39120, 41442, 41844, 41392, 41481, 41450, 41384, 40678, 40815, 40199, 41434, 41839, 42323, 41685, 41496, 39338, 39654, 40259, 40627, 39803, 40664, 41224, 41573, 41638, 41290, 41258, 40888, 40937, 41236, 41384, 41316, 41602, 41151, 40771, 41406, 40864, 40684, 41465, 40674, 41147, 41347, 41136, 41666, 41588, 40988, 41446, 41560, 38439, 38465, 36743, 38048, 38201, 38807, 39279, 39502, 39540, 39363, 39731, 39895, 39396, 39116, 38871, 38990, 39187, 40288, 39379, 39729, 39775, 39540, 39704, 39973, 39618, 39459, 39871, 39732, 40350, 40076, 40132, 40218, 40518, 40122, 40514, 39771, 40277, 39898, 40411, 40211, 40254, 39974, 40407, 40192, 40374, 40470, 39828, 39748, 40189, 40016, 40316, 40020, 39637, 40043, 40422, 40503, 40164, 40072, 40086, 40474, 39917, 39528, 39311],
      "WindowCenter": [10129.0, 10072.0, 10030.0, 10017.0, 10017.0, 10032.0, 10033.0, 10030.0, 10032.0, 10047.0, 10053.0, 10064.0, 10053.0, 10039.0, 10023.0, 10022.0, 10021.0, 10039.0, 10050.0, 10073.0, 10060.0, 10039.0, 10032.0, 10026.0, 10018.0, 9959.0, 9953.0, 9931.0, 9927.0, 9932.0, 9926.0, 9927.0, 9931.0, 9948.0, 9952.0, 9986.0, 9993.0, 9981.0, 9994.0, 9996.0, 9996.0, 10003.0, 10009.0, 9987.0, 9997.0, 9985.0, 9974.0, 9969.0, 9932.0, 9912.0, 9955.0, 9955.0, 9940.0, 9913.0, 9921.0, 9920.0, 9904.0, 9886.0, 9882.0, 9905.0, 9925.0, 9922.0, 9921.0, 9927.0, 9937.0, 9953.0, 9962.0, 9961.0, 9966.0, 9967.0, 9956.0, 9974.0, 9974.0, 9988.0, 9990.0, 10006.0, 9992.0, 9966.0, 9942.0, 9944.0, 9953.0, 9874.0, 9882.0, 9883.0, 9897.0, 9880.0, 9866.0, 9854.0, 9845.0, 9852.0, 9854.0, 9862.0, 9874.0, 9871.0, 9866.0, 9874.0, 9881.0, 9888.0, 9893.0, 9898.0, 9921.0, 9934.0, 9944.0, 9953.0, 9958.0, 9951.0, 9946.0, 9957.0, 9952.0, 9964.0, 9949.0, 9942.0, 9948.0, 9945.0, 9933.0, 9940.0, 9939.0, 9938.0, 9921.0, 9918.0, 9930.0, 9937.0, 9925.0, 9920.0, 9918.0, 9935.0, 9947.0, 9910.0, 9901.0, 9896.0, 9894.0, 9896.0, 9898.0, 9882.0, 9886.0, 9903.0, 9922.0, 9918.0, 9909.0, 9908.0, 9931.0, 9936.0, 9930.0, 9925.0],
      "WindowWidth": [21751.0, 21588.0, 21472.0, 21432.0, 21429.0, 21455.0, 21457.0, 21449.0, 21452.0, 21484.0, 21503.0, 21525.0, 21505.0, 21474.0, 21440.0, 21435.0, 21432.0, 21474.0, 21518.0, 21580.0, 21533.0, 21479.0, 21457.0, 21441.0, 21425.0, 21292.0, 21264.0, 21218.0, 21211.0, 21221.0, 21209.0, 21214.0, 21226.0, 21262.0, 21275.0, 21340.0, 21356.0, 21333.0, 21356.0, 21364.0, 21367.0, 21386.0, 21398.0, 21353.0, 21368.0, 21334.0, 21305.0, 21297.0, 21215.0, 21174.0, 21263.0, 21261.0, 21228.0, 21177.0, 21185.0, 21182.0, 21145.0, 21107.0, 21096.0, 21144.0, 21194.0, 21192.0, 21189.0, 21199.0, 21220.0, 21257.0, 21277.0, 21276.0, 21286.0, 21289.0, 21266.0, 21301.0, 21309.0, 21341.0, 21343.0, 21374.0, 21344.0, 21286.0, 21234.0, 21236.0, 21258.0, 21103.0, 21099.0, 21111.0, 21137.0, 21097.0, 21064.0, 21034.0, 21015.0, 21030.0, 21035.0, 21051.0, 21076.0, 21076.0, 21071.0, 21086.0, 21103.0, 21117.0, 21124.0, 21139.0, 21187.0, 21219.0, 21243.0, 21262.0, 21269.0, 21256.0, 21245.0, 21267.0, 21259.0, 21279.0, 21251.0, 21235.0, 21243.0, 21237.0, 21214.0, 21229.0, 21225.0, 21221.0, 21187.0, 21177.0, 21211.0, 21224.0, 21200.0, 21184.0, 21178.0, 21214.0, 21246.0, 21169.0, 21145.0, 21132.0, 21127.0, 21133.0, 21138.0, 21106.0, 21108.0, 21145.0, 21191.0, 21186.0, 21166.0, 21165.0, 21211.0, 21225.0, 21215.0, 21206.0]
    },
    "slices": {}
  }
}