{
  "AcquisitionMatrixPE": 104,
  "AcquisitionNumber": 1,
  "AcquisitionTime": "09:40:9.650000",
  "BandwidthPerPixelPhaseEncode": 17.17,
  "BaseResolution": 104,
  "BodyPartExamined": "BRAIN",
  "CoilString": "HC1-7;NC1_2",
  "ConsistencyInfo": "N4_VE11C_LATEST_20160120",
  "ConversionSoftware": "dcm2niix",
  "ConversionSoftwareVersion": "v1.0.20200427",
  "DerivedVendorReportedEchoSpacing": 0.000560011,
  "DeviceSerialNumber": "167006",
  "DwellTime": 2.1e-06,
  "EchoTime": 0.037,
  "EchoTrainLength": 104,
  "EffectiveEchoSpacing": 0.000560011,
  "FlipAngle": 52,
  "ImageComments": "Unaliased_MB4_PE3_LB",
  "ImageOrientationPatientDICOM": [0.998781, -0.0490369, 0.00565131, 0.0472761, 0.917369, -0.39522],
  "ImageType": [
    "ORIGINAL",
    "PRIMARY",
    "M",
    "MB",
    "ND",
    "MOSAIC"
],
  "ImagingFrequency": 123.259,
  "InPlanePhaseEncodingDirectionDICOM": "COL",
  "InstitutionAddress": "Chemin_Queen-Mary_4565_Montreal_District_CA_H3W_1W5",
  "InstitutionName": "IUGM",
  "InstitutionalDepartmentName": "Department",
  "MRAcquisitionType": "2D",
  "MagneticFieldStrength": 3,
  "Manufacturer": "Siemens",
  "ManufacturersModelName": "Prisma_fit",
  "Modality": "MR",
  "MultibandAccelerationFactor": 4,
  "PartialFourier": 1,
  "PatientPosition": "HFS",
  "PercentPhaseFOV": 100,
  "PercentSampling": 100,
  "PhaseEncodingDirection": "j",
  "PhaseEncodingSteps": 104,
  "PhaseResolution": 1,
  "PixelBandwidth": 2290,
  "ProcedureStepDescription": "hcptrt_generic",
  "ProtocolName": "func_task-social_run-1",
  "PulseSequenceDetails": "%CustomerSeq%_cmrr_mbep2d_bold",
  "ReceiveCoilActiveElements": "HC1-7;NC1,2",
  "ReceiveCoilName": "HeadNeck_64",
  "ReconMatrixPE": 104,
  "RepetitionTime": 1.49,
  "SAR": 0.0286157,
  "ScanOptions": "FS",
  "ScanningSequence": "EP",
  "SequenceName": "epfid2d1_104",
  "SequenceVariant": "SK_SS",
  "SeriesDescription": "func_task-social_run-1",
  "SeriesNumber": 11,
  "ShimSetting": [631, -7248, -8867, 597, 0, -244, -125, -15],
  "SliceThickness": 2,
  "SliceTiming": [0, 0.7825, 0.0975, 0.88, 0.195, 0.98, 0.2925, 1.0775, 0.39, 1.175, 0.49, 1.2725, 0.5875, 1.37, 0.685, 0, 0.7825, 0.0975, 0.88, 0.195, 0.98, 0.2925, 1.0775, 0.39, 1.175, 0.49, 1.2725, 0.5875, 1.37, 0.685, 0, 0.7825, 0.0975, 0.88, 0.195, 0.98, 0.2925, 1.0775, 0.39, 1.175, 0.49, 1.2725, 0.5875, 1.37, 0.685, 0, 0.7825, 0.0975, 0.88, 0.195, 0.98, 0.2925, 1.0775, 0.39, 1.175, 0.49, 1.2725, 0.5875, 1.37, 0.685],
  "SoftwareVersions": "syngo_MR_E11",
  "SpacingBetweenSlices": 2,
  "StationName": "MRC35049",
  "TaskName": "social",
  "TotalReadoutTime": 0.0576811,
  "TxRefAmp": 218.088,
  "WipMemBlock": "356f9d46-a40e-4f7b-98cf-1831a33839ac||Sequence: R016 ve11c/master r/e634e98; Dec 19 2017 11:00:25 by eja",
  "dcmmeta_affine": [
    [-1.9975619316101074, 0.0945521742105484, -0.028392063453793526, 102.3973388671875],
    [0.0980738177895546, 1.8347382545471191, -0.7900106906890869, -64.61471557617188],
    [0.011302612721920013, 0.7904399633407593, 1.8371381759643555, -82.33715057373047],
    [0.0, 0.0, 0.0, 1.0]
],
  "dcmmeta_reorient_transform": [
    [0.0, -1.0, 0.0, 103.0],
    [1.0, 0.0, 0.0, 0.0],
    [0.0, 0.0, 1.0, 0.0],
    [0.0, 0.0, 0.0, 1.0]
],
  "dcmmeta_shape": [104, 104, 60, 139],
  "dcmmeta_slice_dim": 2,
  "dcmmeta_version": 0.6,
  "global": {
    "const": {
      "AcquisitionMatrix": [104, 0, 0, 104],
      "AngioFlag": "N",
      "BitsAllocated": 16,
      "BitsStored": 16,
      "BodyPartExamined": "BRAIN",
      "Columns": 832,
      "EchoNumbers": 1,
      "EchoTime": 37.0,
      "EchoTrainLength": 104,
      "FlipAngle": 52.0,
      "HighBit": 15,
      "ImageOrientationPatient": [0.99878097915637, -0.0490369086805, 0.00565130626449, 0.04727608655929, 0.917369143644, -0.3952199715722],
      "ImagePositionPatient": [-873.66575972707, -756.50919362904, 282.68415214952],
      "ImageType": [
        "ORIGINAL",
        "PRIMARY",
        "M",
        "MB",
        "ND",
        "MOSAIC"
],
      "ImagedNucleus": "1H",
      "ImagingFrequency": 123.259052,
      "InPlanePhaseEncodingDirection": "COL",
      "MRAcquisitionType": "2D",
      "MagneticFieldStrength": 3.0,
      "Manufacturer": "SIEMENS",
      "ManufacturerModelName": "Prisma_fit",
      "Modality": "MR",
      "NumberOfAverages": 1.0,
      "NumberOfPhaseEncodingSteps": 104,
      "PercentPhaseFieldOfView": 100.0,
      "PercentSampling": 100.0,
      "PerformedProcedureStepStartTime": "093014.698000",
      "PhotometricInterpretation": "MONOCHROME2",
      "PixelBandwidth": 2290.0,
      "PixelRepresentation": 0,
      "PixelSpacing": [2.0, 2.0],
      "ProtocolName": "func_task-social_run-1",
      "RepetitionTime": 1490.0,
      "Rows": 832,
      "SAR": 0.02861565401384,
      "SamplesPerPixel": 1,
      "ScanOptions": "FS",
      "ScanningSequence": "EP",
      "SequenceName": "epfid2d1_104",
      "SequenceVariant": [
        "SK",
        "SS"
],
      "SeriesDescription": "func_task-social_run-1",
      "SeriesNumber": 11,
      "SeriesTime": "094125.273000",
      "SliceLocation": -51.562840350691,
      "SliceThickness": 2.0,
      "SmallestImagePixelValue": 0,
      "SoftwareVersions": "syngo MR E11",
      "SpacingBetweenSlices": 1.9999999653148,
      "SpecificCharacterSet": "ISO_IR 100",
      "StudyID": "1",
      "StudyTime": "093014.575000",
      "TransmitCoilName": "Body",
      "VariableFlipAngleFlag": "N",
      "WindowCenterWidthExplanation": "Algo1",
      "dBdt": 0.0},
    "slices": {}
  },
  "time": {
    "samples": {
      "AcquisitionNumber": [1, 2, 3, 4, 5, 6, 7, 8, 9, 10, 11, 12, 13, 14, 15, 16, 17, 18, 19, 20, 21, 22, 23, 24, 25, 26, 27, 28, 29, 30, 31, 32, 33, 34, 35, 36, 37, 38, 39, 40, 41, 42, 43, 44, 45, 46, 47, 48, 49, 50, 51, 52, 53, 54, 55, 56, 57, 58, 59, 60, 61, 62, 63, 64, 65, 66, 67, 68, 69, 70, 71, 72, 73, 74, 75, 76, 77, 78, 79, 80, 81, 82, 83, 84, 85, 86, 87, 88, 89, 90, 91, 92, 93, 94, 95, 96, 97, 98, 99, 100, 101, 102, 103, 104, 105, 106, 107, 108, 109, 110, 111, 112, 113, 114, 115, 116, 117, 118, 119, 120, 121, 122, 123, 124, 125, 126, 127, 128, 129, 130, 131, 132, 133, 134, 135, 136, 137, 138, 139],
      "AcquisitionTime": ["094009.650000", "094011.140000", "094012.630000", "094014.120000", "094015.610000", "094017.100000", "094018.590000", "094020.080000", "094021.570000", "094023.060000", "094024.550000", "094026.040000", "094027.530000", "094029.020000", "094030.510000", "094032.000000", "094033.490000", "094034.980000", "094036.470000", "094037.960000", "094039.450000", "094040.940000", "094042.430000", "094043.920000", "094045.410000", "094046.900000", "094048.390000", "094049.880000", "094051.370000", "094052.860000", "094054.350000", "094055.840000", "094057.330000", "094058.820000", "094100.310000", "094101.800000", "094103.290000", "094104.780000", "094106.270000", "094107.760000", "094109.250000", "094110.740000", "094112.230000", "094113.720000", "094115.210000", "094116.700000", "094118.190000", "094119.680000", "094121.170000", "094122.660000", "094124.150000", "094125.640000", "094127.130000", "094128.620000", "094130.110000", "094131.600000", "094133.090000", "094134.580000", "094136.070000", "094137.560000", "094139.050000", "094140.540000", "094142.030000", "094143.520000", "094145.010000", "094146.500000", "094147.990000", "094149.480000", "094150.970000", "094152.460000", "094153.950000", "094155.440000", "094156.930000", "094158.420000", "094159.910000", "094201.400000", "094202.890000", "094204.380000", "094205.870000", "094207.360000", "094208.850000", "094210.340000", "094211.830000", "094213.320000", "094214.810000", "094216.300000", "094217.790000", "094219.280000", "094220.770000", "094222.260000", "094223.750000", "094225.240000", "094226.730000", "094228.220000", "094229.710000", "094231.200000", "094232.690000", "094234.180000", "094235.670000", "094237.160000", "094238.650000", "094240.140000", "094241.630000", "094243.120000", "094244.610000", "094246.100000", "094247.590000", "094249.080000", "094250.570000", "094252.060000", "094253.550000", "094255.040000", "094256.530000", "094258.020000", "094259.510000", "094301.000000", "094302.490000", "094303.980000", "094305.470000", "094306.960000", "094308.450000", "094309.940000", "094311.430000", "094312.920000", "094314.410000", "094315.900000", "094317.390000", "094318.880000", "094320.370000", "094321.860000", "094323.350000", "094324.840000", "094326.330000", "094327.820000", "094329.310000", "094330.800000", "094332.290000", "094333.780000", "094335.270000"],
      "ContentTime": ["094125.276000", "094125.279000", "094125.282000", "094125.293000", "094125.299000", "094125.302000", "094125.304000", "094125.307000", "094125.310000", "094125.313000", "094125.316000", "094125.319000", "094125.322000", "094125.328000", "094125.331000", "094125.334000", "094125.340000", "094125.343000", "094125.345000", "094125.348000", "094125.351000", "094145.246000", "094145.250000", "094145.252000", "094145.255000", "094145.258000", "094145.261000", "094145.264000", "094145.267000", "094145.270000", "094145.272000", "094145.275000", "094145.278000", "094145.281000", "094145.284000", "094145.287000", "094145.289000", "094145.292000", "094145.295000", "094145.315000", "094145.318000", "094205.246000", "094205.249000", "094205.252000", "094205.255000", "094205.258000", "094205.261000", "094205.263000", "094205.266000", "094205.269000", "094205.272000", "094205.275000", "094205.278000", "094205.281000", "094205.284000", "094205.287000", "094205.289000", "094205.292000", "094205.295000", "094205.298000", "094205.301000", "094205.304000", "094225.246000", "094225.249000", "094225.252000", "094225.255000", "094225.259000", "094225.261000", "094225.264000", "094225.267000", "094225.270000", "094225.273000", "094225.276000", "094225.279000", "094225.289000", "094225.292000", "094225.294000", "094225.297000", "094225.300000", "094225.303000", "094225.306000", "094225.309000", "094245.246000", "094245.249000", "094245.252000", "094245.254000", "094245.258000", "094245.260000", "094245.263000", "094245.266000", "094245.269000", "094245.272000", "094245.275000", "094245.278000", "094245.281000", "094245.284000", "094245.286000", "094245.289000", "094245.292000", "094245.295000", "094245.298000", "094245.301000", "094325.245000", "094325.248000", "094325.251000", "094325.254000", "094325.257000", "094325.259000", "094325.262000", "094325.265000", "094325.268000", "094325.271000", "094325.274000", "094325.276000", "094325.279000", "094325.282000", "094325.285000", "094325.288000", "094325.291000", "094325.294000", "094325.297000", "094325.299000", "094325.302000", "094325.305000", "094325.308000", "094325.311000", "094325.314000", "094325.317000", "094325.320000", "094325.323000", "094325.328000", "094336.951000", "094336.954000", "094336.957000", "094336.960000", "094336.963000", "094336.965000", "094336.968000", "094336.971000"],
      "InstanceCreationTime": ["094125.276000", "094125.279000", "094125.282000", "094125.293000", "094125.299000", "094125.302000", "094125.304000", "094125.307000", "094125.310000", "094125.313000", "094125.316000", "094125.319000", "094125.322000", "094125.328000", "094125.331000", "094125.334000", "094125.340000", "094125.343000", "094125.345000", "094125.348000", "094125.351000", "094145.246000", "094145.250000", "094145.252000", "094145.255000", "094145.258000", "094145.261000", "094145.264000", "094145.267000", "094145.270000", "094145.272000", "094145.275000", "094145.278000", "094145.281000", "094145.284000", "094145.287000", "094145.289000", "094145.292000", "094145.295000", "094145.315000", "094145.318000", "094205.246000", "094205.249000", "094205.252000", "094205.255000", "094205.258000", "094205.261000", "094205.263000", "094205.266000", "094205.269000", "094205.272000", "094205.275000", "094205.278000", "094205.281000", "094205.284000", "094205.287000", "094205.289000", "094205.292000", "094205.295000", "094205.298000", "094205.301000", "094205.304000", "094225.246000", "094225.249000", "094225.252000", "094225.255000", "094225.259000", "094225.261000", "094225.264000", "094225.267000", "094225.270000", "094225.273000", "094225.276000", "094225.279000", "094225.289000", "094225.292000", "094225.294000", "094225.297000", "094225.300000", "094225.303000", "094225.306000", "094225.309000", "094245.246000", "094245.249000", "094245.252000", "094245.254000", "094245.258000", "094245.260000", "094245.263000", "094245.266000", "094245.269000", "094245.272000", "094245.275000", "094245.278000", "094245.281000", "094245.284000", "094245.286000", "094245.289000", "094245.292000", "094245.295000", "094245.298000", "094245.301000", "094325.245000", "094325.248000", "094325.251000", "094325.254000", "094325.257000", "094325.259000", "094325.262000", "094325.265000", "094325.268000", "094325.271000", "094325.274000", "094325.276000", "094325.279000", "094325.282000", "094325.285000", "094325.288000", "094325.291000", "094325.294000", "094325.297000", "094325.299000", "094325.302000", "094325.305000", "094325.308000", "094325.311000", "094325.314000", "094325.317000", "094325.320000", "094325.323000", "094325.328000", "094336.951000", "094336.954000", "094336.957000", "094336.960000", "094336.963000", "094336.965000", "094336.968000", "094336.971000"],
      "InstanceNumber": [1, 2, 3, 4, 5, 6, 7, 8, 9, 10, 11, 12, 13, 14, 15, 16, 17, 18, 19, 20, 21, 22, 23, 24, 25, 26, 27, 28, 29, 30, 31, 32, 33, 34, 35, 36, 37, 38, 39, 40, 41, 42, 43, 44, 45, 46, 47, 48, 49, 50, 51, 52, 53, 54, 55, 56, 57, 58, 59, 60, 61, 62, 63, 64, 65, 66, 67, 68, 69, 70, 71, 72, 73, 74, 75, 76, 77, 78, 79, 80, 81, 82, 83, 84, 85, 86, 87, 88, 89, 90, 91, 92, 93, 94, 95, 96, 97, 98, 99, 100, 101, 102, 103, 104, 105, 106, 107, 108, 109, 110, 111, 112, 113, 114, 115, 116, 117, 118, 119, 120, 121, 122, 123, 124, 125, 126, 127, 128, 129, 130, 131, 132, 133, 134, 135, 136, 137, 138, 139],
      "LargestImagePixelValue": [44371, 43529, 41517, 40638, 42085, 42781, 41671, 40751, 41141, 41512, 40854, 42467, 41088, 40594, 39888, 40822, 41148, 41596, 42501, 41588, 41107, 42082, 40421, 40219, 41524, 39827, 40661, 41741, 42554, 42845, 42448, 42186, 40146, 39030, 39859, 39202, 39105, 40242, 41013, 40753, 40683, 41166, 41134, 40666, 40218, 40361, 38949, 38993, 40447, 41141, 40432, 42141, 42989, 42439, 41567, 42074, 42571, 41219, 40610, 41392, 40692, 40686, 41417, 41430, 40526, 41116, 40948, 41701, 41275, 41451, 42010, 41122, 41254, 42484, 41149, 39791, 40838, 41312, 42282, 41707, 42088, 41830, 42309, 41823, 41787, 41382, 41346, 41423, 42129, 41652, 41320, 42683, 41926, 42007, 42407, 41930, 40994, 41743, 42406, 40176, 40141, 41238, 42497, 41741, 42131, 42415, 41612, 41553, 41512, 41075, 41991, 40317, 41027, 40843, 41662, 41724, 41752, 41750, 42191, 41786, 41714, 42046, 41302, 41361, 42320, 42296, 42298, 42571, 39611, 39430, 40703, 41675, 42083, 42525, 42229, 41712, 41843, 39758, 38653],
      "WindowCenter": [10114.0, 10054.0, 10020.0, 10012.0, 10020.0, 10008.0, 9993.0, 9999.0, 10011.0, 10020.0, 10018.0, 10040.0, 10029.0, 10018.0, 9996.0, 9997.0, 9988.0, 9986.0, 10001.0, 9993.0, 9987.0, 9990.0, 9974.0, 9975.0, 9994.0, 9976.0, 9974.0, 9981.0, 9988.0, 10001.0, 10004.0, 9998.0, 9983.0, 9988.0, 10008.0, 10014.0, 9993.0, 9977.0, 9963.0, 9952.0, 9959.0, 9968.0, 9976.0, 9971.0, 9965.0, 9965.0, 9954.0, 9962.0, 9987.0, 10006.0, 10012.0, 10025.0, 10030.0, 10016.0, 10002.0, 9999.0, 9996.0, 9978.0, 9977.0, 9999.0, 9996.0, 9982.0, 9984.0, 9983.0, 9985.0, 9994.0, 9995.0, 9999.0, 9993.0, 9993.0, 9992.0, 9987.0, 9992.0, 10019.0, 10026.0, 10030.0, 10019.0, 9997.0, 9983.0, 9983.0, 9992.0, 9999.0, 9992.0, 9976.0, 9974.0, 9985.0, 10024.0, 10036.0, 10017.0, 9999.0, 9994.0, 10005.0, 10007.0, 10014.0, 10028.0, 10026.0, 10021.0, 10011.0, 10005.0, 9990.0, 9993.0, 10003.0, 10008.0, 10002.0, 10008.0, 10007.0, 9995.0, 9986.0, 9970.0, 9969.0, 9997.0, 10000.0, 10004.0, 9981.0, 9983.0, 9991.0, 10007.0, 10003.0, 10009.0, 10003.0, 10002.0, 10008.0, 10003.0, 10005.0, 10021.0, 10016.0, 10037.0, 10052.0, 10031.0, 9995.0, 9986.0, 9966.0, 9962.0, 9954.0, 9940.0, 9946.0, 9955.0, 9950.0, 9935.0],
      "WindowWidth": [21717.0, 21548.0, 21453.0, 21427.0, 21431.0, 21398.0, 21366.0, 21386.0, 21403.0, 21420.0, 21421.0, 21461.0, 21441.0, 21424.0, 21378.0, 21374.0, 21350.0, 21345.0, 21370.0, 21357.0, 21349.0, 21348.0, 21321.0, 21329.0, 21361.0, 21332.0, 21323.0, 21329.0, 21341.0, 21371.0, 21378.0, 21365.0, 21350.0, 21364.0, 21401.0, 21418.0, 21374.0, 21333.0, 21296.0, 21271.0, 21283.0, 21305.0, 21320.0, 21312.0, 21302.0, 21302.0, 21284.0, 21302.0, 21352.0, 21386.0, 21404.0, 21430.0, 21437.0, 21408.0, 21381.0, 21369.0, 21361.0, 21327.0, 21326.0, 21370.0, 21369.0, 21339.0, 21339.0, 21336.0, 21343.0, 21363.0, 21365.0, 21371.0, 21361.0, 21359.0, 21356.0, 21348.0, 21360.0, 21412.0, 21436.0, 21454.0, 21423.0, 21369.0, 21333.0, 21334.0, 21355.0, 21371.0, 21356.0, 21319.0, 21317.0, 21343.0, 21428.0, 21458.0, 21413.0, 21371.0, 21361.0, 21384.0, 21386.0, 21399.0, 21431.0, 21430.0, 21422.0, 21400.0, 21379.0, 21356.0, 21366.0, 21384.0, 21389.0, 21380.0, 21390.0, 21385.0, 21364.0, 21344.0, 21310.0, 21307.0, 21363.0, 21382.0, 21385.0, 21336.0, 21337.0, 21352.0, 21387.0, 21383.0, 21394.0, 21383.0, 21379.0, 21392.0, 21385.0, 21389.0, 21418.0, 21406.0, 21455.0, 21483.0, 21455.0, 21380.0, 21349.0, 21295.0, 21283.0, 21266.0, 21239.0, 21249.0, 21268.0, 21273.0, 21254.0]
    },
    "slices": {}
  }
}