{
  "AcquisitionMatrixPE": 104,
  "AcquisitionNumber": 1,
  "AcquisitionTime": "09:56:56.127500",
  "BandwidthPerPixelPhaseEncode": 17.17,
  "BaseResolution": 104,
  "BodyPartExamined": "BRAIN",
  "CoilString": "HC1-7;NC1_2",
  "ConsistencyInfo": "N4_VE11C_LATEST_20160120",
  "ConversionSoftware": "dcm2niix",
  "ConversionSoftwareVersion": "v1.0.20200427",
  "DerivedVendorReportedEchoSpacing": 0.000560011,
  "DeviceSerialNumber": "167006",
  "DwellTime": 2.1e-06,
  "EchoTime": 0.037,
  "EchoTrainLength": 104,
  "EffectiveEchoSpacing": 0.000560011,
  "FlipAngle": 52,
  "ImageComments": "Unaliased_MB4_PE3_LB",
  "ImageOrientationPatientDICOM": [0.998781, -0.0490369, 0.00565131, 0.0472761, 0.917369, -0.39522],
  "ImageType": [
    "ORIGINAL",
    "PRIMARY",
    "M",
    "MB",
    "ND",
    "MOSAIC"
],
  "ImagingFrequency": 123.259,
  "InPlanePhaseEncodingDirectionDICOM": "COL",
  "InstitutionAddress": "Chemin_Queen-Mary_4565_Montreal_District_CA_H3W_1W5",
  "InstitutionName": "IUGM",
  "InstitutionalDepartmentName": "Department",
  "MRAcquisitionType": "2D",
  "MagneticFieldStrength": 3,
  "Manufacturer": "Siemens",
  "ManufacturersModelName": "Prisma_fit",
  "Modality": "MR",
  "MultibandAccelerationFactor": 4,
  "PartialFourier": 1,
  "PatientPosition": "HFS",
  "PercentPhaseFOV": 100,
  "PercentSampling": 100,
  "PhaseEncodingDirection": "j",
  "PhaseEncodingSteps": 104,
  "PhaseResolution": 1,
  "PixelBandwidth": 2290,
  "ProcedureStepDescription": "hcptrt_generic",
  "ProtocolName": "func_task-language_run-1",
  "PulseSequenceDetails": "%CustomerSeq%_cmrr_mbep2d_bold",
  "ReceiveCoilActiveElements": "HC1-7;NC1,2",
  "ReceiveCoilName": "HeadNeck_64",
  "ReconMatrixPE": 104,
  "RepetitionTime": 1.49,
  "SAR": 0.0286642,
  "ScanOptions": "FS",
  "ScanningSequence": "EP",
  "SequenceName": "epfid2d1_104",
  "SequenceVariant": "SK_SS",
  "SeriesDescription": "func_task-language_run-1",
  "SeriesNumber": 17,
  "ShimSetting": [631, -7248, -8867, 597, 0, -244, -125, -15],
  "SliceThickness": 2,
  "SliceTiming": [0, 0.785, 0.0975, 0.8825, 0.195, 0.98, 0.295, 1.0775, 0.3925, 1.175, 0.49, 1.275, 0.5875, 1.3725, 0.685, 0, 0.785, 0.0975, 0.8825, 0.195, 0.98, 0.295, 1.0775, 0.3925, 1.175, 0.49, 1.275, 0.5875, 1.3725, 0.685, 0, 0.785, 0.0975, 0.8825, 0.195, 0.98, 0.295, 1.0775, 0.3925, 1.175, 0.49, 1.275, 0.5875, 1.3725, 0.685, 0, 0.785, 0.0975, 0.8825, 0.195, 0.98, 0.295, 1.0775, 0.3925, 1.175, 0.49, 1.275, 0.5875, 1.3725, 0.685],
  "SoftwareVersions": "syngo_MR_E11",
  "SpacingBetweenSlices": 2,
  "StationName": "MRC35049",
  "TaskName": "language",
  "TotalReadoutTime": 0.0576811,
  "TxRefAmp": 218.088,
  "WipMemBlock": "85706890-97eb-43c6-af68-dfb3afb52ab8||Sequence: R016 ve11c/master r/e634e98; Dec 19 2017 11:00:25 by eja",
  "dcmmeta_affine": [
    [-1.9975619316101074, 0.0945521742105484, -0.028392063453793526, 102.3973388671875],
    [0.0980738177895546, 1.8347382545471191, -0.7900106906890869, -64.61471557617188],
    [0.011302612721920013, 0.7904399633407593, 1.8371381759643555, -82.33715057373047],
    [0.0, 0.0, 0.0, 1.0]
],
  "dcmmeta_reorient_transform": [
    [0.0, -1.0, 0.0, 103.0],
    [1.0, 0.0, 0.0, 0.0],
    [0.0, 0.0, 1.0, 0.0],
    [0.0, 0.0, 0.0, 1.0]
],
  "dcmmeta_shape": [104, 104, 60, 159],
  "dcmmeta_slice_dim": 2,
  "dcmmeta_version": 0.6,
  "global": {
    "const": {
      "AcquisitionMatrix": [104, 0, 0, 104],
      "AngioFlag": "N",
      "BitsAllocated": 16,
      "BitsStored": 16,
      "BodyPartExamined": "BRAIN",
      "Columns": 832,
      "EchoNumbers": 1,
      "EchoTime": 37.0,
      "EchoTrainLength": 104,
      "FlipAngle": 52.0,
      "HighBit": 15,
      "ImageOrientationPatient": [0.99878097915637, -0.0490369086805, 0.00565130626449, 0.04727608655929, 0.917369143644, -0.3952199715722],
      "ImagePositionPatient": [-873.66575972707, -756.50919362904, 282.68415214952],
      "ImageType": [
        "ORIGINAL",
        "PRIMARY",
        "M",
        "MB",
        "ND",
        "MOSAIC"
],
      "ImagedNucleus": "1H",
      "ImagingFrequency": 123.259058,
      "InPlanePhaseEncodingDirection": "COL",
      "MRAcquisitionType": "2D",
      "MagneticFieldStrength": 3.0,
      "Manufacturer": "SIEMENS",
      "ManufacturerModelName": "Prisma_fit",
      "Modality": "MR",
      "NumberOfAverages": 1.0,
      "NumberOfPhaseEncodingSteps": 104,
      "PercentPhaseFieldOfView": 100.0,
      "PercentSampling": 100.0,
      "PerformedProcedureStepStartTime": "093014.698000",
      "PhotometricInterpretation": "MONOCHROME2",
      "PixelBandwidth": 2290.0,
      "PixelRepresentation": 0,
      "PixelSpacing": [2.0, 2.0],
      "ProtocolName": "func_task-language_run-1",
      "RepetitionTime": 1490.0,
      "Rows": 832,
      "SAR": 0.02866417188388,
      "SamplesPerPixel": 1,
      "ScanOptions": "FS",
      "ScanningSequence": "EP",
      "SequenceName": "epfid2d1_104",
      "SequenceVariant": [
        "SK",
        "SS"
],
      "SeriesDescription": "func_task-language_run-1",
      "SeriesNumber": 17,
      "SeriesTime": "095805.275000",
      "SliceLocation": -51.562840350691,
      "SliceThickness": 2.0,
      "SmallestImagePixelValue": 0,
      "SoftwareVersions": "syngo MR E11",
      "SpacingBetweenSlices": 1.9999999653148,
      "SpecificCharacterSet": "ISO_IR 100",
      "StudyID": "1",
      "StudyTime": "093014.575000",
      "TransmitCoilName": "Body",
      "VariableFlipAngleFlag": "N",
      "WindowCenterWidthExplanation": "Algo1",
      "dBdt": 0.0},
    "slices": {}
  },
  "time": {
    "samples": {
      "AcquisitionNumber": [1, 2, 3, 4, 5, 6, 7, 8, 9, 10, 11, 12, 13, 14, 15, 16, 17, 18, 19, 20, 21, 22, 23, 24, 25, 26, 27, 28, 29, 30, 31, 32, 33, 34, 35, 36, 37, 38, 39, 40, 41, 42, 43, 44, 45, 46, 47, 48, 49, 50, 51, 52, 53, 54, 55, 56, 57, 58, 59, 60, 61, 62, 63, 64, 65, 66, 67, 68, 69, 70, 71, 72, 73, 74, 75, 76, 77, 78, 79, 80, 81, 82, 83, 84, 85, 86, 87, 88, 89, 90, 91, 92, 93, 94, 95, 96, 97, 98, 99, 100, 101, 102, 103, 104, 105, 106, 107, 108, 109, 110, 111, 112, 113, 114, 115, 116, 117, 118, 119, 120, 121, 122, 123, 124, 125, 126, 127, 128, 129, 130, 131, 132, 133, 134, 135, 136, 137, 138, 139, 140, 141, 142, 143, 144, 145, 146, 147, 148, 149, 150, 151, 152, 153, 154, 155, 156, 157, 158, 159],
      "AcquisitionTime": ["095656.127500", "095657.617500", "095659.107500", "095700.597500", "095702.087500", "095703.577500", "095705.067500", "095706.557500", "095708.047500", "095709.537500", "095711.027500", "095712.517500", "095714.007500", "095715.497500", "095716.987500", "095718.477500", "095719.967500", "095721.457500", "095722.947500", "095724.437500", "095725.927500", "095727.417500", "095728.907500", "095730.397500", "095731.887500", "095733.377500", "095734.867500", "095736.357500", "095737.847500", "095739.337500", "095740.827500", "095742.317500", "095743.807500", "095745.297500", "095746.787500", "095748.277500", "095749.767500", "095751.257500", "095752.747500", "095754.237500", "095755.727500", "095757.217500", "095758.707500", "095800.197500", "095801.687500", "095803.177500", "095804.667500", "095806.157500", "095807.647500", "095809.137500", "095810.627500", "095812.117500", "095813.607500", "095815.097500", "095816.587500", "095818.077500", "095819.567500", "095821.057500", "095822.547500", "095824.037500", "095825.527500", "095827.017500", "095828.507500", "095829.997500", "095831.487500", "095832.977500", "095834.467500", "095835.957500", "095837.447500", "095838.937500", "095840.427500", "095841.917500", "095843.407500", "095844.897500", "095846.387500", "095847.877500", "095849.367500", "095850.857500", "095852.347500", "095853.837500", "095855.327500", "095856.817500", "095858.307500", "095859.797500", "095901.287500", "095902.777500", "095904.267500", "095905.757500", "095907.247500", "095908.737500", "095910.227500", "095911.717500", "095913.207500", "095914.697500", "095916.187500", "095917.677500", "095919.167500", "095920.657500", "095922.147500", "095923.637500", "095925.127500", "095926.617500", "095928.107500", "095929.597500", "095931.087500", "095932.577500", "095934.067500", "095935.557500", "095937.047500", "095938.537500", "095940.027500", "095941.517500", "095943.007500", "095944.497500", "095945.987500", "095947.477500", "095948.967500", "095950.457500", "095951.947500", "095953.437500", "095954.927500", "095956.417500", "095957.907500", "095959.397500", "100000.887500", "100002.377500", "100003.867500", "100005.357500", "100006.847500", "100008.337500", "100009.827500", "100011.317500", "100012.807500", "100014.297500", "100015.787500", "100017.277500", "100018.767500", "100020.257500", "100021.747500", "100023.237500", "100024.727500", "100026.217500", "100027.707500", "100029.197500", "100030.687500", "100032.177500", "100033.667500", "100035.157500", "100036.647500", "100038.137500", "100039.627500", "100041.117500", "100042.607500", "100044.097500", "100045.587500", "100047.077500", "100048.567500", "100050.057500", "100051.547500"],
      "ContentTime": ["095805.278000", "095805.298000", "095805.301000", "095805.304000", "095805.307000", "095805.310000", "095805.313000", "095805.316000", "095805.322000", "095805.325000", "095805.328000", "095805.334000", "095805.336000", "095805.339000", "095805.342000", "095825.246000", "095825.249000", "095825.252000", "095825.255000", "095825.257000", "095825.260000", "095825.263000", "095825.266000", "095825.269000", "095825.272000", "095825.275000", "095825.278000", "095825.281000", "095825.288000", "095825.290000", "095825.300000", "095825.303000", "095825.306000", "095825.309000", "095825.312000", "095845.246000", "095845.249000", "095845.252000", "095845.255000", "095845.258000", "095845.261000", "095845.264000", "095845.266000", "095845.269000", "095845.272000", "095845.275000", "095845.278000", "095845.281000", "095845.285000", "095845.288000", "095845.291000", "095845.294000", "095845.297000", "095845.300000", "095845.302000", "095905.246000", "095905.249000", "095905.252000", "095905.254000", "095905.257000", "095905.260000", "095905.263000", "095905.266000", "095905.269000", "095905.271000", "095905.274000", "095905.277000", "095905.280000", "095905.283000", "095905.286000", "095905.289000", "095905.292000", "095905.295000", "095905.298000", "095905.301000", "095925.245000", "095925.248000", "095925.251000", "095925.262000", "095925.265000", "095925.268000", "095925.271000", "095925.273000", "095925.276000", "095925.279000", "095925.282000", "095925.285000", "095925.288000", "095925.291000", "095925.294000", "095925.296000", "095925.299000", "095925.302000", "095925.305000", "095925.308000", "100005.245000", "100005.248000", "100005.251000", "100005.254000", "100005.257000", "100005.260000", "100005.262000", "100005.265000", "100005.268000", "100005.271000", "100005.274000", "100005.277000", "100005.280000", "100005.283000", "100005.286000", "100005.289000", "100005.292000", "100005.295000", "100005.297000", "100005.300000", "100005.303000", "100005.306000", "100005.309000", "100005.312000", "100005.315000", "100005.318000", "100005.321000", "100005.324000", "100005.326000", "100005.329000", "100005.332000", "100045.246000", "100045.249000", "100045.252000", "100045.256000", "100045.259000", "100045.262000", "100045.266000", "100045.270000", "100045.273000", "100045.276000", "100045.280000", "100045.283000", "100045.287000", "100045.290000", "100045.294000", "100045.297000", "100045.301000", "100045.304000", "100045.307000", "100045.311000", "100045.329000", "100045.332000", "100045.336000", "100045.339000", "100045.342000", "100045.346000", "100045.349000", "100053.501000", "100053.504000", "100053.507000", "100053.510000", "100053.513000", "100053.516000"],
      "InstanceCreationTime": ["095805.278000", "095805.298000", "095805.301000", "095805.304000", "095805.307000", "095805.310000", "095805.313000", "095805.316000", "095805.322000", "095805.325000", "095805.328000", "095805.334000", "095805.336000", "095805.339000", "095805.342000", "095825.246000", "095825.249000", "095825.252000", "095825.255000", "095825.257000", "095825.260000", "095825.263000", "095825.266000", "095825.269000", "095825.272000", "095825.275000", "095825.278000", "095825.281000", "095825.288000", "095825.290000", "095825.300000", "095825.303000", "095825.306000", "095825.309000", "095825.312000", "095845.246000", "095845.249000", "095845.252000", "095845.255000", "095845.258000", "095845.261000", "095845.264000", "095845.266000", "095845.269000", "095845.272000", "095845.275000", "095845.278000", "095845.281000", "095845.285000", "095845.288000", "095845.291000", "095845.294000", "095845.297000", "095845.300000", "095845.302000", "095905.246000", "095905.249000", "095905.252000", "095905.254000", "095905.257000", "095905.260000", "095905.263000", "095905.266000", "095905.269000", "095905.271000", "095905.274000", "095905.277000", "095905.280000", "095905.283000", "095905.286000", "095905.289000", "095905.292000", "095905.295000", "095905.298000", "095905.301000", "095925.245000", "095925.248000", "095925.251000", "095925.262000", "095925.265000", "095925.268000", "095925.271000", "095925.273000", "095925.276000", "095925.279000", "095925.282000", "095925.285000", "095925.288000", "095925.291000", "095925.294000", "095925.296000", "095925.299000", "095925.302000", "095925.305000", "095925.308000", "100005.245000", "100005.248000", "100005.251000", "100005.254000", "100005.257000", "100005.260000", "100005.262000", "100005.265000", "100005.268000", "100005.271000", "100005.274000", "100005.277000", "100005.280000", "100005.283000", "100005.286000", "100005.289000", "100005.292000", "100005.295000", "100005.297000", "100005.300000", "100005.303000", "100005.306000", "100005.309000", "100005.312000", "100005.315000", "100005.318000", "100005.321000", "100005.324000", "100005.326000", "100005.329000", "100005.332000", "100045.246000", "100045.249000", "100045.252000", "100045.256000", "100045.259000", "100045.262000", "100045.266000", "100045.270000", "100045.273000", "100045.276000", "100045.280000", "100045.283000", "100045.287000", "100045.290000", "100045.294000", "100045.297000", "100045.301000", "100045.304000", "100045.307000", "100045.311000", "100045.329000", "100045.332000", "100045.336000", "100045.339000", "100045.342000", "100045.346000", "100045.349000", "100053.501000", "100053.504000", "100053.507000", "100053.510000", "100053.513000", "100053.516000"],
      "InstanceNumber": [1, 2, 3, 4, 5, 6, 7, 8, 9, 10, 11, 12, 13, 14, 15, 16, 17, 18, 19, 20, 21, 22, 23, 24, 25, 26, 27, 28, 29, 30, 31, 32, 33, 34, 35, 36, 37, 38, 39, 40, 41, 42, 43, 44, 45, 46, 47, 48, 49, 50, 51, 52, 53, 54, 55, 56, 57, 58, 59, 60, 61, 62, 63, 64, 65, 66, 67, 68, 69, 70, 71, 72, 73, 74, 75, 76, 77, 78, 79, 80, 81, 82, 83, 84, 85, 86, 87, 88, 89, 90, 91, 92, 93, 94, 95, 96, 97, 98, 99, 100, 101, 102, 103, 104, 105, 106, 107, 108, 109, 110, 111, 112, 113, 114, 115, 116, 117, 118, 119, 120, 121, 122, 123, 124, 125, 126, 127, 128, 129, 130, 131, 132, 133, 134, 135, 136, 137, 138, 139, 140, 141, 142, 143, 144, 145, 146, 147, 148, 149, 150, 151, 152, 153, 154, 155, 156, 157, 158, 159],
      "LargestImagePixelValue": [44961, 43757, 41608, 40965, 42003, 41335, 40153, 39803, 40790, 40723, 40757, 40266, 40545, 40515, 39768, 41220, 41237, 40325, 42693, 42180, 41362, 40539, 39607, 41439, 41180, 40965, 41146, 40573, 40965, 40605, 39637, 40913, 40631, 39455, 41016, 39988, 40514, 41393, 40627, 40827, 39756, 40999, 40014, 39675, 39329, 39678, 40665, 40539, 40227, 41805, 42274, 42060, 41634, 42178, 40782, 41530, 41407, 41161, 42456, 41427, 42051, 42443, 42326, 42140, 42502, 41826, 41935, 42124, 42141, 42420, 41895, 43244, 42549, 42030, 41782, 41943, 41454, 41821, 42010, 41575, 42128, 42601, 42498, 41991, 42825, 42846, 42398, 42379, 42071, 41883, 43083, 43285, 42017, 42128, 41345, 41799, 41523, 42310, 42905, 42240, 42951, 43319, 41948, 42107, 42612, 41482, 42094, 42235, 41860, 41887, 42413, 42962, 42960, 42718, 42422, 43296, 43030, 43782, 41898, 42009, 41174, 40631, 40947, 41970, 42073, 42506, 42530, 42095, 42093, 42101, 41456, 42160, 41549, 41053, 41336, 41185, 41617, 41090, 40500, 41365, 40611, 41078, 40952, 40602, 39272, 40500, 41233, 40842, 40032, 40211, 40207, 39967, 39635, 39274, 39027, 38926, 39509, 39273, 39227],
      "WindowCenter": [10122.0, 10072.0, 10032.0, 10032.0, 10044.0, 10048.0, 10043.0, 10029.0, 10023.0, 10016.0, 10016.0, 10017.0, 10015.0, 10015.0, 10009.0, 10027.0, 10034.0, 10031.0, 10053.0, 10055.0, 10052.0, 10062.0, 10047.0, 10056.0, 10055.0, 10040.0, 10036.0, 10032.0, 10046.0, 10038.0, 10020.0, 10029.0, 10023.0, 10019.0, 10036.0, 10019.0, 10024.0, 10028.0, 10029.0, 10031.0, 10017.0, 10036.0, 10033.0, 10030.0, 10006.0, 10001.0, 10003.0, 10005.0, 10007.0, 10030.0, 10029.0, 10031.0, 10033.0, 10048.0, 10041.0, 10052.0, 10039.0, 10037.0, 10047.0, 10033.0, 10039.0, 10053.0, 10055.0, 10049.0, 10055.0, 10057.0, 10051.0, 10041.0, 10040.0, 10038.0, 10033.0, 10045.0, 10044.0, 10032.0, 10025.0, 10024.0, 10018.0, 10031.0, 10032.0, 10026.0, 10029.0, 10045.0, 10048.0, 10035.0, 10040.0, 10053.0, 10057.0, 10064.0, 10059.0, 10067.0, 10093.0, 10081.0, 10053.0, 10042.0, 10021.0, 10030.0, 10032.0, 10039.0, 10038.0, 10031.0, 10051.0, 10060.0, 10041.0, 10032.0, 10038.0, 10034.0, 10048.0, 10049.0, 10045.0, 10043.0, 10049.0, 10061.0, 10064.0, 10046.0, 10036.0, 10050.0, 10059.0, 10038.0, 10003.0, 9995.0, 9985.0, 9978.0, 9976.0, 9972.0, 9973.0, 9980.0, 9979.0, 9978.0, 9987.0, 10005.0, 10014.0, 10039.0, 10036.0, 10025.0, 10021.0, 10028.0, 10036.0, 10039.0, 10033.0, 10037.0, 10018.0, 10029.0, 10020.0, 10015.0, 10011.0, 10030.0, 10046.0, 10032.0, 10005.0, 10001.0, 10001.0, 10015.0, 10009.0, 10002.0, 9996.0, 9988.0, 9995.0, 10003.0, 9997.0],
      "WindowWidth": [21762.0, 21615.0, 21509.0, 21493.0, 21511.0, 21521.0, 21511.0, 21479.0, 21460.0, 21445.0, 21447.0, 21448.0, 21442.0, 21442.0, 21429.0, 21462.0, 21482.0, 21480.0, 21521.0, 21529.0, 21526.0, 21549.0, 21518.0, 21532.0, 21529.0, 21495.0, 21484.0, 21482.0, 21510.0, 21495.0, 21459.0, 21472.0, 21461.0, 21453.0, 21484.0, 21456.0, 21460.0, 21466.0, 21471.0, 21476.0, 21453.0, 21486.0, 21485.0, 21481.0, 21428.0, 21412.0, 21412.0, 21419.0, 21425.0, 21466.0, 21465.0, 21472.0, 21478.0, 21510.0, 21502.0, 21520.0, 21496.0, 21486.0, 21502.0, 21477.0, 21489.0, 21521.0, 21525.0, 21511.0, 21522.0, 21528.0, 21518.0, 21495.0, 21491.0, 21487.0, 21477.0, 21503.0, 21498.0, 21476.0, 21462.0, 21460.0, 21447.0, 21472.0, 21474.0, 21462.0, 21464.0, 21500.0, 21512.0, 21483.0, 21491.0, 21521.0, 21530.0, 21546.0, 21537.0, 21558.0, 21610.0, 21586.0, 21527.0, 21501.0, 21454.0, 21467.0, 21474.0, 21489.0, 21485.0, 21472.0, 21515.0, 21535.0, 21501.0, 21477.0, 21486.0, 21481.0, 21508.0, 21513.0, 21508.0, 21504.0, 21513.0, 21537.0, 21549.0, 21509.0, 21474.0, 21505.0, 21526.0, 21473.0, 21400.0, 21382.0, 21365.0, 21352.0, 21345.0, 21334.0, 21336.0, 21352.0, 21350.0, 21346.0, 21368.0, 21410.0, 21429.0, 21483.0, 21479.0, 21456.0, 21447.0, 21460.0, 21479.0, 21489.0, 21474.0, 21479.0, 21445.0, 21462.0, 21446.0, 21437.0, 21430.0, 21467.0, 21505.0, 21475.0, 21419.0, 21405.0, 21409.0, 21436.0, 21427.0, 21413.0, 21400.0, 21382.0, 21396.0, 21414.0, 21404.0]
    },
    "slices": {}
  }
}