{
  "AcquisitionMatrixPE": 104,
  "AcquisitionNumber": 1,
  "AcquisitionTime": "10:12:12.440000",
  "BandwidthPerPixelPhaseEncode": 17.17,
  "BaseResolution": 104,
  "BodyPartExamined": "BRAIN",
  "CoilString": "HC1-7;NC1_2",
  "ConsistencyInfo": "N4_VE11C_LATEST_20160120",
  "ConversionSoftware": "dcm2niix",
  "ConversionSoftwareVersion": "v1.0.20200427",
  "DerivedVendorReportedEchoSpacing": 0.000560011,
  "DeviceSerialNumber": "167006",
  "DwellTime": 2.1e-06,
  "EchoTime": 0.037,
  "EchoTrainLength": 104,
  "EffectiveEchoSpacing": 0.000560011,
  "FlipAngle": 52,
  "ImageComments": "Unaliased_MB4_PE3_LB",
  "ImageOrientationPatientDICOM": [0.998781, -0.0490369, 0.00565131, 0.0472761, 0.917369, -0.39522],
  "ImageType": [
    "ORIGINAL",
    "PRIMARY",
    "M",
    "MB",
    "ND",
    "MOSAIC"
],
  "ImagingFrequency": 123.259,
  "InPlanePhaseEncodingDirectionDICOM": "COL",
  "InstitutionAddress": "Chemin_Queen-Mary_4565_Montreal_District_CA_H3W_1W5",
  "InstitutionName": "IUGM",
  "InstitutionalDepartmentName": "Department",
  "MRAcquisitionType": "2D",
  "MagneticFieldStrength": 3,
  "Manufacturer": "Siemens",
  "ManufacturersModelName": "Prisma_fit",
  "Modality": "MR",
  "MultibandAccelerationFactor": 4,
  "PartialFourier": 1,
  "PatientPosition": "HFS",
  "PercentPhaseFOV": 100,
  "PercentSampling": 100,
  "PhaseEncodingDirection": "j",
  "PhaseEncodingSteps": 104,
  "PhaseResolution": 1,
  "PixelBandwidth": 2290,
  "ProcedureStepDescription": "hcptrt_generic",
  "ProtocolName": "func_task-motor_run-2",
  "PulseSequenceDetails": "%CustomerSeq%_cmrr_mbep2d_bold",
  "ReceiveCoilActiveElements": "HC1-7;NC1,2",
  "ReceiveCoilName": "HeadNeck_64",
  "ReconMatrixPE": 104,
  "RepetitionTime": 1.49,
  "SAR": 0.028629,
  "ScanOptions": "FS",
  "ScanningSequence": "EP",
  "SequenceName": "epfid2d1_104",
  "SequenceVariant": "SK_SS",
  "SeriesDescription": "func_task-motor_run-2",
  "SeriesNumber": 25,
  "ShimSetting": [631, -7248, -8867, 597, 0, -244, -125, -15],
  "SliceThickness": 2,
  "SliceTiming": [0, 0.785, 0.1, 0.8825, 0.1975, 0.98, 0.295, 1.08, 0.3925, 1.1775, 0.49, 1.275, 0.59, 1.3725, 0.6875, 0, 0.785, 0.1, 0.8825, 0.1975, 0.98, 0.295, 1.08, 0.3925, 1.1775, 0.49, 1.275, 0.59, 1.3725, 0.6875, 0, 0.785, 0.1, 0.8825, 0.1975, 0.98, 0.295, 1.08, 0.3925, 1.1775, 0.49, 1.275, 0.59, 1.3725, 0.6875, 0, 0.785, 0.1, 0.8825, 0.1975, 0.98, 0.295, 1.08, 0.3925, 1.1775, 0.49, 1.275, 0.59, 1.3725, 0.6875],
  "SoftwareVersions": "syngo_MR_E11",
  "SpacingBetweenSlices": 2,
  "StationName": "MRC35049",
  "TaskName": "motor",
  "TotalReadoutTime": 0.0576811,
  "TxRefAmp": 218.088,
  "WipMemBlock": "9a11cd74-4a9e-47bf-a2eb-864f26bd6341||Sequence: R016 ve11c/master r/e634e98; Dec 19 2017 11:00:25 by eja",
  "dcmmeta_affine": [
    [-1.9975619316101074, 0.0945521742105484, -0.028392063453793526, 102.3973388671875],
    [0.0980738177895546, 1.8347382545471191, -0.7900106906890869, -64.61471557617188],
    [0.011302612721920013, 0.7904399633407593, 1.8371381759643555, -82.33715057373047],
    [0.0, 0.0, 0.0, 1.0]
],
  "dcmmeta_reorient_transform": [
    [0.0, -1.0, 0.0, 103.0],
    [1.0, 0.0, 0.0, 0.0],
    [0.0, 0.0, 1.0, 0.0],
    [0.0, 0.0, 0.0, 1.0]
],
  "dcmmeta_shape": [104, 104, 60, 144],
  "dcmmeta_slice_dim": 2,
  "dcmmeta_version": 0.6,
  "global": {
    "const": {
      "AcquisitionMatrix": [104, 0, 0, 104],
      "AngioFlag": "N",
      "BitsAllocated": 16,
      "BitsStored": 16,
      "BodyPartExamined": "BRAIN",
      "Columns": 832,
      "EchoNumbers": 1,
      "EchoTime": 37.0,
      "EchoTrainLength": 104,
      "FlipAngle": 52.0,
      "HighBit": 15,
      "ImageOrientationPatient": [0.99878097915637, -0.0490369086805, 0.00565130626449, 0.04727608655929, 0.917369143644, -0.3952199715722],
      "ImagePositionPatient": [-873.66575972707, -756.50919362904, 282.68415214952],
      "ImageType": [
        "ORIGINAL",
        "PRIMARY",
        "M",
        "MB",
        "ND",
        "MOSAIC"
],
      "ImagedNucleus": "1H",
      "ImagingFrequency": 123.259058,
      "InPlanePhaseEncodingDirection": "COL",
      "MRAcquisitionType": "2D",
      "MagneticFieldStrength": 3.0,
      "Manufacturer": "SIEMENS",
      "ManufacturerModelName": "Prisma_fit",
      "Modality": "MR",
      "NumberOfAverages": 1.0,
      "NumberOfPhaseEncodingSteps": 104,
      "PercentPhaseFieldOfView": 100.0,
      "PercentSampling": 100.0,
      "PerformedProcedureStepStartTime": "093014.698000",
      "PhotometricInterpretation": "MONOCHROME2",
      "PixelBandwidth": 2290.0,
      "PixelRepresentation": 0,
      "PixelSpacing": [2.0, 2.0],
      "ProtocolName": "func_task-motor_run-2",
      "RepetitionTime": 1490.0,
      "Rows": 832,
      "SAR": 0.0286289895551,
      "SamplesPerPixel": 1,
      "ScanOptions": "FS",
      "ScanningSequence": "EP",
      "SequenceName": "epfid2d1_104",
      "SequenceVariant": [
        "SK",
        "SS"
],
      "SeriesDescription": "func_task-motor_run-2",
      "SeriesNumber": 25,
      "SeriesTime": "101345.128000",
      "SliceLocation": -51.562840350691,
      "SliceThickness": 2.0,
      "SmallestImagePixelValue": 0,
      "SoftwareVersions": "syngo MR E11",
      "SpacingBetweenSlices": 1.9999999653148,
      "SpecificCharacterSet": "ISO_IR 100",
      "StudyID": "1",
      "StudyTime": "093014.575000",
      "TransmitCoilName": "Body",
      "VariableFlipAngleFlag": "N",
      "WindowCenterWidthExplanation": "Algo1",
      "dBdt": 0.0},
    "slices": {}
  },
  "time": {
    "samples": {
      "AcquisitionNumber": [1, 2, 3, 4, 5, 6, 7, 8, 9, 10, 11, 12, 13, 14, 15, 16, 17, 18, 19, 20, 21, 22, 23, 24, 25, 26, 27, 28, 29, 30, 31, 32, 33, 34, 35, 36, 37, 38, 39, 40, 41, 42, 43, 44, 45, 46, 47, 48, 49, 50, 51, 52, 53, 54, 55, 56, 57, 58, 59, 60, 61, 62, 63, 64, 65, 66, 67, 68, 69, 70, 71, 72, 73, 74, 75, 76, 77, 78, 79, 80, 81, 82, 83, 84, 85, 86, 87, 88, 89, 90, 91, 92, 93, 94, 95, 96, 97, 98, 99, 100, 101, 102, 103, 104, 105, 106, 107, 108, 109, 110, 111, 112, 113, 114, 115, 116, 117, 118, 119, 120, 121, 122, 123, 124, 125, 126, 127, 128, 129, 130, 131, 132, 133, 134, 135, 136, 137, 138, 139, 140, 141, 142, 143, 144],
      "AcquisitionTime": ["101212.440000", "101213.930000", "101215.420000", "101216.910000", "101218.400000", "101219.890000", "101221.380000", "101222.870000", "101224.360000", "101225.850000", "101227.340000", "101228.830000", "101230.320000", "101231.810000", "101233.300000", "101234.790000", "101236.280000", "101237.770000", "101239.260000", "101240.750000", "101242.240000", "101243.730000", "101245.220000", "101246.710000", "101248.200000", "101249.690000", "101251.180000", "101252.670000", "101254.160000", "101255.650000", "101257.140000", "101258.630000", "101300.120000", "101301.610000", "101303.100000", "101304.590000", "101306.080000", "101307.570000", "101309.060000", "101310.550000", "101312.040000", "101313.530000", "101315.020000", "101316.510000", "101318.000000", "101319.490000", "101320.980000", "101322.470000", "101323.960000", "101325.450000", "101326.940000", "101328.430000", "101329.920000", "101331.410000", "101332.900000", "101334.390000", "101335.880000", "101337.370000", "101338.860000", "101340.350000", "101341.840000", "101343.330000", "101344.820000", "101346.310000", "101347.800000", "101349.290000", "101350.780000", "101352.270000", "101353.760000", "101355.250000", "101356.740000", "101358.230000", "101359.720000", "101401.210000", "101402.700000", "101404.190000", "101405.680000", "101407.170000", "101408.660000", "101410.150000", "101411.640000", "101413.130000", "101414.620000", "101416.110000", "101417.600000", "101419.090000", "101420.580000", "101422.070000", "101423.560000", "101425.050000", "101426.540000", "101428.030000", "101429.520000", "101431.010000", "101432.500000", "101433.990000", "101435.480000", "101436.970000", "101438.460000", "101439.950000", "101441.440000", "101442.930000", "101444.420000", "101445.910000", "101447.400000", "101448.890000", "101450.380000", "101451.870000", "101453.360000", "101454.850000", "101456.340000", "101457.830000", "101459.320000", "101500.810000", "101502.300000", "101503.790000", "101505.280000", "101506.770000", "101508.260000", "101509.750000", "101511.240000", "101512.730000", "101514.220000", "101515.710000", "101517.200000", "101518.690000", "101520.180000", "101521.670000", "101523.160000", "101524.650000", "101526.140000", "101527.630000", "101529.120000", "101530.610000", "101532.100000", "101533.590000", "101535.080000", "101536.570000", "101538.060000", "101539.550000", "101541.040000", "101542.530000", "101544.020000", "101545.510000"],
      "ContentTime": ["101345.131000", "101345.134000", "101345.137000", "101345.140000", "101345.143000", "101345.146000", "101345.156000", "101345.159000", "101345.167000", "101345.170000", "101345.173000", "101345.176000", "101345.179000", "101345.182000", "101345.185000", "101345.188000", "101345.191000", "101345.194000", "101345.197000", "101345.199000", "101345.202000", "101345.205000", "101345.208000", "101345.211000", "101345.214000", "101345.217000", "101345.220000", "101345.223000", "101345.225000", "101345.230000", "101345.233000", "101345.236000", "101345.239000", "101345.241000", "101345.244000", "101345.247000", "101345.250000", "101345.253000", "101345.256000", "101405.104000", "101405.107000", "101405.113000", "101405.116000", "101405.119000", "101405.121000", "101405.125000", "101405.127000", "101405.130000", "101405.134000", "101405.137000", "101405.140000", "101405.143000", "101405.146000", "101405.149000", "101405.152000", "101405.155000", "101405.158000", "101405.161000", "101405.164000", "101425.104000", "101425.107000", "101425.110000", "101425.113000", "101425.116000", "101425.119000", "101425.121000", "101425.124000", "101425.127000", "101425.130000", "101425.133000", "101425.136000", "101425.139000", "101425.142000", "101425.145000", "101425.147000", "101425.150000", "101425.153000", "101425.156000", "101425.159000", "101425.162000", "101445.104000", "101445.107000", "101445.110000", "101445.113000", "101445.116000", "101445.119000", "101445.121000", "101445.125000", "101445.127000", "101445.130000", "101445.133000", "101445.136000", "101445.139000", "101445.142000", "101445.145000", "101445.148000", "101445.151000", "101445.153000", "101445.156000", "101445.159000", "101525.103000", "101525.106000", "101525.109000", "101525.112000", "101525.115000", "101525.118000", "101525.136000", "101525.139000", "101525.142000", "101525.145000", "101525.148000", "101525.151000", "101525.154000", "101525.157000", "101525.160000", "101525.163000", "101525.166000", "101525.169000", "101525.172000", "101525.175000", "101525.178000", "101525.181000", "101525.184000", "101525.187000", "101525.190000", "101525.193000", "101525.196000", "101525.199000", "101547.732000", "101547.735000", "101547.738000", "101547.741000", "101547.744000", "101547.747000", "101547.749000", "101547.752000", "101547.755000", "101547.758000", "101547.761000", "101547.764000", "101547.767000", "101547.770000", "101547.773000", "101547.776000"],
      "InstanceCreationTime": ["101345.131000", "101345.134000", "101345.137000", "101345.140000", "101345.143000", "101345.146000", "101345.156000", "101345.159000", "101345.167000", "101345.170000", "101345.173000", "101345.176000", "101345.179000", "101345.182000", "101345.185000", "101345.188000", "101345.191000", "101345.194000", "101345.197000", "101345.199000", "101345.202000", "101345.205000", "101345.208000", "101345.211000", "101345.214000", "101345.217000", "101345.220000", "101345.223000", "101345.225000", "101345.230000", "101345.233000", "101345.236000", "101345.239000", "101345.241000", "101345.244000", "101345.247000", "101345.250000", "101345.253000", "101345.256000", "101405.104000", "101405.107000", "101405.113000", "101405.116000", "101405.119000", "101405.121000", "101405.125000", "101405.127000", "101405.130000", "101405.134000", "101405.137000", "101405.140000", "101405.143000", "101405.146000", "101405.149000", "101405.152000", "101405.155000", "101405.158000", "101405.161000", "101405.164000", "101425.104000", "101425.107000", "101425.110000", "101425.113000", "101425.116000", "101425.119000", "101425.121000", "101425.124000", "101425.127000", "101425.130000", "101425.133000", "101425.136000", "101425.139000", "101425.142000", "101425.145000", "101425.147000", "101425.150000", "101425.153000", "101425.156000", "101425.159000", "101425.162000", "101445.104000", "101445.107000", "101445.110000", "101445.113000", "101445.116000", "101445.119000", "101445.121000", "101445.125000", "101445.127000", "101445.130000", "101445.133000", "101445.136000", "101445.139000", "101445.142000", "101445.145000", "101445.148000", "101445.151000", "101445.153000", "101445.156000", "101445.159000", "101525.103000", "101525.106000", "101525.109000", "101525.112000", "101525.115000", "101525.118000", "101525.136000", "101525.139000", "101525.142000", "101525.145000", "101525.148000", "101525.151000", "101525.154000", "101525.157000", "101525.160000", "101525.163000", "101525.166000", "101525.169000", "101525.172000", "101525.175000", "101525.178000", "101525.181000", "101525.184000", "101525.187000", "101525.190000", "101525.193000", "101525.196000", "101525.199000", "101547.732000", "101547.735000", "101547.738000", "101547.741000", "101547.744000", "101547.747000", "101547.749000", "101547.752000", "101547.755000", "101547.758000", "101547.761000", "101547.764000", "101547.767000", "101547.770000", "101547.773000", "101547.776000"],
      "InstanceNumber": [1, 2, 3, 4, 5, 6, 7, 8, 9, 10, 11, 12, 13, 14, 15, 16, 17, 18, 19, 20, 21, 22, 23, 24, 25, 26, 27, 28, 29, 30, 31, 32, 33, 34, 35, 36, 37, 38, 39, 40, 41, 42, 43, 44, 45, 46, 47, 48, 49, 50, 51, 52, 53, 54, 55, 56, 57, 58, 59, 60, 61, 62, 63, 64, 65, 66, 67, 68, 69, 70, 71, 72, 73, 74, 75, 76, 77, 78, 79, 80, 81, 82, 83, 84, 85, 86, 87, 88, 89, 90, 91, 92, 93, 94, 95, 96, 97, 98, 99, 100, 101, 102, 103, 104, 105, 106, 107, 108, 109, 110, 111, 112, 113, 114, 115, 116, 117, 118, 119, 120, 121, 122, 123, 124, 125, 126, 127, 128, 129, 130, 131, 132, 133, 134, 135, 136, 137, 138, 139, 140, 141, 142, 143, 144],
      "LargestImagePixelValue": [43512, 42291, 41242, 41302, 41340, 40715, 40965, 41091, 40828, 39664, 40155, 40442, 40643, 41422, 41246, 40672, 40787, 41149, 40288, 40115, 40313, 40370, 39945, 39908, 39460, 39506, 39754, 40368, 39279, 39058, 39138, 39123, 39579, 39820, 39440, 39841, 40236, 40460, 41054, 39702, 39136, 39685, 39981, 39556, 40772, 39170, 40435, 39980, 41068, 39923, 40479, 39261, 39765, 39893, 39128, 39964, 40278, 39231, 39241, 39887, 39408, 39484, 39116, 39239, 40168, 39259, 39088, 39217, 39179, 39299, 39482, 39090, 39204, 39777, 38907, 39168, 40067, 38754, 38129, 39444, 40007, 39899, 39174, 38864, 39868, 39049, 38930, 39553, 39100, 40206, 39668, 39189, 39965, 39467, 38903, 39176, 39181, 39223, 39306, 40186, 40366, 38641, 38237, 39840, 38794, 40132, 39474, 39319, 39107, 39744, 39532, 38740, 39010, 38866, 38746, 38964, 39150, 39026, 38967, 39239, 38411, 39393, 38616, 38262, 38798, 39467, 39823, 39111, 38621, 39504, 39056, 39170, 38968, 38610, 39081, 38978, 38950, 38301, 38926, 39417, 39366, 39343, 39931, 39874],
      "WindowCenter": [10156.0, 10101.0, 10071.0, 10065.0, 10070.0, 10065.0, 10056.0, 10060.0, 10070.0, 10061.0, 10058.0, 10063.0, 10057.0, 10069.0, 10068.0, 10048.0, 10036.0, 10040.0, 10054.0, 10051.0, 10054.0, 10037.0, 10027.0, 10021.0, 10023.0, 10016.0, 10005.0, 10006.0, 10001.0, 10004.0, 10013.0, 10014.0, 10013.0, 10013.0, 10023.0, 10029.0, 10035.0, 10029.0, 10049.0, 10059.0, 10050.0, 10054.0, 10052.0, 10044.0, 10056.0, 10038.0, 10054.0, 10049.0, 10052.0, 10036.0, 10019.0, 9998.0, 9995.0, 9997.0, 10002.0, 10023.0, 10007.0, 9961.0, 9956.0, 9976.0, 9988.0, 10000.0, 9988.0, 9993.0, 9996.0, 9991.0, 9993.0, 9994.0, 9995.0, 9994.0, 9995.0, 9997.0, 10004.0, 10010.0, 10013.0, 10021.0, 10025.0, 10003.0, 9993.0, 10023.0, 10017.0, 10016.0, 9994.0, 9986.0, 9996.0, 9978.0, 9968.0, 9966.0, 9961.0, 9987.0, 9986.0, 9994.0, 10002.0, 10000.0, 9990.0, 9987.0, 9988.0, 9993.0, 10000.0, 10038.0, 10043.0, 10017.0, 9993.0, 10021.0, 10008.0, 10020.0, 10005.0, 9981.0, 9962.0, 9965.0, 9966.0, 9955.0, 9961.0, 9963.0, 9971.0, 9969.0, 9970.0, 9972.0, 9998.0, 10013.0, 9987.0, 9988.0, 9975.0, 9976.0, 9990.0, 10022.0, 10016.0, 9985.0, 9959.0, 9956.0, 9963.0, 9957.0, 9956.0, 9950.0, 9950.0, 9962.0, 9972.0, 9977.0, 9982.0, 9988.0, 9997.0, 10007.0, 10006.0, 9999.0],
      "WindowWidth": [21848.0, 21689.0, 21602.0, 21571.0, 21574.0, 21564.0, 21542.0, 21548.0, 21568.0, 21554.0, 21546.0, 21552.0, 21541.0, 21565.0, 21558.0, 21519.0, 21492.0, 21497.0, 21533.0, 21533.0, 21533.0, 21497.0, 21468.0, 21455.0, 21460.0, 21446.0, 21422.0, 21417.0, 21409.0, 21422.0, 21441.0, 21443.0, 21437.0, 21438.0, 21462.0, 21472.0, 21482.0, 21470.0, 21510.0, 21540.0, 21530.0, 21538.0, 21531.0, 21513.0, 21534.0, 21503.0, 21529.0, 21520.0, 21520.0, 21484.0, 21450.0, 21406.0, 21396.0, 21399.0, 21412.0, 21454.0, 21419.0, 21323.0, 21306.0, 21345.0, 21375.0, 21403.0, 21384.0, 21390.0, 21390.0, 21382.0, 21386.0, 21389.0, 21393.0, 21393.0, 21393.0, 21400.0, 21414.0, 21422.0, 21433.0, 21451.0, 21456.0, 21414.0, 21387.0, 21451.0, 21438.0, 21432.0, 21387.0, 21368.0, 21385.0, 21350.0, 21326.0, 21321.0, 21315.0, 21367.0, 21370.0, 21389.0, 21406.0, 21402.0, 21381.0, 21371.0, 21375.0, 21383.0, 21403.0, 21481.0, 21497.0, 21446.0, 21392.0, 21449.0, 21425.0, 21443.0, 21411.0, 21357.0, 21315.0, 21318.0, 21321.0, 21305.0, 21316.0, 21322.0, 21338.0, 21333.0, 21333.0, 21341.0, 21396.0, 21427.0, 21379.0, 21375.0, 21349.0, 21349.0, 21379.0, 21452.0, 21441.0, 21370.0, 21311.0, 21300.0, 21316.0, 21307.0, 21304.0, 21293.0, 21294.0, 21316.0, 21341.0, 21356.0, 21364.0, 21374.0, 21391.0, 21415.0, 21413.0, 21396.0]
    },
    "slices": {}
  }
}