{
  "AcquisitionMatrixPE": 104,
  "AcquisitionNumber": 1,
  "AcquisitionTime": "09:50:18.680000",
  "BandwidthPerPixelPhaseEncode": 17.17,
  "BaseResolution": 104,
  "BodyPartExamined": "BRAIN",
  "CoilString": "HC1-7;NC1_2",
  "ConsistencyInfo": "N4_VE11C_LATEST_20160120",
  "ConversionSoftware": "dcm2niix",
  "ConversionSoftwareVersion": "v1.0.20200427",
  "DerivedVendorReportedEchoSpacing": 0.000560011,
  "DeviceSerialNumber": "167006",
  "DwellTime": 2.1e-06,
  "EchoTime": 0.037,
  "EchoTrainLength": 104,
  "EffectiveEchoSpacing": 0.000560011,
  "FlipAngle": 52,
  "ImageComments": "Unaliased_MB4_PE3_LB",
  "ImageOrientationPatientDICOM": [0.998781, -0.0490369, 0.00565131, 0.0472761, 0.917369, -0.39522],
  "ImageType": [
    "ORIGINAL",
    "PRIMARY",
    "M",
    "MB",
    "ND",
    "MOSAIC"
],
  "ImagingFrequency": 123.259,
  "InPlanePhaseEncodingDirectionDICOM": "COL",
  "InstitutionAddress": "Chemin_Queen-Mary_4565_Montreal_District_CA_H3W_1W5",
  "InstitutionName": "IUGM",
  "InstitutionalDepartmentName": "Department",
  "MRAcquisitionType": "2D",
  "MagneticFieldStrength": 3,
  "Manufacturer": "Siemens",
  "ManufacturersModelName": "Prisma_fit",
  "Modality": "MR",
  "MultibandAccelerationFactor": 4,
  "PartialFourier": 1,
  "PatientPosition": "HFS",
  "PercentPhaseFOV": 100,
  "PercentSampling": 100,
  "PhaseEncodingDirection": "j",
  "PhaseEncodingSteps": 104,
  "PhaseResolution": 1,
  "PixelBandwidth": 2290,
  "ProcedureStepDescription": "hcptrt_generic",
  "ProtocolName": "func_task-wm_run-1",
  "PulseSequenceDetails": "%CustomerSeq%_cmrr_mbep2d_bold",
  "ReceiveCoilActiveElements": "HC1-7;NC1,2",
  "ReceiveCoilName": "HeadNeck_64",
  "ReconMatrixPE": 104,
  "RepetitionTime": 1.49,
  "SAR": 0.028737,
  "ScanOptions": "FS",
  "ScanningSequence": "EP",
  "SequenceName": "epfid2d1_104",
  "SequenceVariant": "SK_SS",
  "SeriesDescription": "func_task-wm_run-1",
  "SeriesNumber": 15,
  "ShimSetting": [631, -7248, -8867, 596, 0, -243, -125, -15],
  "SliceThickness": 2,
  "SliceTiming": [0, 0.785, 0.0975, 0.8825, 0.195, 0.98, 0.295, 1.0775, 0.3925, 1.175, 0.49, 1.2725, 0.5875, 1.3725, 0.685, 0, 0.785, 0.0975, 0.8825, 0.195, 0.98, 0.295, 1.0775, 0.3925, 1.175, 0.49, 1.2725, 0.5875, 1.3725, 0.685, 0, 0.785, 0.0975, 0.8825, 0.195, 0.98, 0.295, 1.0775, 0.3925, 1.175, 0.49, 1.2725, 0.5875, 1.3725, 0.685, 0, 0.785, 0.0975, 0.8825, 0.195, 0.98, 0.295, 1.0775, 0.3925, 1.175, 0.49, 1.2725, 0.5875, 1.3725, 0.685],
  "SoftwareVersions": "syngo_MR_E11",
  "SpacingBetweenSlices": 2,
  "StationName": "MRC35049",
  "TaskName": "wm",
  "TotalReadoutTime": 0.0576811,
  "TxRefAmp": 218.088,
  "WipMemBlock": "01601e50-c25f-409b-9b94-438085713c1b||Sequence: R016 ve11c/master r/e634e98; Dec 19 2017 11:00:25 by eja",
  "dcmmeta_affine": [
    [-1.9975619316101074, 0.0945521742105484, -0.028392063453793526, 102.3973388671875],
    [0.0980738177895546, 1.8347382545471191, -0.7900106906890869, -64.61471557617188],
    [0.011302612721920013, 0.7904399633407593, 1.8371381759643555, -82.33715057373047],
    [0.0, 0.0, 0.0, 1.0]
],
  "dcmmeta_reorient_transform": [
    [0.0, -1.0, 0.0, 103.0],
    [1.0, 0.0, 0.0, 0.0],
    [0.0, 0.0, 1.0, 0.0],
    [0.0, 0.0, 0.0, 1.0]
],
  "dcmmeta_shape": [104, 104, 60, 202],
  "dcmmeta_slice_dim": 2,
  "dcmmeta_version": 0.6,
  "global": {
    "const": {
      "AcquisitionMatrix": [104, 0, 0, 104],
      "AngioFlag": "N",
      "BitsAllocated": 16,
      "BitsStored": 16,
      "BodyPartExamined": "BRAIN",
      "Columns": 832,
      "EchoNumbers": 1,
      "EchoTime": 37.0,
      "EchoTrainLength": 104,
      "FlipAngle": 52.0,
      "HighBit": 15,
      "ImageOrientationPatient": [0.99878097915637, -0.0490369086805, 0.00565130626449, 0.04727608655929, 0.917369143644, -0.3952199715722],
      "ImagePositionPatient": [-873.66575972707, -756.50919362904, 282.68415214952],
      "ImageType": [
        "ORIGINAL",
        "PRIMARY",
        "M",
        "MB",
        "ND",
        "MOSAIC"
],
      "ImagedNucleus": "1H",
      "ImagingFrequency": 123.259055,
      "InPlanePhaseEncodingDirection": "COL",
      "MRAcquisitionType": "2D",
      "MagneticFieldStrength": 3.0,
      "Manufacturer": "SIEMENS",
      "ManufacturerModelName": "Prisma_fit",
      "Modality": "MR",
      "NumberOfAverages": 1.0,
      "NumberOfPhaseEncodingSteps": 104,
      "PercentPhaseFieldOfView": 100.0,
      "PercentSampling": 100.0,
      "PerformedProcedureStepStartTime": "093014.698000",
      "PhotometricInterpretation": "MONOCHROME2",
      "PixelBandwidth": 2290.0,
      "PixelRepresentation": 0,
      "PixelSpacing": [2.0, 2.0],
      "ProtocolName": "func_task-wm_run-1",
      "RepetitionTime": 1490.0,
      "Rows": 832,
      "SAR": 0.02873704583816,
      "SamplesPerPixel": 1,
      "ScanOptions": "FS",
      "ScanningSequence": "EP",
      "SequenceName": "epfid2d1_104",
      "SequenceVariant": [
        "SK",
        "SS"
],
      "SeriesDescription": "func_task-wm_run-1",
      "SeriesNumber": 15,
      "SeriesTime": "095146.094000",
      "SliceLocation": -51.562840350691,
      "SliceThickness": 2.0,
      "SmallestImagePixelValue": 0,
      "SoftwareVersions": "syngo MR E11",
      "SpacingBetweenSlices": 1.9999999653148,
      "SpecificCharacterSet": "ISO_IR 100",
      "StudyID": "1",
      "StudyTime": "093014.575000",
      "TransmitCoilName": "Body",
      "VariableFlipAngleFlag": "N",
      "WindowCenterWidthExplanation": "Algo1",
      "dBdt": 0.0},
    "slices": {}
  },
  "time": {
    "samples": {
      "AcquisitionNumber": [1, 2, 3, 4, 5, 6, 7, 8, 9, 10, 11, 12, 13, 14, 15, 16, 17, 18, 19, 20, 21, 22, 23, 24, 25, 26, 27, 28, 29, 30, 31, 32, 33, 34, 35, 36, 37, 38, 39, 40, 41, 42, 43, 44, 45, 46, 47, 48, 49, 50, 51, 52, 53, 54, 55, 56, 57, 58, 59, 60, 61, 62, 63, 64, 65, 66, 67, 68, 69, 70, 71, 72, 73, 74, 75, 76, 77, 78, 79, 80, 81, 82, 83, 84, 85, 86, 87, 88, 89, 90, 91, 92, 93, 94, 95, 96, 97, 98, 99, 100, 101, 102, 103, 104, 105, 106, 107, 108, 109, 110, 111, 112, 113, 114, 115, 116, 117, 118, 119, 120, 121, 122, 123, 124, 125, 126, 127, 128, 129, 130, 131, 132, 133, 134, 135, 136, 137, 138, 139, 140, 141, 142, 143, 144, 145, 146, 147, 148, 149, 150, 151, 152, 153, 154, 155, 156, 157, 158, 159, 160, 161, 162, 163, 164, 165, 166, 167, 168, 169, 170, 171, 172, 173, 174, 175, 176, 177, 178, 179, 180, 181, 182, 183, 184, 185, 186, 187, 188, 189, 190, 191, 192, 193, 194, 195, 196, 197, 198, 199, 200, 201, 202],
      "AcquisitionTime": ["095018.680000", "095020.170000", "095021.660000", "095023.150000", "095024.640000", "095026.130000", "095027.620000", "095029.110000", "095030.600000", "095032.090000", "095033.580000", "095035.070000", "095036.560000", "095038.050000", "095039.540000", "095041.030000", "095042.520000", "095044.010000", "095045.500000", "095046.990000", "095048.480000", "095049.970000", "095051.460000", "095052.950000", "095054.440000", "095055.930000", "095057.420000", "095058.910000", "095100.400000", "095101.890000", "095103.380000", "095104.870000", "095106.360000", "095107.850000", "095109.340000", "095110.830000", "095112.320000", "095113.810000", "095115.300000", "095116.790000", "095118.280000", "095119.770000", "095121.260000", "095122.750000", "095124.240000", "095125.730000", "095127.220000", "095128.710000", "095130.200000", "095131.690000", "095133.180000", "095134.670000", "095136.160000", "095137.650000", "095139.140000", "095140.630000", "095142.120000", "095143.610000", "095145.100000", "095146.590000", "095148.080000", "095149.570000", "095151.060000", "095152.550000", "095154.040000", "095155.530000", "095157.020000", "095158.510000", "095200.000000", "095201.490000", "095202.980000", "095204.470000", "095205.960000", "095207.450000", "095208.940000", "095210.430000", "095211.920000", "095213.410000", "095214.900000", "095216.390000", "095217.880000", "095219.370000", "095220.860000", "095222.350000", "095223.840000", "095225.330000", "095226.820000", "095228.310000", "095229.800000", "095231.290000", "095232.780000", "095234.270000", "095235.760000", "095237.250000", "095238.740000", "095240.230000", "095241.720000", "095243.210000", "095244.700000", "095246.190000", "095247.680000", "095249.170000", "095250.660000", "095252.150000", "095253.640000", "095255.130000", "095256.620000", "095258.110000", "095259.600000", "095301.090000", "095302.580000", "095304.070000", "095305.560000", "095307.050000", "095308.540000", "095310.030000", "095311.520000", "095313.010000", "095314.500000", "095315.990000", "095317.480000", "095318.970000", "095320.460000", "095321.950000", "095323.440000", "095324.930000", "095326.420000", "095327.910000", "095329.400000", "095330.890000", "095332.380000", "095333.870000", "095335.360000", "095336.850000", "095338.340000", "095339.830000", "095341.320000", "095342.810000", "095344.300000", "095345.790000", "095347.280000", "095348.770000", "095350.260000", "095351.750000", "095353.240000", "095354.730000", "095356.220000", "095357.710000", "095359.200000", "095400.690000", "095402.180000", "095403.670000", "095405.160000", "095406.650000", "095408.140000", "095409.630000", "095411.120000", "095412.610000", "095414.100000", "095415.590000", "095417.080000", "095418.570000", "095420.060000", "095421.550000", "095423.040000", "095424.530000", "095426.020000", "095427.510000", "095429.000000", "095430.490000", "095431.980000", "095433.470000", "095434.960000", "095436.450000", "095437.940000", "095439.430000", "095440.920000", "095442.410000", "095443.900000", "095445.390000", "095446.880000", "095448.370000", "095449.860000", "095451.350000", "095452.840000", "095454.330000", "095455.820000", "095457.310000", "095458.800000", "095500.290000", "095501.780000", "095503.270000", "095504.760000", "095506.250000", "095507.740000", "095509.230000", "095510.720000", "095512.210000", "095513.700000", "095515.190000", "095516.680000", "095518.170000"],
      "ContentTime": ["095146.097000", "095146.100000", "095146.103000", "095146.106000", "095146.109000", "095146.111000", "095146.114000", "095146.117000", "095146.120000", "095146.123000", "095146.126000", "095146.129000", "095146.132000", "095146.134000", "095146.137000", "095146.140000", "095146.143000", "095146.146000", "095146.149000", "095146.152000", "095146.154000", "095146.168000", "095146.171000", "095146.174000", "095146.177000", "095146.180000", "095146.182000", "095146.185000", "095146.188000", "095146.191000", "095146.194000", "095146.197000", "095146.200000", "095146.203000", "095206.067000", "095206.070000", "095206.073000", "095206.076000", "095206.079000", "095206.082000", "095206.091000", "095206.094000", "095206.097000", "095206.100000", "095206.102000", "095206.105000", "095206.108000", "095206.111000", "095206.114000", "095206.117000", "095206.120000", "095206.122000", "095206.125000", "095206.128000", "095226.067000", "095226.070000", "095226.073000", "095226.076000", "095226.078000", "095226.081000", "095226.084000", "095226.087000", "095226.090000", "095226.093000", "095226.096000", "095226.099000", "095226.101000", "095226.104000", "095226.107000", "095226.110000", "095226.113000", "095226.116000", "095226.119000", "095226.121000", "095226.124000", "095246.067000", "095246.070000", "095246.073000", "095246.076000", "095246.079000", "095246.082000", "095246.085000", "095246.087000", "095246.090000", "095246.093000", "095246.096000", "095246.099000", "095246.102000", "095246.105000", "095246.108000", "095246.111000", "095246.114000", "095246.117000", "095246.119000", "095246.122000", "095326.068000", "095326.071000", "095326.074000", "095326.077000", "095326.080000", "095326.083000", "095326.086000", "095326.088000", "095326.091000", "095326.094000", "095326.097000", "095326.100000", "095326.103000", "095326.106000", "095326.109000", "095326.112000", "095326.115000", "095326.118000", "095326.120000", "095326.123000", "095326.126000", "095326.136000", "095326.139000", "095326.142000", "095326.145000", "095326.148000", "095326.151000", "095326.154000", "095326.156000", "095326.159000", "095406.067000", "095406.070000", "095406.073000", "095406.076000", "095406.079000", "095406.082000", "095406.085000", "095406.087000", "095406.091000", "095406.094000", "095406.097000", "095406.099000", "095406.102000", "095406.105000", "095406.108000", "095406.111000", "095406.114000", "095406.117000", "095406.120000", "095406.123000", "095406.126000", "095406.129000", "095406.131000", "095406.134000", "095406.137000", "095406.140000", "095406.143000", "095446.067000", "095446.070000", "095446.073000", "095446.076000", "095446.079000", "095446.082000", "095446.085000", "095446.087000", "095446.106000", "095446.109000", "095446.112000", "095446.116000", "095446.119000", "095446.122000", "095446.124000", "095446.127000", "095446.130000", "095446.133000", "095446.136000", "095446.139000", "095446.142000", "095446.145000", "095446.148000", "095446.151000", "095446.154000", "095446.156000", "095446.159000", "095520.057000", "095520.060000", "095520.063000", "095520.066000", "095520.069000", "095520.072000", "095520.075000", "095520.077000", "095520.080000", "095520.083000", "095520.086000", "095520.089000", "095520.092000", "095520.095000", "095520.098000", "095520.101000", "095520.104000", "095520.107000", "095520.110000", "095520.113000", "095520.116000", "095520.119000", "095520.122000"],
      "InstanceCreationTime": ["095146.097000", "095146.100000", "095146.103000", "095146.106000", "095146.109000", "095146.111000", "095146.114000", "095146.117000", "095146.120000", "095146.123000", "095146.126000", "095146.129000", "095146.132000", "095146.134000", "095146.137000", "095146.140000", "095146.143000", "095146.146000", "095146.149000", "095146.152000", "095146.154000", "095146.168000", "095146.171000", "095146.174000", "095146.177000", "095146.180000", "095146.182000", "095146.185000", "095146.188000", "095146.191000", "095146.194000", "095146.197000", "095146.200000", "095146.203000", "095206.067000", "095206.070000", "095206.073000", "095206.076000", "095206.079000", "095206.082000", "095206.091000", "095206.094000", "095206.097000", "095206.100000", "095206.102000", "095206.105000", "095206.108000", "095206.111000", "095206.114000", "095206.117000", "095206.120000", "095206.122000", "095206.125000", "095206.128000", "095226.067000", "095226.070000", "095226.073000", "095226.076000", "095226.078000", "095226.081000", "095226.084000", "095226.087000", "095226.090000", "095226.093000", "095226.096000", "095226.099000", "095226.101000", "095226.104000", "095226.107000", "095226.110000", "095226.113000", "095226.116000", "095226.119000", "095226.121000", "095226.124000", "095246.067000", "095246.070000", "095246.073000", "095246.076000", "095246.079000", "095246.082000", "095246.085000", "095246.087000", "095246.090000", "095246.093000", "095246.096000", "095246.099000", "095246.102000", "095246.105000", "095246.108000", "095246.111000", "095246.114000", "095246.117000", "095246.119000", "095246.122000", "095326.068000", "095326.071000", "095326.074000", "095326.077000", "095326.080000", "095326.083000", "095326.086000", "095326.088000", "095326.091000", "095326.094000", "095326.097000", "095326.100000", "095326.103000", "095326.106000", "095326.109000", "095326.112000", "095326.115000", "095326.118000", "095326.120000", "095326.123000", "095326.126000", "095326.136000", "095326.139000", "095326.142000", "095326.145000", "095326.148000", "095326.151000", "095326.154000", "095326.156000", "095326.159000", "095406.067000", "095406.070000", "095406.073000", "095406.076000", "095406.079000", "095406.082000", "095406.085000", "095406.087000", "095406.091000", "095406.094000", "095406.097000", "095406.099000", "095406.102000", "095406.105000", "095406.108000", "095406.111000", "095406.114000", "095406.117000", "095406.120000", "095406.123000", "095406.126000", "095406.129000", "095406.131000", "095406.134000", "095406.137000", "095406.140000", "095406.143000", "095446.067000", "095446.070000", "095446.073000", "095446.076000", "095446.079000", "095446.082000", "095446.085000", "095446.087000", "095446.106000", "095446.109000", "095446.112000", "095446.116000", "095446.119000", "095446.122000", "095446.124000", "095446.127000", "095446.130000", "095446.133000", "095446.136000", "095446.139000", "095446.142000", "095446.145000", "095446.148000", "095446.151000", "095446.154000", "095446.156000", "095446.159000", "095520.057000", "095520.060000", "095520.063000", "095520.066000", "095520.069000", "095520.072000", "095520.075000", "095520.077000", "095520.080000", "095520.083000", "095520.086000", "095520.089000", "095520.092000", "095520.095000", "095520.098000", "095520.101000", "095520.104000", "095520.107000", "095520.110000", "095520.113000", "095520.116000", "095520.119000", "095520.122000"],
      "InstanceNumber": [1, 2, 3, 4, 5, 6, 7, 8, 9, 10, 11, 12, 13, 14, 15, 16, 17, 18, 19, 20, 21, 22, 23, 24, 25, 26, 27, 28, 29, 30, 31, 32, 33, 34, 35, 36, 37, 38, 39, 40, 41, 42, 43, 44, 45, 46, 47, 48, 49, 50, 51, 52, 53, 54, 55, 56, 57, 58, 59, 60, 61, 62, 63, 64, 65, 66, 67, 68, 69, 70, 71, 72, 73, 74, 75, 76, 77, 78, 79, 80, 81, 82, 83, 84, 85, 86, 87, 88, 89, 90, 91, 92, 93, 94, 95, 96, 97, 98, 99, 100, 101, 102, 103, 104, 105, 106, 107, 108, 109, 110, 111, 112, 113, 114, 115, 116, 117, 118, 119, 120, 121, 122, 123, 124, 125, 126, 127, 128, 129, 130, 131, 132, 133, 134, 135, 136, 137, 138, 139, 140, 141, 142, 143, 144, 145, 146, 147, 148, 149, 150, 151, 152, 153, 154, 155, 156, 157, 158, 159, 160, 161, 162, 163, 164, 165, 166, 167, 168, 169, 170, 171, 172, 173, 174, 175, 176, 177, 178, 179, 180, 181, 182, 183, 184, 185, 186, 187, 188, 189, 190, 191, 192, 193, 194, 195, 196, 197, 198, 199, 200, 201, 202],
      "LargestImagePixelValue": [44755, 43745, 43701, 42495, 42348, 42037, 41812, 41778, 41815, 41945, 42294, 41849, 42079, 42018, 42489, 41852, 42159, 41976, 42023, 42307, 42211, 41736, 42247, 42276, 42333, 41794, 41531, 41850, 41919, 42410, 42167, 42385, 42451, 42318, 42656, 42508, 42361, 42266, 42476, 42213, 42695, 42280, 42280, 42599, 42356, 42553, 42639, 42909, 42743, 42649, 42846, 42880, 42885, 42685, 42449, 42566, 42313, 42689, 42546, 42302, 42101, 41787, 41619, 42213, 41449, 42229, 42224, 41746, 41457, 41916, 42010, 41814, 41873, 41947, 42079, 41523, 42421, 42385, 42951, 42502, 42220, 42259, 42160, 42272, 42508, 42655, 42427, 41724, 42456, 42789, 42589, 42533, 42027, 41940, 41686, 41534, 42322, 42646, 42564, 41616, 40982, 41619, 41137, 41612, 41844, 42326, 40854, 41398, 42406, 41502, 42161, 41725, 41472, 42050, 41316, 41267, 41635, 40610, 41423, 41936, 40704, 41431, 41748, 40638, 41460, 41644, 40606, 41326, 41338, 40624, 41022, 41584, 40889, 41134, 41176, 40788, 41683, 40893, 40717, 41149, 40448, 40689, 41341, 41922, 41306, 41345, 41191, 40747, 41157, 41717, 41173, 41237, 41755, 41393, 41513, 41705, 41112, 41014, 40847, 40685, 41147, 40803, 40973, 41874, 41546, 40940, 41022, 41738, 41321, 41018, 41449, 41024, 40574, 41597, 41859, 41921, 41168, 41322, 41619, 40815, 41453, 41639, 41674, 41692, 42273, 41526, 41557, 41898, 41440, 41248, 40534, 41720, 41705, 41112, 41026, 40557, 41491, 40672, 40778, 41173, 41879, 41695],
      "WindowCenter": [10099.0, 10049.0, 10038.0, 10016.0, 10001.0, 9991.0, 9996.0, 10012.0, 10030.0, 10024.0, 10028.0, 10023.0, 10037.0, 10041.0, 10045.0, 10032.0, 10024.0, 10023.0, 10014.0, 10005.0, 10004.0, 10005.0, 10004.0, 9996.0, 9989.0, 9988.0, 9989.0, 10001.0, 10004.0, 10019.0, 10014.0, 10019.0, 10013.0, 10013.0, 10026.0, 10021.0, 10015.0, 10012.0, 10012.0, 10013.0, 10019.0, 10020.0, 10014.0, 10018.0, 10014.0, 10012.0, 10003.0, 10003.0, 10010.0, 10013.0, 10021.0, 10020.0, 10020.0, 10014.0, 10017.0, 10019.0, 10023.0, 10028.0, 10028.0, 10024.0, 10029.0, 10045.0, 10051.0, 10073.0, 10038.0, 10010.0, 9991.0, 9983.0, 9987.0, 9988.0, 10004.0, 10005.0, 10004.0, 10005.0, 10006.0, 10007.0, 10024.0, 10037.0, 10035.0, 10013.0, 9997.0, 9994.0, 9994.0, 9997.0, 9997.0, 9990.0, 9988.0, 9983.0, 10009.0, 10033.0, 10016.0, 10004.0, 9988.0, 9982.0, 9984.0, 9999.0, 10007.0, 10000.0, 9993.0, 9984.0, 9986.0, 10018.0, 10022.0, 10018.0, 10009.0, 10008.0, 10005.0, 10014.0, 10024.0, 10004.0, 9994.0, 9987.0, 9994.0, 9999.0, 9989.0, 9994.0, 9994.0, 9989.0, 9994.0, 10001.0, 9997.0, 10003.0, 10011.0, 10007.0, 10019.0, 10013.0, 10014.0, 10021.0, 10014.0, 10000.0, 10005.0, 10013.0, 10006.0, 10012.0, 10007.0, 10001.0, 10012.0, 10012.0, 10009.0, 10014.0, 10008.0, 10001.0, 10011.0, 10013.0, 9991.0, 9980.0, 9979.0, 9980.0, 9995.0, 9996.0, 9989.0, 9995.0, 10001.0, 10002.0, 10016.0, 10019.0, 10014.0, 10008.0, 10007.0, 10007.0, 10007.0, 9999.0, 9998.0, 10002.0, 9996.0, 9996.0, 9997.0, 10003.0, 9997.0, 9997.0, 10009.0, 10011.0, 10029.0, 10054.0, 10055.0, 10033.0, 10005.0, 9988.0, 9986.0, 9973.0, 9986.0, 9993.0, 9994.0, 9979.0, 9983.0, 9978.0, 9986.0, 9993.0, 10000.0, 9995.0, 9991.0, 10006.0, 10015.0, 10008.0, 10000.0, 9993.0, 10012.0, 10016.0, 10017.0, 10016.0, 10015.0, 10014.0],
      "WindowWidth": [21709.0, 21560.0, 21509.0, 21450.0, 21413.0, 21387.0, 21393.0, 21427.0, 21467.0, 21456.0, 21458.0, 21450.0, 21478.0, 21488.0, 21497.0, 21472.0, 21453.0, 21447.0, 21427.0, 21406.0, 21402.0, 21408.0, 21402.0, 21384.0, 21371.0, 21369.0, 21372.0, 21397.0, 21407.0, 21436.0, 21429.0, 21438.0, 21424.0, 21426.0, 21448.0, 21440.0, 21429.0, 21422.0, 21420.0, 21424.0, 21435.0, 21440.0, 21428.0, 21433.0, 21427.0, 21421.0, 21401.0, 21403.0, 21419.0, 21426.0, 21442.0, 21439.0, 21441.0, 21426.0, 21428.0, 21432.0, 21447.0, 21455.0, 21456.0, 21450.0, 21457.0, 21493.0, 21512.0, 21556.0, 21485.0, 21418.0, 21374.0, 21358.0, 21365.0, 21368.0, 21405.0, 21407.0, 21402.0, 21405.0, 21406.0, 21410.0, 21442.0, 21476.0, 21471.0, 21423.0, 21388.0, 21379.0, 21377.0, 21387.0, 21388.0, 21372.0, 21367.0, 21360.0, 21410.0, 21464.0, 21431.0, 21400.0, 21365.0, 21352.0, 21359.0, 21390.0, 21406.0, 21394.0, 21381.0, 21362.0, 21368.0, 21437.0, 21451.0, 21439.0, 21416.0, 21411.0, 21410.0, 21429.0, 21446.0, 21406.0, 21384.0, 21372.0, 21383.0, 21395.0, 21380.0, 21385.0, 21385.0, 21375.0, 21382.0, 21398.0, 21391.0, 21405.0, 21423.0, 21419.0, 21439.0, 21429.0, 21433.0, 21445.0, 21434.0, 21405.0, 21409.0, 21427.0, 21415.0, 21424.0, 21418.0, 21406.0, 21425.0, 21428.0, 21424.0, 21432.0, 21422.0, 21405.0, 21424.0, 21429.0, 21382.0, 21353.0, 21351.0, 21357.0, 21385.0, 21388.0, 21375.0, 21384.0, 21400.0, 21405.0, 21431.0, 21439.0, 21430.0, 21419.0, 21416.0, 21415.0, 21415.0, 21399.0, 21396.0, 21398.0, 21390.0, 21391.0, 21391.0, 21406.0, 21396.0, 21391.0, 21416.0, 21423.0, 21461.0, 21520.0, 21524.0, 21473.0, 21410.0, 21371.0, 21365.0, 21342.0, 21364.0, 21381.0, 21382.0, 21353.0, 21358.0, 21350.0, 21366.0, 21379.0, 21394.0, 21387.0, 21382.0, 21415.0, 21435.0, 21420.0, 21402.0, 21389.0, 21427.0, 21441.0, 21441.0, 21436.0, 21432.0, 21430.0]
    },
    "slices": {}
  }
}