{
  "AcquisitionMatrixPE": 104,
  "AcquisitionNumber": 1,
  "AcquisitionTime": "10:31:50.875000",
  "BandwidthPerPixelPhaseEncode": 17.17,
  "BaseResolution": 104,
  "BodyPartExamined": "BRAIN",
  "CoilString": "HC1-7;NC1_2",
  "ConsistencyInfo": "N4_VE11C_LATEST_20160120",
  "ConversionSoftware": "dcm2niix",
  "ConversionSoftwareVersion": "v1.0.20200427",
  "DerivedVendorReportedEchoSpacing": 0.000560011,
  "DeviceSerialNumber": "167006",
  "DwellTime": 2.1e-06,
  "EchoTime": 0.037,
  "EchoTrainLength": 104,
  "EffectiveEchoSpacing": 0.000560011,
  "FlipAngle": 52,
  "ImageComments": "Unaliased_MB4_PE3_LB",
  "ImageOrientationPatientDICOM": [0.998781, -0.0490369, 0.00565131, 0.0472761, 0.917369, -0.39522],
  "ImageType": [
    "ORIGINAL",
    "PRIMARY",
    "M",
    "MB",
    "ND",
    "MOSAIC"
],
  "ImagingFrequency": 123.259,
  "InPlanePhaseEncodingDirectionDICOM": "COL",
  "InstitutionAddress": "Chemin_Queen-Mary_4565_Montreal_District_CA_H3W_1W5",
  "InstitutionName": "IUGM",
  "InstitutionalDepartmentName": "Department",
  "MRAcquisitionType": "2D",
  "MagneticFieldStrength": 3,
  "Manufacturer": "Siemens",
  "ManufacturersModelName": "Prisma_fit",
  "Modality": "MR",
  "MultibandAccelerationFactor": 4,
  "PartialFourier": 1,
  "PatientPosition": "HFS",
  "PercentPhaseFOV": 100,
  "PercentSampling": 100,
  "PhaseEncodingDirection": "j",
  "PhaseEncodingSteps": 104,
  "PhaseResolution": 1,
  "PixelBandwidth": 2290,
  "ProcedureStepDescription": "hcptrt_generic",
  "ProtocolName": "func_task-wm_run-2",
  "PulseSequenceDetails": "%CustomerSeq%_cmrr_mbep2d_bold",
  "ReceiveCoilActiveElements": "HC1-7;NC1,2",
  "ReceiveCoilName": "HeadNeck_64",
  "ReconMatrixPE": 104,
  "RepetitionTime": 1.49,
  "SAR": 0.028737,
  "ScanOptions": "FS",
  "ScanningSequence": "EP",
  "SequenceName": "epfid2d1_104",
  "SequenceVariant": "SK_SS",
  "SeriesDescription": "func_task-wm_run-2",
  "SeriesNumber": 33,
  "ShimSetting": [631, -7248, -8867, 598, 0, -244, -125, -15],
  "SliceThickness": 2,
  "SliceTiming": [0, 0.785, 0.1, 0.8825, 0.1975, 0.98, 0.295, 1.0775, 0.3925, 1.1775, 0.49, 1.275, 0.59, 1.3725, 0.6875, 0, 0.785, 0.1, 0.8825, 0.1975, 0.98, 0.295, 1.0775, 0.3925, 1.1775, 0.49, 1.275, 0.59, 1.3725, 0.6875, 0, 0.785, 0.1, 0.8825, 0.1975, 0.98, 0.295, 1.0775, 0.3925, 1.1775, 0.49, 1.275, 0.59, 1.3725, 0.6875, 0, 0.785, 0.1, 0.8825, 0.1975, 0.98, 0.295, 1.0775, 0.3925, 1.1775, 0.49, 1.275, 0.59, 1.3725, 0.6875],
  "SoftwareVersions": "syngo_MR_E11",
  "SpacingBetweenSlices": 2,
  "StationName": "MRC35049",
  "TaskName": "wm",
  "TotalReadoutTime": 0.0576811,
  "TxRefAmp": 218.088,
  "WipMemBlock": "4529edac-8128-4e2c-aec6-13a0b41c743b||Sequence: R016 ve11c/master r/e634e98; Dec 19 2017 11:00:25 by eja",
  "dcmmeta_affine": [
    [-1.9975619316101074, 0.0945521742105484, -0.028392063453793526, 102.3973388671875],
    [0.0980738177895546, 1.8347382545471191, -0.7900106906890869, -64.61471557617188],
    [0.011302612721920013, 0.7904399633407593, 1.8371381759643555, -82.33715057373047],
    [0.0, 0.0, 0.0, 1.0]
],
  "dcmmeta_reorient_transform": [
    [0.0, -1.0, 0.0, 103.0],
    [1.0, 0.0, 0.0, 0.0],
    [0.0, 0.0, 1.0, 0.0],
    [0.0, 0.0, 0.0, 1.0]
],
  "dcmmeta_shape": [104, 104, 60, 202],
  "dcmmeta_slice_dim": 2,
  "dcmmeta_version": 0.6,
  "global": {
    "const": {
      "AcquisitionMatrix": [104, 0, 0, 104],
      "AngioFlag": "N",
      "BitsAllocated": 16,
      "BitsStored": 16,
      "BodyPartExamined": "BRAIN",
      "Columns": 832,
      "EchoNumbers": 1,
      "EchoTime": 37.0,
      "EchoTrainLength": 104,
      "FlipAngle": 52.0,
      "HighBit": 15,
      "ImageOrientationPatient": [0.99878097915637, -0.0490369086805, 0.00565130626449, 0.04727608655929, 0.917369143644, -0.3952199715722],
      "ImagePositionPatient": [-873.66575972707, -756.50919362904, 282.68415214952],
      "ImageType": [
        "ORIGINAL",
        "PRIMARY",
        "M",
        "MB",
        "ND",
        "MOSAIC"
],
      "ImagedNucleus": "1H",
      "ImagingFrequency": 123.259067,
      "InPlanePhaseEncodingDirection": "COL",
      "MRAcquisitionType": "2D",
      "MagneticFieldStrength": 3.0,
      "Manufacturer": "SIEMENS",
      "ManufacturerModelName": "Prisma_fit",
      "Modality": "MR",
      "NumberOfAverages": 1.0,
      "NumberOfPhaseEncodingSteps": 104,
      "PercentPhaseFieldOfView": 100.0,
      "PercentSampling": 100.0,
      "PerformedProcedureStepStartTime": "093014.698000",
      "PhotometricInterpretation": "MONOCHROME2",
      "PixelBandwidth": 2290.0,
      "PixelRepresentation": 0,
      "PixelSpacing": [2.0, 2.0],
      "ProtocolName": "func_task-wm_run-2",
      "RepetitionTime": 1490.0,
      "Rows": 832,
      "SAR": 0.02873704583816,
      "SamplesPerPixel": 1,
      "ScanOptions": "FS",
      "ScanningSequence": "EP",
      "SequenceName": "epfid2d1_104",
      "SequenceVariant": [
        "SK",
        "SS"
],
      "SeriesDescription": "func_task-wm_run-2",
      "SeriesNumber": 33,
      "SeriesTime": "103306.097000",
      "SliceLocation": -51.562840350691,
      "SliceThickness": 2.0,
      "SmallestImagePixelValue": 0,
      "SoftwareVersions": "syngo MR E11",
      "SpacingBetweenSlices": 1.9999999653148,
      "SpecificCharacterSet": "ISO_IR 100",
      "StudyID": "1",
      "StudyTime": "093014.575000",
      "TransmitCoilName": "Body",
      "VariableFlipAngleFlag": "N",
      "WindowCenterWidthExplanation": "Algo1",
      "dBdt": 0.0},
    "slices": {}
  },
  "time": {
    "samples": {
      "AcquisitionNumber": [1, 2, 3, 4, 5, 6, 7, 8, 9, 10, 11, 12, 13, 14, 15, 16, 17, 18, 19, 20, 21, 22, 23, 24, 25, 26, 27, 28, 29, 30, 31, 32, 33, 34, 35, 36, 37, 38, 39, 40, 41, 42, 43, 44, 45, 46, 47, 48, 49, 50, 51, 52, 53, 54, 55, 56, 57, 58, 59, 60, 61, 62, 63, 64, 65, 66, 67, 68, 69, 70, 71, 72, 73, 74, 75, 76, 77, 78, 79, 80, 81, 82, 83, 84, 85, 86, 87, 88, 89, 90, 91, 92, 93, 94, 95, 96, 97, 98, 99, 100, 101, 102, 103, 104, 105, 106, 107, 108, 109, 110, 111, 112, 113, 114, 115, 116, 117, 118, 119, 120, 121, 122, 123, 124, 125, 126, 127, 128, 129, 130, 131, 132, 133, 134, 135, 136, 137, 138, 139, 140, 141, 142, 143, 144, 145, 146, 147, 148, 149, 150, 151, 152, 153, 154, 155, 156, 157, 158, 159, 160, 161, 162, 163, 164, 165, 166, 167, 168, 169, 170, 171, 172, 173, 174, 175, 176, 177, 178, 179, 180, 181, 182, 183, 184, 185, 186, 187, 188, 189, 190, 191, 192, 193, 194, 195, 196, 197, 198, 199, 200, 201, 202],
      "AcquisitionTime": ["103150.875000", "103152.365000", "103153.855000", "103155.345000", "103156.835000", "103158.325000", "103159.815000", "103201.305000", "103202.795000", "103204.285000", "103205.775000", "103207.265000", "103208.755000", "103210.245000", "103211.735000", "103213.225000", "103214.715000", "103216.205000", "103217.695000", "103219.185000", "103220.675000", "103222.165000", "103223.655000", "103225.145000", "103226.635000", "103228.125000", "103229.615000", "103231.105000", "103232.595000", "103234.085000", "103235.575000", "103237.065000", "103238.555000", "103240.045000", "103241.535000", "103243.025000", "103244.515000", "103246.005000", "103247.495000", "103248.985000", "103250.475000", "103251.965000", "103253.455000", "103254.945000", "103256.435000", "103257.925000", "103259.415000", "103300.905000", "103302.395000", "103303.885000", "103305.375000", "103306.865000", "103308.355000", "103309.845000", "103311.335000", "103312.825000", "103314.315000", "103315.805000", "103317.295000", "103318.785000", "103320.275000", "103321.765000", "103323.255000", "103324.745000", "103326.235000", "103327.725000", "103329.215000", "103330.705000", "103332.195000", "103333.685000", "103335.175000", "103336.665000", "103338.155000", "103339.645000", "103341.135000", "103342.625000", "103344.115000", "103345.605000", "103347.095000", "103348.585000", "103350.075000", "103351.565000", "103353.055000", "103354.545000", "103356.035000", "103357.525000", "103359.015000", "103400.505000", "103401.995000", "103403.485000", "103404.975000", "103406.465000", "103407.955000", "103409.445000", "103410.935000", "103412.425000", "103413.915000", "103415.405000", "103416.895000", "103418.385000", "103419.875000", "103421.365000", "103422.855000", "103424.345000", "103425.835000", "103427.325000", "103428.815000", "103430.305000", "103431.795000", "103433.285000", "103434.775000", "103436.265000", "103437.755000", "103439.245000", "103440.735000", "103442.225000", "103443.715000", "103445.205000", "103446.695000", "103448.185000", "103449.675000", "103451.165000", "103452.655000", "103454.145000", "103455.635000", "103457.125000", "103458.615000", "103500.105000", "103501.595000", "103503.085000", "103504.575000", "103506.065000", "103507.555000", "103509.045000", "103510.535000", "103512.025000", "103513.515000", "103515.005000", "103516.495000", "103517.985000", "103519.475000", "103520.965000", "103522.455000", "103523.945000", "103525.435000", "103526.925000", "103528.415000", "103529.905000", "103531.395000", "103532.885000", "103534.375000", "103535.865000", "103537.355000", "103538.845000", "103540.335000", "103541.825000", "103543.315000", "103544.805000", "103546.295000", "103547.785000", "103549.275000", "103550.765000", "103552.255000", "103553.745000", "103555.235000", "103556.725000", "103558.215000", "103559.705000", "103601.195000", "103602.685000", "103604.175000", "103605.665000", "103607.155000", "103608.645000", "103610.135000", "103611.625000", "103613.115000", "103614.605000", "103616.095000", "103617.585000", "103619.075000", "103620.565000", "103622.055000", "103623.545000", "103625.035000", "103626.525000", "103628.015000", "103629.505000", "103630.995000", "103632.485000", "103633.975000", "103635.465000", "103636.955000", "103638.445000", "103639.935000", "103641.425000", "103642.915000", "103644.405000", "103645.895000", "103647.385000", "103648.875000", "103650.365000"],
      "ContentTime": ["103306.100000", "103306.103000", "103306.106000", "103306.109000", "103306.112000", "103306.115000", "103306.118000", "103306.121000", "103306.129000", "103306.132000", "103306.135000", "103306.137000", "103306.140000", "103306.143000", "103306.146000", "103306.149000", "103306.152000", "103306.155000", "103306.158000", "103306.161000", "103306.164000", "103306.167000", "103326.067000", "103326.070000", "103326.073000", "103326.076000", "103326.079000", "103326.082000", "103326.085000", "103326.088000", "103326.090000", "103326.093000", "103326.096000", "103326.099000", "103326.102000", "103326.105000", "103326.108000", "103326.111000", "103326.113000", "103326.116000", "103326.119000", "103326.122000", "103346.067000", "103346.070000", "103346.073000", "103346.076000", "103346.079000", "103346.081000", "103346.084000", "103346.087000", "103346.090000", "103346.093000", "103346.096000", "103346.099000", "103346.109000", "103346.112000", "103346.114000", "103346.117000", "103346.120000", "103346.123000", "103346.126000", "103346.129000", "103346.132000", "103426.067000", "103426.070000", "103426.073000", "103426.076000", "103426.079000", "103426.082000", "103426.085000", "103426.094000", "103426.097000", "103426.100000", "103426.103000", "103426.106000", "103426.109000", "103426.112000", "103426.115000", "103426.118000", "103426.121000", "103426.124000", "103426.127000", "103426.130000", "103426.132000", "103426.135000", "103426.138000", "103426.141000", "103426.144000", "103426.147000", "103426.150000", "103426.153000", "103426.156000", "103426.159000", "103426.161000", "103426.164000", "103426.167000", "103426.170000", "103426.173000", "103426.241000", "103426.244000", "103426.247000", "103426.249000", "103426.253000", "103506.068000", "103506.071000", "103506.074000", "103506.077000", "103506.080000", "103506.083000", "103506.086000", "103506.089000", "103506.091000", "103506.094000", "103506.097000", "103506.100000", "103506.103000", "103506.106000", "103506.109000", "103506.112000", "103506.115000", "103506.118000", "103506.129000", "103506.132000", "103506.135000", "103506.138000", "103506.141000", "103506.144000", "103506.146000", "103506.150000", "103506.152000", "103546.067000", "103546.070000", "103546.073000", "103546.076000", "103546.079000", "103546.082000", "103546.085000", "103546.087000", "103546.090000", "103546.093000", "103546.096000", "103546.099000", "103546.102000", "103546.105000", "103546.108000", "103546.111000", "103546.114000", "103546.117000", "103546.119000", "103546.122000", "103546.125000", "103546.128000", "103546.131000", "103546.134000", "103546.136000", "103546.139000", "103546.142000", "103626.067000", "103626.070000", "103626.073000", "103626.076000", "103626.079000", "103626.082000", "103626.085000", "103626.088000", "103626.090000", "103626.093000", "103626.096000", "103626.099000", "103626.102000", "103626.105000", "103626.108000", "103626.111000", "103626.114000", "103626.117000", "103626.120000", "103626.123000", "103626.125000", "103626.128000", "103626.131000", "103626.134000", "103626.137000", "103626.140000", "103626.143000", "103652.244000", "103652.248000", "103652.251000", "103652.254000", "103652.257000", "103652.260000", "103652.263000", "103652.266000", "103652.268000", "103652.271000", "103652.274000", "103652.277000", "103652.280000", "103652.283000", "103652.286000", "103652.289000", "103652.292000", "103652.295000"],
      "InstanceCreationTime": ["103306.100000", "103306.103000", "103306.106000", "103306.109000", "103306.112000", "103306.115000", "103306.118000", "103306.121000", "103306.129000", "103306.132000", "103306.135000", "103306.137000", "103306.140000", "103306.143000", "103306.146000", "103306.149000", "103306.152000", "103306.155000", "103306.158000", "103306.161000", "103306.164000", "103306.167000", "103326.067000", "103326.070000", "103326.073000", "103326.076000", "103326.079000", "103326.082000", "103326.085000", "103326.088000", "103326.090000", "103326.093000", "103326.096000", "103326.099000", "103326.102000", "103326.105000", "103326.108000", "103326.111000", "103326.113000", "103326.116000", "103326.119000", "103326.122000", "103346.067000", "103346.070000", "103346.073000", "103346.076000", "103346.079000", "103346.081000", "103346.084000", "103346.087000", "103346.090000", "103346.093000", "103346.096000", "103346.099000", "103346.109000", "103346.112000", "103346.114000", "103346.117000", "103346.120000", "103346.123000", "103346.126000", "103346.129000", "103346.132000", "103426.067000", "103426.070000", "103426.073000", "103426.076000", "103426.079000", "103426.082000", "103426.085000", "103426.094000", "103426.097000", "103426.100000", "103426.103000", "103426.106000", "103426.109000", "103426.112000", "103426.115000", "103426.118000", "103426.121000", "103426.124000", "103426.127000", "103426.130000", "103426.132000", "103426.135000", "103426.138000", "103426.141000", "103426.144000", "103426.147000", "103426.150000", "103426.153000", "103426.156000", "103426.159000", "103426.161000", "103426.164000", "103426.167000", "103426.170000", "103426.173000", "103426.241000", "103426.244000", "103426.247000", "103426.249000", "103426.253000", "103506.068000", "103506.071000", "103506.074000", "103506.077000", "103506.080000", "103506.083000", "103506.086000", "103506.089000", "103506.091000", "103506.094000", "103506.097000", "103506.100000", "103506.103000", "103506.106000", "103506.109000", "103506.112000", "103506.115000", "103506.118000", "103506.129000", "103506.132000", "103506.135000", "103506.138000", "103506.141000", "103506.144000", "103506.146000", "103506.150000", "103506.152000", "103546.067000", "103546.070000", "103546.073000", "103546.076000", "103546.079000", "103546.082000", "103546.085000", "103546.087000", "103546.090000", "103546.093000", "103546.096000", "103546.099000", "103546.102000", "103546.105000", "103546.108000", "103546.111000", "103546.114000", "103546.117000", "103546.119000", "103546.122000", "103546.125000", "103546.128000", "103546.131000", "103546.134000", "103546.136000", "103546.139000", "103546.142000", "103626.067000", "103626.070000", "103626.073000", "103626.076000", "103626.079000", "103626.082000", "103626.085000", "103626.088000", "103626.090000", "103626.093000", "103626.096000", "103626.099000", "103626.102000", "103626.105000", "103626.108000", "103626.111000", "103626.114000", "103626.117000", "103626.120000", "103626.123000", "103626.125000", "103626.128000", "103626.131000", "103626.134000", "103626.137000", "103626.140000", "103626.143000", "103652.244000", "103652.248000", "103652.251000", "103652.254000", "103652.257000", "103652.260000", "103652.263000", "103652.266000", "103652.268000", "103652.271000", "103652.274000", "103652.277000", "103652.280000", "103652.283000", "103652.286000", "103652.289000", "103652.292000", "103652.295000"],
      "InstanceNumber": [1, 2, 3, 4, 5, 6, 7, 8, 9, 10, 11, 12, 13, 14, 15, 16, 17, 18, 19, 20, 21, 22, 23, 24, 25, 26, 27, 28, 29, 30, 31, 32, 33, 34, 35, 36, 37, 38, 39, 40, 41, 42, 43, 44, 45, 46, 47, 48, 49, 50, 51, 52, 53, 54, 55, 56, 57, 58, 59, 60, 61, 62, 63, 64, 65, 66, 67, 68, 69, 70, 71, 72, 73, 74, 75, 76, 77, 78, 79, 80, 81, 82, 83, 84, 85, 86, 87, 88, 89, 90, 91, 92, 93, 94, 95, 96, 97, 98, 99, 100, 101, 102, 103, 104, 105, 106, 107, 108, 109, 110, 111, 112, 113, 114, 115, 116, 117, 118, 119, 120, 121, 122, 123, 124, 125, 126, 127, 128, 129, 130, 131, 132, 133, 134, 135, 136, 137, 138, 139, 140, 141, 142, 143, 144, 145, 146, 147, 148, 149, 150, 151, 152, 153, 154, 155, 156, 157, 158, 159, 160, 161, 162, 163, 164, 165, 166, 167, 168, 169, 170, 171, 172, 173, 174, 175, 176, 177, 178, 179, 180, 181, 182, 183, 184, 185, 186, 187, 188, 189, 190, 191, 192, 193, 194, 195, 196, 197, 198, 199, 200, 201, 202],
      "LargestImagePixelValue": [46142, 45125, 44157, 43718, 43073, 43246, 43634, 43337, 43429, 43559, 43366, 43381, 42752, 42734, 43412, 42925, 42561, 43448, 43652, 43193, 43091, 43434, 42866, 43087, 43862, 43099, 43378, 43500, 43208, 43419, 43388, 43544, 43740, 43109, 43690, 43171, 43383, 43166, 42904, 43209, 43257, 43942, 43415, 42854, 43134, 43076, 42720, 43244, 43389, 42767, 43972, 43539, 43428, 43137, 43328, 42762, 43609, 43370, 43306, 43462, 42858, 43294, 42942, 42932, 43431, 43119, 43507, 43186, 42678, 43198, 42933, 43346, 42727, 42850, 43283, 42888, 43034, 43590, 43077, 43459, 43491, 43231, 43443, 43098, 42994, 43337, 43003, 43215, 43001, 42961, 43080, 43344, 43166, 42975, 43155, 43153, 42973, 42822, 43273, 43379, 42809, 43101, 43507, 42723, 43235, 42552, 43053, 43438, 42646, 42968, 42837, 43130, 42815, 42546, 43413, 42588, 43300, 42697, 43287, 43179, 43130, 42907, 42590, 42948, 43389, 42851, 43020, 42687, 42234, 43171, 42824, 42700, 42675, 42374, 43082, 43009, 42543, 43059, 42746, 42373, 43125, 42518, 43035, 42893, 42350, 43180, 42996, 42057, 43049, 42945, 42540, 43010, 43374, 42594, 42989, 43090, 42434, 42977, 42628, 42394, 43026, 42912, 42270, 42793, 42604, 42624, 42465, 42300, 42664, 41727, 42164, 41779, 42224, 42720, 42143, 42310, 42361, 41787, 42429, 42107, 41703, 42181, 41622, 42283, 42033, 42373, 43014, 43263, 43019, 42282, 41094, 41952, 42012, 41958, 41967, 42395, 42657, 42523, 42358, 41638, 42020, 42134],
      "WindowCenter": [10076.0, 10038.0, 10003.0, 9991.0, 9991.0, 10013.0, 10022.0, 10023.0, 10027.0, 10028.0, 10026.0, 10019.0, 10005.0, 10005.0, 10020.0, 10029.0, 10026.0, 10006.0, 10001.0, 9993.0, 9985.0, 9991.0, 9994.0, 10009.0, 10014.0, 10000.0, 10000.0, 9991.0, 10000.0, 10017.0, 10025.0, 10032.0, 10024.0, 10012.0, 10015.0, 10010.0, 10015.0, 10008.0, 10003.0, 10001.0, 10000.0, 10005.0, 9998.0, 9992.0, 9992.0, 9999.0, 9993.0, 9992.0, 9993.0, 9994.0, 10004.0, 9998.0, 9998.0, 9999.0, 10006.0, 10008.0, 10014.0, 10013.0, 10007.0, 10012.0, 10007.0, 10007.0, 10001.0, 9999.0, 9983.0, 9974.0, 9979.0, 9981.0, 9983.0, 9984.0, 9984.0, 9983.0, 9991.0, 10001.0, 10007.0, 9991.0, 9985.0, 9999.0, 10013.0, 10022.0, 10024.0, 10010.0, 10000.0, 9993.0, 9985.0, 9991.0, 9991.0, 9984.0, 9983.0, 9976.0, 9981.0, 9976.0, 9974.0, 9968.0, 9976.0, 9983.0, 9985.0, 9980.0, 9985.0, 9998.0, 10000.0, 10001.0, 9993.0, 9986.0, 9998.0, 10002.0, 10010.0, 10009.0, 9996.0, 9995.0, 10001.0, 10007.0, 10005.0, 10003.0, 10006.0, 9996.0, 9994.0, 9995.0, 9993.0, 9991.0, 9985.0, 9977.0, 9979.0, 9985.0, 9999.0, 9996.0, 9988.0, 9972.0, 9964.0, 9974.0, 9977.0, 9980.0, 9974.0, 9974.0, 9987.0, 9988.0, 9990.0, 9996.0, 9998.0, 10000.0, 10006.0, 9999.0, 9998.0, 10000.0, 10008.0, 10023.0, 10010.0, 9993.0, 9990.0, 9983.0, 9980.0, 9986.0, 10009.0, 9999.0, 9990.0, 9980.0, 9972.0, 9978.0, 9981.0, 9981.0, 9974.0, 9974.0, 9974.0, 9981.0, 9996.0, 9998.0, 9999.0, 10008.0, 10015.0, 10005.0, 10003.0, 10002.0, 10024.0, 10039.0, 10020.0, 10012.0, 9994.0, 9987.0, 9984.0, 9984.0, 9978.0, 9983.0, 9988.0, 9999.0, 9995.0, 9997.0, 10012.0, 10013.0, 9992.0, 9965.0, 9937.0, 9932.0, 9940.0, 9940.0, 9934.0, 9941.0, 9956.0, 9966.0, 9975.0, 9993.0, 10019.0, 10036.0],
      "WindowWidth": [21661.0, 21543.0, 21445.0, 21405.0, 21401.0, 21443.0, 21461.0, 21461.0, 21463.0, 21466.0, 21460.0, 21445.0, 21418.0, 21415.0, 21449.0, 21470.0, 21467.0, 21420.0, 21404.0, 21388.0, 21372.0, 21383.0, 21393.0, 21422.0, 21432.0, 21402.0, 21401.0, 21383.0, 21406.0, 21443.0, 21463.0, 21475.0, 21458.0, 21434.0, 21437.0, 21428.0, 21437.0, 21421.0, 21411.0, 21409.0, 21406.0, 21414.0, 21401.0, 21389.0, 21390.0, 21405.0, 21394.0, 21390.0, 21392.0, 21396.0, 21410.0, 21400.0, 21400.0, 21405.0, 21419.0, 21426.0, 21437.0, 21432.0, 21420.0, 21430.0, 21420.0, 21421.0, 21412.0, 21404.0, 21368.0, 21346.0, 21354.0, 21363.0, 21370.0, 21373.0, 21373.0, 21369.0, 21384.0, 21409.0, 21420.0, 21389.0, 21376.0, 21406.0, 21434.0, 21454.0, 21460.0, 21432.0, 21408.0, 21393.0, 21375.0, 21386.0, 21388.0, 21370.0, 21369.0, 21353.0, 21360.0, 21355.0, 21348.0, 21336.0, 21355.0, 21369.0, 21377.0, 21366.0, 21371.0, 21399.0, 21406.0, 21408.0, 21390.0, 21376.0, 21399.0, 21411.0, 21426.0, 21426.0, 21400.0, 21397.0, 21408.0, 21419.0, 21420.0, 21413.0, 21415.0, 21397.0, 21392.0, 21396.0, 21390.0, 21384.0, 21370.0, 21355.0, 21359.0, 21371.0, 21400.0, 21398.0, 21379.0, 21345.0, 21328.0, 21343.0, 21352.0, 21361.0, 21350.0, 21352.0, 21375.0, 21380.0, 21384.0, 21394.0, 21403.0, 21407.0, 21418.0, 21406.0, 21403.0, 21410.0, 21426.0, 21457.0, 21433.0, 21396.0, 21384.0, 21368.0, 21361.0, 21371.0, 21423.0, 21404.0, 21384.0, 21362.0, 21345.0, 21357.0, 21365.0, 21365.0, 21351.0, 21350.0, 21350.0, 21367.0, 21397.0, 21403.0, 21408.0, 21427.0, 21442.0, 21424.0, 21420.0, 21416.0, 21461.0, 21493.0, 21458.0, 21437.0, 21398.0, 21383.0, 21374.0, 21374.0, 21364.0, 21372.0, 21386.0, 21409.0, 21404.0, 21404.0, 21433.0, 21438.0, 21392.0, 21331.0, 21271.0, 21257.0, 21273.0, 21275.0, 21263.0, 21278.0, 21308.0, 21333.0, 21355.0, 21397.0, 21451.0, 21486.0]
    },
    "slices": {}
  }
}