{
  "AcquisitionMatrixPE": 104,
  "AcquisitionNumber": 1,
  "AcquisitionTime": "09:45:6.667500",
  "BandwidthPerPixelPhaseEncode": 17.17,
  "BaseResolution": 104,
  "BodyPartExamined": "BRAIN",
  "CoilString": "HC1-7;NC1_2",
  "ConsistencyInfo": "N4_VE11C_LATEST_20160120",
  "ConversionSoftware": "dcm2niix",
  "ConversionSoftwareVersion": "v1.0.20200427",
  "DerivedVendorReportedEchoSpacing": 0.000560011,
  "DeviceSerialNumber": "167006",
  "DwellTime": 2.1e-06,
  "EchoTime": 0.037,
  "EchoTrainLength": 104,
  "EffectiveEchoSpacing": 0.000560011,
  "FlipAngle": 52,
  "ImageComments": "Unaliased_MB4_PE3_LB",
  "ImageOrientationPatientDICOM": [0.998781, -0.0490369, 0.00565131, 0.0472761, 0.917369, -0.39522],
  "ImageType": [
    "ORIGINAL",
    "PRIMARY",
    "M",
    "MB",
    "ND",
    "MOSAIC"
],
  "ImagingFrequency": 123.259,
  "InPlanePhaseEncodingDirectionDICOM": "COL",
  "InstitutionAddress": "Chemin_Queen-Mary_4565_Montreal_District_CA_H3W_1W5",
  "InstitutionName": "IUGM",
  "InstitutionalDepartmentName": "Department",
  "MRAcquisitionType": "2D",
  "MagneticFieldStrength": 3,
  "Manufacturer": "Siemens",
  "ManufacturersModelName": "Prisma_fit",
  "Modality": "MR",
  "MultibandAccelerationFactor": 4,
  "PartialFourier": 1,
  "PatientPosition": "HFS",
  "PercentPhaseFOV": 100,
  "PercentSampling": 100,
  "PhaseEncodingDirection": "j",
  "PhaseEncodingSteps": 104,
  "PhaseResolution": 1,
  "PixelBandwidth": 2290,
  "ProcedureStepDescription": "hcptrt_generic",
  "ProtocolName": "func_task-gambling_run-1",
  "PulseSequenceDetails": "%CustomerSeq%_cmrr_mbep2d_bold",
  "ReceiveCoilActiveElements": "HC1-7;NC1,2",
  "ReceiveCoilName": "HeadNeck_64",
  "ReconMatrixPE": 104,
  "RepetitionTime": 1.49,
  "SAR": 0.028586,
  "ScanOptions": "FS",
  "ScanningSequence": "EP",
  "SequenceName": "epfid2d1_104",
  "SequenceVariant": "SK_SS",
  "SeriesDescription": "func_task-gambling_run-1",
  "SeriesNumber": 13,
  "ShimSetting": [631, -7248, -8867, 596, 0, -243, -125, -15],
  "SliceThickness": 2,
  "SliceTiming": [0, 0.785, 0.0975, 0.8825, 0.195, 0.98, 0.295, 1.0775, 0.3925, 1.175, 0.49, 1.2725, 0.5875, 1.3725, 0.685, 0, 0.785, 0.0975, 0.8825, 0.195, 0.98, 0.295, 1.0775, 0.3925, 1.175, 0.49, 1.2725, 0.5875, 1.3725, 0.685, 0, 0.785, 0.0975, 0.8825, 0.195, 0.98, 0.295, 1.0775, 0.3925, 1.175, 0.49, 1.2725, 0.5875, 1.3725, 0.685, 0, 0.785, 0.0975, 0.8825, 0.195, 0.98, 0.295, 1.0775, 0.3925, 1.175, 0.49, 1.2725, 0.5875, 1.3725, 0.685],
  "SoftwareVersions": "syngo_MR_E11",
  "SpacingBetweenSlices": 2,
  "StationName": "MRC35049",
  "TaskName": "gambling",
  "TotalReadoutTime": 0.0576811,
  "TxRefAmp": 218.088,
  "WipMemBlock": "f42c5e79-16dd-42e0-9077-2b6fa463a8a8||Sequence: R016 ve11c/master r/e634e98; Dec 19 2017 11:00:25 by eja",
  "dcmmeta_affine": [
    [-1.9975619316101074, 0.0945521742105484, -0.028392063453793526, 102.3973388671875],
    [0.0980738177895546, 1.8347382545471191, -0.7900106906890869, -64.61471557617188],
    [0.011302612721920013, 0.7904399633407593, 1.8371381759643555, -82.33715057373047],
    [0.0, 0.0, 0.0, 1.0]
],
  "dcmmeta_reorient_transform": [
    [0.0, -1.0, 0.0, 103.0],
    [1.0, 0.0, 0.0, 0.0],
    [0.0, 0.0, 1.0, 0.0],
    [0.0, 0.0, 0.0, 1.0]
],
  "dcmmeta_shape": [104, 104, 60, 129],
  "dcmmeta_slice_dim": 2,
  "dcmmeta_version": 0.6,
  "global": {
    "const": {
      "AcquisitionMatrix": [104, 0, 0, 104],
      "AngioFlag": "N",
      "BitsAllocated": 16,
      "BitsStored": 16,
      "BodyPartExamined": "BRAIN",
      "Columns": 832,
      "EchoNumbers": 1,
      "EchoTime": 37.0,
      "EchoTrainLength": 104,
      "FlipAngle": 52.0,
      "HighBit": 15,
      "ImageOrientationPatient": [0.99878097915637, -0.0490369086805, 0.00565130626449, 0.04727608655929, 0.917369143644, -0.3952199715722],
      "ImagePositionPatient": [-873.66575972707, -756.50919362904, 282.68415214952],
      "ImageType": [
        "ORIGINAL",
        "PRIMARY",
        "M",
        "MB",
        "ND",
        "MOSAIC"
],
      "ImagedNucleus": "1H",
      "ImagingFrequency": 123.259053,
      "InPlanePhaseEncodingDirection": "COL",
      "MRAcquisitionType": "2D",
      "MagneticFieldStrength": 3.0,
      "Manufacturer": "SIEMENS",
      "ManufacturerModelName": "Prisma_fit",
      "Modality": "MR",
      "NumberOfAverages": 1.0,
      "NumberOfPhaseEncodingSteps": 104,
      "PercentPhaseFieldOfView": 100.0,
      "PercentSampling": 100.0,
      "PerformedProcedureStepStartTime": "093014.698000",
      "PhotometricInterpretation": "MONOCHROME2",
      "PixelBandwidth": 2290.0,
      "PixelRepresentation": 0,
      "PixelSpacing": [2.0, 2.0],
      "ProtocolName": "func_task-gambling_run-1",
      "RepetitionTime": 1490.0,
      "Rows": 832,
      "SAR": 0.02858604116646,
      "SamplesPerPixel": 1,
      "ScanOptions": "FS",
      "ScanningSequence": "EP",
      "SequenceName": "epfid2d1_104",
      "SequenceVariant": [
        "SK",
        "SS"
],
      "SeriesDescription": "func_task-gambling_run-1",
      "SeriesNumber": 13,
      "SeriesTime": "094625.133000",
      "SliceLocation": -51.562840350691,
      "SliceThickness": 2.0,
      "SmallestImagePixelValue": 0,
      "SoftwareVersions": "syngo MR E11",
      "SpacingBetweenSlices": 1.9999999653148,
      "SpecificCharacterSet": "ISO_IR 100",
      "StudyID": "1",
      "StudyTime": "093014.575000",
      "TransmitCoilName": "Body",
      "VariableFlipAngleFlag": "N",
      "WindowCenterWidthExplanation": "Algo1",
      "dBdt": 0.0},
    "slices": {}
  },
  "time": {
    "samples": {
      "AcquisitionNumber": [1, 2, 3, 4, 5, 6, 7, 8, 9, 10, 11, 12, 13, 14, 15, 16, 17, 18, 19, 20, 21, 22, 23, 24, 25, 26, 27, 28, 29, 30, 31, 32, 33, 34, 35, 36, 37, 38, 39, 40, 41, 42, 43, 44, 45, 46, 47, 48, 49, 50, 51, 52, 53, 54, 55, 56, 57, 58, 59, 60, 61, 62, 63, 64, 65, 66, 67, 68, 69, 70, 71, 72, 73, 74, 75, 76, 77, 78, 79, 80, 81, 82, 83, 84, 85, 86, 87, 88, 89, 90, 91, 92, 93, 94, 95, 96, 97, 98, 99, 100, 101, 102, 103, 104, 105, 106, 107, 108, 109, 110, 111, 112, 113, 114, 115, 116, 117, 118, 119, 120, 121, 122, 123, 124, 125, 126, 127, 128, 129],
      "AcquisitionTime": ["094506.667500", "094508.157500", "094509.647500", "094511.137500", "094512.627500", "094514.117500", "094515.607500", "094517.097500", "094518.587500", "094520.077500", "094521.567500", "094523.057500", "094524.547500", "094526.037500", "094527.527500", "094529.017500", "094530.507500", "094531.997500", "094533.487500", "094534.977500", "094536.467500", "094537.957500", "094539.447500", "094540.937500", "094542.427500", "094543.917500", "094545.407500", "094546.897500", "094548.387500", "094549.877500", "094551.367500", "094552.857500", "094554.347500", "094555.837500", "094557.327500", "094558.817500", "094600.307500", "094601.797500", "094603.287500", "094604.777500", "094606.267500", "094607.757500", "094609.247500", "094610.737500", "094612.227500", "094613.717500", "094615.207500", "094616.697500", "094618.187500", "094619.677500", "094621.167500", "094622.657500", "094624.147500", "094625.637500", "094627.127500", "094628.617500", "094630.107500", "094631.597500", "094633.087500", "094634.577500", "094636.067500", "094637.557500", "094639.047500", "094640.537500", "094642.027500", "094643.517500", "094645.007500", "094646.497500", "094647.987500", "094649.477500", "094650.967500", "094652.457500", "094653.947500", "094655.437500", "094656.927500", "094658.417500", "094659.907500", "094701.397500", "094702.887500", "094704.377500", "094705.867500", "094707.357500", "094708.847500", "094710.337500", "094711.827500", "094713.317500", "094714.807500", "094716.297500", "094717.787500", "094719.277500", "094720.767500", "094722.257500", "094723.747500", "094725.237500", "094726.727500", "094728.217500", "094729.707500", "094731.197500", "094732.687500", "094734.177500", "094735.667500", "094737.157500", "094738.647500", "094740.137500", "094741.627500", "094743.117500", "094744.607500", "094746.097500", "094747.587500", "094749.077500", "094750.567500", "094752.057500", "094753.547500", "094755.037500", "094756.527500", "094758.017500", "094759.507500", "094800.997500", "094802.487500", "094803.977500", "094805.467500", "094806.957500", "094808.447500", "094809.937500", "094811.427500", "094812.917500", "094814.407500", "094815.897500", "094817.387500"],
      "ContentTime": ["094625.135000", "094625.139000", "094625.144000", "094625.150000", "094625.153000", "094625.155000", "094625.158000", "094625.161000", "094625.164000", "094625.167000", "094625.170000", "094625.173000", "094625.176000", "094625.179000", "094625.182000", "094625.185000", "094625.188000", "094625.191000", "094625.194000", "094625.203000", "094625.206000", "094625.209000", "094625.212000", "094625.215000", "094645.104000", "094645.107000", "094645.110000", "094645.113000", "094645.116000", "094645.118000", "094645.121000", "094645.124000", "094645.127000", "094645.130000", "094645.133000", "094645.135000", "094645.138000", "094645.141000", "094645.144000", "094645.147000", "094645.150000", "094645.152000", "094645.155000", "094645.158000", "094705.104000", "094705.107000", "094705.110000", "094705.113000", "094705.116000", "094705.119000", "094705.121000", "094705.124000", "094705.127000", "094705.130000", "094705.133000", "094705.136000", "094705.139000", "094705.141000", "094705.144000", "094705.147000", "094705.150000", "094705.153000", "094705.155000", "094705.158000", "094725.104000", "094725.107000", "094725.110000", "094725.113000", "094725.116000", "094725.118000", "094725.121000", "094725.124000", "094725.127000", "094725.130000", "094725.133000", "094725.135000", "094725.138000", "094725.141000", "094725.144000", "094725.147000", "094725.150000", "094725.152000", "094725.155000", "094725.158000", "094745.103000", "094745.106000", "094745.109000", "094745.112000", "094745.115000", "094745.118000", "094745.121000", "094745.124000", "094745.127000", "094745.129000", "094745.132000", "094745.135000", "094745.138000", "094745.141000", "094745.144000", "094745.147000", "094745.149000", "094745.152000", "094745.155000", "094745.158000", "094745.161000", "094819.498000", "094819.501000", "094819.504000", "094819.507000", "094819.510000", "094819.513000", "094819.516000", "094819.519000", "094819.522000", "094819.525000", "094819.528000", "094819.530000", "094819.533000", "094819.536000", "094819.539000", "094819.542000", "094819.545000", "094819.548000", "094819.551000", "094819.554000", "094819.558000", "094819.561000", "094819.564000", "094819.567000"],
      "InstanceCreationTime": ["094625.135000", "094625.139000", "094625.144000", "094625.150000", "094625.153000", "094625.155000", "094625.158000", "094625.161000", "094625.164000", "094625.167000", "094625.170000", "094625.173000", "094625.176000", "094625.179000", "094625.182000", "094625.185000", "094625.188000", "094625.191000", "094625.194000", "094625.203000", "094625.206000", "094625.209000", "094625.212000", "094625.215000", "094645.104000", "094645.107000", "094645.110000", "094645.113000", "094645.116000", "094645.118000", "094645.121000", "094645.124000", "094645.127000", "094645.130000", "094645.133000", "094645.135000", "094645.138000", "094645.141000", "094645.144000", "094645.147000", "094645.150000", "094645.152000", "094645.155000", "094645.158000", "094705.104000", "094705.107000", "094705.110000", "094705.113000", "094705.116000", "094705.119000", "094705.121000", "094705.124000", "094705.127000", "094705.130000", "094705.133000", "094705.136000", "094705.139000", "094705.141000", "094705.144000", "094705.147000", "094705.150000", "094705.153000", "094705.155000", "094705.158000", "094725.104000", "094725.107000", "094725.110000", "094725.113000", "094725.116000", "094725.118000", "094725.121000", "094725.124000", "094725.127000", "094725.130000", "094725.133000", "094725.135000", "094725.138000", "094725.141000", "094725.144000", "094725.147000", "094725.150000", "094725.152000", "094725.155000", "094725.158000", "094745.103000", "094745.106000", "094745.109000", "094745.112000", "094745.115000", "094745.118000", "094745.121000", "094745.124000", "094745.127000", "094745.129000", "094745.132000", "094745.135000", "094745.138000", "094745.141000", "094745.144000", "094745.147000", "094745.149000", "094745.152000", "094745.155000", "094745.158000", "094745.161000", "094819.498000", "094819.501000", "094819.504000", "094819.507000", "094819.510000", "094819.513000", "094819.516000", "094819.519000", "094819.522000", "094819.525000", "094819.528000", "094819.530000", "094819.533000", "094819.536000", "094819.539000", "094819.542000", "094819.545000", "094819.548000", "094819.551000", "094819.554000", "094819.558000", "094819.561000", "094819.564000", "094819.567000"],
      "InstanceNumber": [1, 2, 3, 4, 5, 6, 7, 8, 9, 10, 11, 12, 13, 14, 15, 16, 17, 18, 19, 20, 21, 22, 23, 24, 25, 26, 27, 28, 29, 30, 31, 32, 33, 34, 35, 36, 37, 38, 39, 40, 41, 42, 43, 44, 45, 46, 47, 48, 49, 50, 51, 52, 53, 54, 55, 56, 57, 58, 59, 60, 61, 62, 63, 64, 65, 66, 67, 68, 69, 70, 71, 72, 73, 74, 75, 76, 77, 78, 79, 80, 81, 82, 83, 84, 85, 86, 87, 88, 89, 90, 91, 92, 93, 94, 95, 96, 97, 98, 99, 100, 101, 102, 103, 104, 105, 106, 107, 108, 109, 110, 111, 112, 113, 114, 115, 116, 117, 118, 119, 120, 121, 122, 123, 124, 125, 126, 127, 128, 129],
      "LargestImagePixelValue": [44635, 42819, 42656, 43048, 43318, 42924, 42182, 43156, 43127, 42484, 41786, 42729, 42623, 42638, 42897, 41989, 42359, 42770, 42326, 42395, 42842, 42686, 42223, 42618, 41888, 42333, 43010, 42796, 41912, 42145, 42518, 42884, 42838, 42868, 42766, 42654, 42782, 42257, 42613, 42771, 42479, 42950, 42842, 42611, 42450, 42444, 42108, 42015, 42543, 41657, 42005, 42191, 42839, 42738, 42574, 41898, 42233, 40873, 40693, 40968, 41772, 42238, 42390, 42313, 42345, 42557, 42027, 41527, 42545, 41313, 41512, 42512, 42488, 41955, 42199, 42139, 42175, 41978, 42381, 42129, 41578, 42432, 42252, 42420, 42074, 41877, 41955, 41984, 41992, 42024, 42245, 42181, 41875, 41929, 42043, 41960, 42227, 42118, 42387, 41725, 42332, 41919, 41915, 41883, 42106, 41600, 42152, 41948, 41740, 41444, 41962, 41938, 41533, 41933, 41893, 41966, 41740, 42078, 41326, 42139, 41669, 41854, 42303, 41835, 42536, 42474, 41938, 42530, 34836],
      "WindowCenter": [10058.0, 10013.0, 9993.0, 9987.0, 9982.0, 9998.0, 10011.0, 10026.0, 10025.0, 10032.0, 10036.0, 10043.0, 10038.0, 10035.0, 10042.0, 10031.0, 10022.0, 10002.0, 9993.0, 9992.0, 9990.0, 9983.0, 9976.0, 9980.0, 9984.0, 9993.0, 9998.0, 9990.0, 9994.0, 10002.0, 10003.0, 9994.0, 9991.0, 9998.0, 10007.0, 9992.0, 9996.0, 10009.0, 10024.0, 10016.0, 10007.0, 10006.0, 10006.0, 10008.0, 10008.0, 10003.0, 9995.0, 10001.0, 10008.0, 10012.0, 10005.0, 9995.0, 9989.0, 9988.0, 9990.0, 9989.0, 9985.0, 9978.0, 9958.0, 9961.0, 9957.0, 9953.0, 9945.0, 9953.0, 9955.0, 9941.0, 9940.0, 9951.0, 9970.0, 9968.0, 9971.0, 9975.0, 9980.0, 9990.0, 10008.0, 10009.0, 10010.0, 10005.0, 10009.0, 10015.0, 10020.0, 10025.0, 10011.0, 10007.0, 10008.0, 10003.0, 9995.0, 9993.0, 9988.0, 9994.0, 9993.0, 9992.0, 9987.0, 9994.0, 10008.0, 10020.0, 10020.0, 10002.0, 9993.0, 9980.0, 9983.0, 9984.0, 9992.0, 9993.0, 9992.0, 9980.0, 9985.0, 9984.0, 9977.0, 9984.0, 9991.0, 10000.0, 10010.0, 10002.0, 9987.0, 9984.0, 9979.0, 9984.0, 9976.0, 9974.0, 9961.0, 9969.0, 9984.0, 9994.0, 10006.0, 10014.0, 10030.0, 10028.0, 9812.0],
      "WindowWidth": [21585.0, 21454.0, 21388.0, 21358.0, 21340.0, 21368.0, 21400.0, 21430.0, 21428.0, 21439.0, 21454.0, 21469.0, 21458.0, 21451.0, 21461.0, 21443.0, 21420.0, 21372.0, 21352.0, 21348.0, 21342.0, 21329.0, 21314.0, 21320.0, 21334.0, 21356.0, 21365.0, 21348.0, 21358.0, 21374.0, 21377.0, 21357.0, 21350.0, 21361.0, 21381.0, 21351.0, 21355.0, 21387.0, 21421.0, 21403.0, 21382.0, 21377.0, 21378.0, 21382.0, 21384.0, 21376.0, 21360.0, 21373.0, 21387.0, 21403.0, 21385.0, 21360.0, 21342.0, 21340.0, 21343.0, 21345.0, 21336.0, 21327.0, 21287.0, 21285.0, 21270.0, 21258.0, 21241.0, 21258.0, 21263.0, 21233.0, 21232.0, 21260.0, 21303.0, 21304.0, 21313.0, 21316.0, 21322.0, 21347.0, 21387.0, 21390.0, 21392.0, 21383.0, 21390.0, 21402.0, 21419.0, 21423.0, 21394.0, 21382.0, 21385.0, 21377.0, 21359.0, 21350.0, 21341.0, 21352.0, 21352.0, 21350.0, 21342.0, 21359.0, 21387.0, 21414.0, 21414.0, 21371.0, 21350.0, 21322.0, 21326.0, 21330.0, 21349.0, 21355.0, 21351.0, 21328.0, 21337.0, 21334.0, 21321.0, 21335.0, 21350.0, 21368.0, 21392.0, 21372.0, 21339.0, 21330.0, 21324.0, 21332.0, 21314.0, 21306.0, 21285.0, 21300.0, 21331.0, 21355.0, 21381.0, 21396.0, 21438.0, 21432.0, 20953.0]
    },
    "slices": {}
  }
}