{
  "AcquisitionMatrixPE": 104,
  "AcquisitionNumber": 1,
  "AcquisitionTime": "10:37:48.737500",
  "BandwidthPerPixelPhaseEncode": 17.17,
  "BaseResolution": 104,
  "BodyPartExamined": "BRAIN",
  "CoilString": "HC1-7;NC1_2",
  "ConsistencyInfo": "N4_VE11C_LATEST_20160120",
  "ConversionSoftware": "dcm2niix",
  "ConversionSoftwareVersion": "v1.0.20200427",
  "DerivedVendorReportedEchoSpacing": 0.000560011,
  "DeviceSerialNumber": "167006",
  "DwellTime": 2.1e-06,
  "EchoTime": 0.037,
  "EchoTrainLength": 104,
  "EffectiveEchoSpacing": 0.000560011,
  "FlipAngle": 52,
  "ImageComments": "Unaliased_MB4_PE3_LB",
  "ImageOrientationPatientDICOM": [0.998781, -0.0490369, 0.00565131, 0.0472761, 0.917369, -0.39522],
  "ImageType": [
    "ORIGINAL",
    "PRIMARY",
    "M",
    "MB",
    "ND",
    "MOSAIC"
],
  "ImagingFrequency": 123.259,
  "InPlanePhaseEncodingDirectionDICOM": "COL",
  "InstitutionAddress": "Chemin_Queen-Mary_4565_Montreal_District_CA_H3W_1W5",
  "InstitutionName": "IUGM",
  "InstitutionalDepartmentName": "Department",
  "MRAcquisitionType": "2D",
  "MagneticFieldStrength": 3,
  "Manufacturer": "Siemens",
  "ManufacturersModelName": "Prisma_fit",
  "Modality": "MR",
  "MultibandAccelerationFactor": 4,
  "PartialFourier": 1,
  "PatientPosition": "HFS",
  "PercentPhaseFOV": 100,
  "PercentSampling": 100,
  "PhaseEncodingDirection": "j",
  "PhaseEncodingSteps": 104,
  "PhaseResolution": 1,
  "PixelBandwidth": 2290,
  "ProcedureStepDescription": "hcptrt_generic",
  "ProtocolName": "func_task-gambling_run-2",
  "PulseSequenceDetails": "%CustomerSeq%_cmrr_mbep2d_bold",
  "ReceiveCoilActiveElements": "HC1-7;NC1,2",
  "ReceiveCoilName": "HeadNeck_64",
  "ReconMatrixPE": 104,
  "RepetitionTime": 1.49,
  "SAR": 0.028586,
  "ScanOptions": "FS",
  "ScanningSequence": "EP",
  "SequenceName": "epfid2d1_104",
  "SequenceVariant": "SK_SS",
  "SeriesDescription": "func_task-gambling_run-2",
  "SeriesNumber": 35,
  "ShimSetting": [631, -7248, -8867, 597, 0, -244, -125, -15],
  "SliceThickness": 2,
  "SliceTiming": [0, 0.7825, 0.0975, 0.88, 0.195, 0.98, 0.2925, 1.0775, 0.39, 1.175, 0.49, 1.2725, 0.5875, 1.37, 0.685, 0, 0.7825, 0.0975, 0.88, 0.195, 0.98, 0.2925, 1.0775, 0.39, 1.175, 0.49, 1.2725, 0.5875, 1.37, 0.685, 0, 0.7825, 0.0975, 0.88, 0.195, 0.98, 0.2925, 1.0775, 0.39, 1.175, 0.49, 1.2725, 0.5875, 1.37, 0.685, 0, 0.7825, 0.0975, 0.88, 0.195, 0.98, 0.2925, 1.0775, 0.39, 1.175, 0.49, 1.2725, 0.5875, 1.37, 0.685],
  "SoftwareVersions": "syngo_MR_E11",
  "SpacingBetweenSlices": 2,
  "StationName": "MRC35049",
  "TaskName": "gambling",
  "TotalReadoutTime": 0.0576811,
  "TxRefAmp": 218.088,
  "WipMemBlock": "0537839f-f4a9-4018-8be9-c18295f1fbd2||Sequence: R016 ve11c/master r/e634e98; Dec 19 2017 11:00:25 by eja",
  "dcmmeta_affine": [
    [-1.9975619316101074, 0.0945521742105484, -0.028392063453793526, 102.3973388671875],
    [0.0980738177895546, 1.8347382545471191, -0.7900106906890869, -64.61471557617188],
    [0.011302612721920013, 0.7904399633407593, 1.8371381759643555, -82.33715057373047],
    [0.0, 0.0, 0.0, 1.0]
],
  "dcmmeta_reorient_transform": [
    [0.0, -1.0, 0.0, 103.0],
    [1.0, 0.0, 0.0, 0.0],
    [0.0, 0.0, 1.0, 0.0],
    [0.0, 0.0, 0.0, 1.0]
],
  "dcmmeta_shape": [104, 104, 60, 129],
  "dcmmeta_slice_dim": 2,
  "dcmmeta_version": 0.6,
  "global": {
    "const": {
      "AcquisitionMatrix": [104, 0, 0, 104],
      "AngioFlag": "N",
      "BitsAllocated": 16,
      "BitsStored": 16,
      "BodyPartExamined": "BRAIN",
      "Columns": 832,
      "EchoNumbers": 1,
      "EchoTime": 37.0,
      "EchoTrainLength": 104,
      "FlipAngle": 52.0,
      "HighBit": 15,
      "ImageOrientationPatient": [0.99878097915637, -0.0490369086805, 0.00565130626449, 0.04727608655929, 0.917369143644, -0.3952199715722],
      "ImagePositionPatient": [-873.66575972707, -756.50919362904, 282.68415214952],
      "ImageType": [
        "ORIGINAL",
        "PRIMARY",
        "M",
        "MB",
        "ND",
        "MOSAIC"
],
      "ImagedNucleus": "1H",
      "ImagingFrequency": 123.259066,
      "InPlanePhaseEncodingDirection": "COL",
      "MRAcquisitionType": "2D",
      "MagneticFieldStrength": 3.0,
      "Manufacturer": "SIEMENS",
      "ManufacturerModelName": "Prisma_fit",
      "Modality": "MR",
      "NumberOfAverages": 1.0,
      "NumberOfPhaseEncodingSteps": 104,
      "PercentPhaseFieldOfView": 100.0,
      "PercentSampling": 100.0,
      "PerformedProcedureStepStartTime": "093014.698000",
      "PhotometricInterpretation": "MONOCHROME2",
      "PixelBandwidth": 2290.0,
      "PixelRepresentation": 0,
      "PixelSpacing": [2.0, 2.0],
      "ProtocolName": "func_task-gambling_run-2",
      "RepetitionTime": 1490.0,
      "Rows": 832,
      "SAR": 0.02858604116646,
      "SamplesPerPixel": 1,
      "ScanOptions": "FS",
      "ScanningSequence": "EP",
      "SequenceName": "epfid2d1_104",
      "SequenceVariant": [
        "SK",
        "SS"
],
      "SeriesDescription": "func_task-gambling_run-2",
      "SeriesNumber": 35,
      "SeriesTime": "103845.275000",
      "SliceLocation": -51.562840350691,
      "SliceThickness": 2.0,
      "SmallestImagePixelValue": 0,
      "SoftwareVersions": "syngo MR E11",
      "SpacingBetweenSlices": 1.9999999653148,
      "SpecificCharacterSet": "ISO_IR 100",
      "StudyID": "1",
      "StudyTime": "093014.575000",
      "TransmitCoilName": "Body",
      "VariableFlipAngleFlag": "N",
      "WindowCenterWidthExplanation": "Algo1",
      "dBdt": 0.0},
    "slices": {}
  },
  "time": {
    "samples": {
      "AcquisitionNumber": [1, 2, 3, 4, 5, 6, 7, 8, 9, 10, 11, 12, 13, 14, 15, 16, 17, 18, 19, 20, 21, 22, 23, 24, 25, 26, 27, 28, 29, 30, 31, 32, 33, 34, 35, 36, 37, 38, 39, 40, 41, 42, 43, 44, 45, 46, 47, 48, 49, 50, 51, 52, 53, 54, 55, 56, 57, 58, 59, 60, 61, 62, 63, 64, 65, 66, 67, 68, 69, 70, 71, 72, 73, 74, 75, 76, 77, 78, 79, 80, 81, 82, 83, 84, 85, 86, 87, 88, 89, 90, 91, 92, 93, 94, 95, 96, 97, 98, 99, 100, 101, 102, 103, 104, 105, 106, 107, 108, 109, 110, 111, 112, 113, 114, 115, 116, 117, 118, 119, 120, 121, 122, 123, 124, 125, 126, 127, 128, 129],
      "AcquisitionTime": ["103748.737500", "103750.227500", "103751.717500", "103753.207500", "103754.697500", "103756.187500", "103757.677500", "103759.167500", "103800.657500", "103802.147500", "103803.637500", "103805.127500", "103806.617500", "103808.107500", "103809.597500", "103811.087500", "103812.577500", "103814.067500", "103815.557500", "103817.047500", "103818.537500", "103820.027500", "103821.517500", "103823.007500", "103824.497500", "103825.987500", "103827.477500", "103828.967500", "103830.457500", "103831.947500", "103833.437500", "103834.927500", "103836.417500", "103837.907500", "103839.397500", "103840.887500", "103842.377500", "103843.867500", "103845.357500", "103846.847500", "103848.337500", "103849.827500", "103851.317500", "103852.807500", "103854.297500", "103855.787500", "103857.277500", "103858.767500", "103900.257500", "103901.747500", "103903.237500", "103904.727500", "103906.217500", "103907.707500", "103909.197500", "103910.687500", "103912.177500", "103913.667500", "103915.157500", "103916.647500", "103918.137500", "103919.627500", "103921.117500", "103922.607500", "103924.097500", "103925.587500", "103927.077500", "103928.567500", "103930.057500", "103931.547500", "103933.037500", "103934.527500", "103936.017500", "103937.507500", "103938.997500", "103940.487500", "103941.977500", "103943.467500", "103944.957500", "103946.447500", "103947.937500", "103949.427500", "103950.917500", "103952.407500", "103953.897500", "103955.387500", "103956.877500", "103958.367500", "103959.857500", "104001.347500", "104002.837500", "104004.327500", "104005.817500", "104007.307500", "104008.797500", "104010.287500", "104011.777500", "104013.267500", "104014.757500", "104016.247500", "104017.737500", "104019.227500", "104020.717500", "104022.207500", "104023.697500", "104025.187500", "104026.677500", "104028.167500", "104029.657500", "104031.147500", "104032.637500", "104034.127500", "104035.617500", "104037.107500", "104038.597500", "104040.087500", "104041.577500", "104043.067500", "104044.557500", "104046.047500", "104047.537500", "104049.027500", "104050.517500", "104052.007500", "104053.497500", "104054.987500", "104056.477500", "104057.967500", "104059.457500"],
      "ContentTime": ["103845.278000", "103845.281000", "103905.245000", "103905.248000", "103905.251000", "103905.254000", "103905.257000", "103905.260000", "103905.263000", "103905.265000", "103905.268000", "103905.271000", "103905.278000", "103905.281000", "103905.284000", "103905.287000", "103905.290000", "103905.293000", "103905.295000", "103905.298000", "103905.301000", "103905.304000", "103925.245000", "103925.248000", "103925.251000", "103925.254000", "103925.257000", "103925.260000", "103925.263000", "103925.265000", "103925.268000", "103925.271000", "103925.274000", "103925.277000", "103925.280000", "103925.282000", "103925.286000", "103925.288000", "103925.291000", "103925.294000", "103925.297000", "103925.300000", "103945.246000", "103945.249000", "103945.252000", "103945.255000", "103945.257000", "103945.260000", "103945.263000", "103945.274000", "103945.277000", "103945.280000", "103945.283000", "103945.286000", "103945.289000", "103945.292000", "103945.295000", "103945.297000", "103945.300000", "103945.303000", "103945.306000", "103945.309000", "104005.246000", "104005.249000", "104005.252000", "104005.255000", "104005.258000", "104005.260000", "104005.264000", "104005.266000", "104005.269000", "104005.272000", "104005.275000", "104005.278000", "104005.281000", "104005.284000", "104005.287000", "104005.289000", "104005.292000", "104005.295000", "104005.298000", "104005.301000", "104025.246000", "104025.249000", "104025.252000", "104025.255000", "104025.258000", "104025.261000", "104025.264000", "104025.266000", "104025.269000", "104025.272000", "104025.275000", "104025.278000", "104025.281000", "104025.284000", "104025.287000", "104025.290000", "104025.293000", "104025.296000", "104025.299000", "104025.301000", "104101.593000", "104101.596000", "104101.599000", "104101.602000", "104101.612000", "104101.615000", "104101.618000", "104101.621000", "104101.624000", "104101.627000", "104101.630000", "104101.632000", "104101.635000", "104101.638000", "104101.641000", "104101.644000", "104101.647000", "104101.650000", "104101.653000", "104101.656000", "104101.659000", "104101.661000", "104101.672000", "104101.675000", "104101.678000", "104101.681000", "104101.684000"],
      "InstanceCreationTime": ["103845.278000", "103845.281000", "103905.245000", "103905.248000", "103905.251000", "103905.254000", "103905.257000", "103905.260000", "103905.263000", "103905.265000", "103905.268000", "103905.271000", "103905.278000", "103905.281000", "103905.284000", "103905.287000", "103905.290000", "103905.293000", "103905.295000", "103905.298000", "103905.301000", "103905.304000", "103925.245000", "103925.248000", "103925.251000", "103925.254000", "103925.257000", "103925.260000", "103925.263000", "103925.265000", "103925.268000", "103925.271000", "103925.274000", "103925.277000", "103925.280000", "103925.282000", "103925.286000", "103925.288000", "103925.291000", "103925.294000", "103925.297000", "103925.300000", "103945.246000", "103945.249000", "103945.252000", "103945.255000", "103945.257000", "103945.260000", "103945.263000", "103945.274000", "103945.277000", "103945.280000", "103945.283000", "103945.286000", "103945.289000", "103945.292000", "103945.295000", "103945.297000", "103945.300000", "103945.303000", "103945.306000", "103945.309000", "104005.246000", "104005.249000", "104005.252000", "104005.255000", "104005.258000", "104005.260000", "104005.264000", "104005.266000", "104005.269000", "104005.272000", "104005.275000", "104005.278000", "104005.281000", "104005.284000", "104005.287000", "104005.289000", "104005.292000", "104005.295000", "104005.298000", "104005.301000", "104025.246000", "104025.249000", "104025.252000", "104025.255000", "104025.258000", "104025.261000", "104025.264000", "104025.266000", "104025.269000", "104025.272000", "104025.275000", "104025.278000", "104025.281000", "104025.284000", "104025.287000", "104025.290000", "104025.293000", "104025.296000", "104025.299000", "104025.301000", "104101.593000", "104101.596000", "104101.599000", "104101.602000", "104101.612000", "104101.615000", "104101.618000", "104101.621000", "104101.624000", "104101.627000", "104101.630000", "104101.632000", "104101.635000", "104101.638000", "104101.641000", "104101.644000", "104101.647000", "104101.650000", "104101.653000", "104101.656000", "104101.659000", "104101.661000", "104101.672000", "104101.675000", "104101.678000", "104101.681000", "104101.684000"],
      "InstanceNumber": [1, 2, 3, 4, 5, 6, 7, 8, 9, 10, 11, 12, 13, 14, 15, 16, 17, 18, 19, 20, 21, 22, 23, 24, 25, 26, 27, 28, 29, 30, 31, 32, 33, 34, 35, 36, 37, 38, 39, 40, 41, 42, 43, 44, 45, 46, 47, 48, 49, 50, 51, 52, 53, 54, 55, 56, 57, 58, 59, 60, 61, 62, 63, 64, 65, 66, 67, 68, 69, 70, 71, 72, 73, 74, 75, 76, 77, 78, 79, 80, 81, 82, 83, 84, 85, 86, 87, 88, 89, 90, 91, 92, 93, 94, 95, 96, 97, 98, 99, 100, 101, 102, 103, 104, 105, 106, 107, 108, 109, 110, 111, 112, 113, 114, 115, 116, 117, 118, 119, 120, 121, 122, 123, 124, 125, 126, 127, 128, 129],
      "LargestImagePixelValue": [42379, 41307, 40421, 39388, 38689, 38176, 38327, 39006, 38346, 39404, 39738, 39352, 39520, 39504, 39238, 38946, 38399, 38903, 38475, 38794, 39303, 39643, 40136, 40627, 39022, 39861, 39321, 38749, 39948, 40304, 39797, 40556, 40928, 40173, 40552, 40651, 40202, 39685, 39741, 39447, 39708, 38981, 38837, 39941, 39219, 39455, 39652, 39372, 40006, 39881, 39540, 40147, 39579, 40090, 40287, 39673, 40150, 39907, 39350, 39992, 40235, 39362, 39663, 39720, 39371, 39936, 39730, 40274, 39828, 39897, 39851, 39476, 39841, 39595, 39846, 39501, 39270, 39944, 38870, 39290, 40131, 39196, 39129, 39425, 39007, 39322, 39333, 38841, 38913, 39184, 38500, 39138, 39288, 39011, 39643, 38775, 38778, 38784, 38415, 38864, 38089, 38370, 38477, 37997, 38512, 37945, 37980, 37901, 38159, 39143, 37906, 39141, 38484, 37734, 38078, 38049, 38516, 37847, 37454, 37710, 37736, 37749, 38400, 37576, 38641, 38665, 38584, 38885, 38173],
      "WindowCenter": [10004.0, 9969.0, 9943.0, 9919.0, 9904.0, 9919.0, 9946.0, 9968.0, 9963.0, 9959.0, 9940.0, 9938.0, 9944.0, 9948.0, 9941.0, 9923.0, 9908.0, 9908.0, 9902.0, 9900.0, 9887.0, 9893.0, 9912.0, 9921.0, 9912.0, 9918.0, 9911.0, 9906.0, 9900.0, 9899.0, 9894.0, 9905.0, 9905.0, 9899.0, 9896.0, 9910.0, 9927.0, 9935.0, 9944.0, 9929.0, 9927.0, 9912.0, 9913.0, 9916.0, 9917.0, 9920.0, 9918.0, 9910.0, 9908.0, 9899.0, 9899.0, 9897.0, 9884.0, 9888.0, 9903.0, 9907.0, 9908.0, 9900.0, 9893.0, 9899.0, 9912.0, 9916.0, 9933.0, 9935.0, 9920.0, 9900.0, 9892.0, 9895.0, 9889.0, 9904.0, 9898.0, 9894.0, 9900.0, 9899.0, 9898.0, 9885.0, 9890.0, 9898.0, 9894.0, 9907.0, 9915.0, 9894.0, 9886.0, 9892.0, 9893.0, 9893.0, 9888.0, 9889.0, 9898.0, 9904.0, 9893.0, 9897.0, 9902.0, 9903.0, 9915.0, 9922.0, 9933.0, 9924.0, 9910.0, 9901.0, 9894.0, 9893.0, 9892.0, 9887.0, 9892.0, 9894.0, 9895.0, 9880.0, 9884.0, 9890.0, 9878.0, 9905.0, 9900.0, 9896.0, 9887.0, 9887.0, 9886.0, 9880.0, 9874.0, 9880.0, 9881.0, 9889.0, 9901.0, 9883.0, 9899.0, 9891.0, 9891.0, 9897.0, 9902.0],
      "WindowWidth": [21483.0, 21371.0, 21294.0, 21234.0, 21194.0, 21222.0, 21280.0, 21325.0, 21317.0, 21302.0, 21260.0, 21253.0, 21267.0, 21278.0, 21262.0, 21223.0, 21191.0, 21189.0, 21178.0, 21171.0, 21142.0, 21153.0, 21188.0, 21210.0, 21198.0, 21210.0, 21195.0, 21186.0, 21167.0, 21163.0, 21154.0, 21171.0, 21172.0, 21163.0, 21156.0, 21185.0, 21224.0, 21247.0, 21267.0, 21235.0, 21226.0, 21200.0, 21200.0, 21204.0, 21208.0, 21215.0, 21209.0, 21193.0, 21185.0, 21166.0, 21165.0, 21158.0, 21134.0, 21139.0, 21170.0, 21181.0, 21183.0, 21167.0, 21153.0, 21166.0, 21190.0, 21201.0, 21240.0, 21246.0, 21210.0, 21167.0, 21148.0, 21151.0, 21143.0, 21173.0, 21161.0, 21154.0, 21166.0, 21162.0, 21158.0, 21135.0, 21141.0, 21161.0, 21156.0, 21178.0, 21195.0, 21155.0, 21138.0, 21149.0, 21152.0, 21153.0, 21144.0, 21148.0, 21164.0, 21174.0, 21156.0, 21159.0, 21168.0, 21176.0, 21198.0, 21218.0, 21241.0, 21222.0, 21193.0, 21176.0, 21162.0, 21160.0, 21156.0, 21147.0, 21156.0, 21163.0, 21164.0, 21135.0, 21136.0, 21145.0, 21125.0, 21178.0, 21174.0, 21166.0, 21146.0, 21145.0, 21144.0, 21133.0, 21122.0, 21136.0, 21137.0, 21149.0, 21170.0, 21137.0, 21163.0, 21148.0, 21146.0, 21158.0, 21174.0]
    },
    "slices": {}
  }
}