{
  "AcquisitionMatrixPE": 104,
  "AcquisitionNumber": 1,
  "AcquisitionTime": "10:07:45.552500",
  "BandwidthPerPixelPhaseEncode": 17.17,
  "BaseResolution": 104,
  "BodyPartExamined": "BRAIN",
  "CoilString": "HC1-7;NC1_2",
  "ConsistencyInfo": "N4_VE11C_LATEST_20160120",
  "ConversionSoftware": "dcm2niix",
  "ConversionSoftwareVersion": "v1.0.20200427",
  "DerivedVendorReportedEchoSpacing": 0.000560011,
  "DeviceSerialNumber": "167006",
  "DwellTime": 2.1e-06,
  "EchoTime": 0.037,
  "EchoTrainLength": 104,
  "EffectiveEchoSpacing": 0.000560011,
  "FlipAngle": 52,
  "ImageComments": "Unaliased_MB4_PE3_LB",
  "ImageOrientationPatientDICOM": [0.998781, -0.0490369, 0.00565131, 0.0472761, 0.917369, -0.39522],
  "ImageType": [
    "ORIGINAL",
    "PRIMARY",
    "M",
    "MB",
    "ND",
    "MOSAIC"
],
  "ImagingFrequency": 123.259,
  "InPlanePhaseEncodingDirectionDICOM": "COL",
  "InstitutionAddress": "Chemin_Queen-Mary_4565_Montreal_District_CA_H3W_1W5",
  "InstitutionName": "IUGM",
  "InstitutionalDepartmentName": "Department",
  "MRAcquisitionType": "2D",
  "MagneticFieldStrength": 3,
  "Manufacturer": "Siemens",
  "ManufacturersModelName": "Prisma_fit",
  "Modality": "MR",
  "MultibandAccelerationFactor": 4,
  "PartialFourier": 1,
  "PatientPosition": "HFS",
  "PercentPhaseFOV": 100,
  "PercentSampling": 100,
  "PhaseEncodingDirection": "j",
  "PhaseEncodingSteps": 104,
  "PhaseResolution": 1,
  "PixelBandwidth": 2290,
  "ProcedureStepDescription": "hcptrt_generic",
  "ProtocolName": "func_task-relational_run-1",
  "PulseSequenceDetails": "%CustomerSeq%_cmrr_mbep2d_bold",
  "ReceiveCoilActiveElements": "HC1-7;NC1,2",
  "ReceiveCoilName": "HeadNeck_64",
  "ReconMatrixPE": 104,
  "RepetitionTime": 1.49,
  "SAR": 0.0285517,
  "ScanOptions": "FS",
  "ScanningSequence": "EP",
  "SequenceName": "epfid2d1_104",
  "SequenceVariant": "SK_SS",
  "SeriesDescription": "func_task-relational_run-1",
  "SeriesNumber": 21,
  "ShimSetting": [631, -7248, -8867, 597, 0, -244, -125, -15],
  "SliceThickness": 2,
  "SliceTiming": [0, 0.785, 0.1, 0.8825, 0.1975, 0.98, 0.295, 1.08, 0.3925, 1.1775, 0.49, 1.275, 0.59, 1.3725, 0.6875, 0, 0.785, 0.1, 0.8825, 0.1975, 0.98, 0.295, 1.08, 0.3925, 1.1775, 0.49, 1.275, 0.59, 1.3725, 0.6875, 0, 0.785, 0.1, 0.8825, 0.1975, 0.98, 0.295, 1.08, 0.3925, 1.1775, 0.49, 1.275, 0.59, 1.3725, 0.6875, 0, 0.785, 0.1, 0.8825, 0.1975, 0.98, 0.295, 1.08, 0.3925, 1.1775, 0.49, 1.275, 0.59, 1.3725, 0.6875],
  "SoftwareVersions": "syngo_MR_E11",
  "SpacingBetweenSlices": 2,
  "StationName": "MRC35049",
  "TaskName": "relational",
  "TotalReadoutTime": 0.0576811,
  "TxRefAmp": 218.088,
  "WipMemBlock": "e7561317-f297-4d06-94c7-c1657e45a34b||Sequence: R016 ve11c/master r/e634e98; Dec 19 2017 11:00:25 by eja",
  "dcmmeta_affine": [
    [-1.9975619316101074, 0.0945521742105484, -0.028392063453793526, 102.3973388671875],
    [0.0980738177895546, 1.8347382545471191, -0.7900106906890869, -64.61471557617188],
    [0.011302612721920013, 0.7904399633407593, 1.8371381759643555, -82.33715057373047],
    [0.0, 0.0, 0.0, 1.0]
],
  "dcmmeta_reorient_transform": [
    [0.0, -1.0, 0.0, 103.0],
    [1.0, 0.0, 0.0, 0.0],
    [0.0, 0.0, 1.0, 0.0],
    [0.0, 0.0, 0.0, 1.0]
],
  "dcmmeta_shape": [104, 104, 60, 119],
  "dcmmeta_slice_dim": 2,
  "dcmmeta_version": 0.6,
  "global": {
    "const": {
      "AcquisitionMatrix": [104, 0, 0, 104],
      "AngioFlag": "N",
      "BitsAllocated": 16,
      "BitsStored": 16,
      "BodyPartExamined": "BRAIN",
      "Columns": 832,
      "EchoNumbers": 1,
      "EchoTime": 37.0,
      "EchoTrainLength": 104,
      "FlipAngle": 52.0,
      "HighBit": 15,
      "ImageOrientationPatient": [0.99878097915637, -0.0490369086805, 0.00565130626449, 0.04727608655929, 0.917369143644, -0.3952199715722],
      "ImagePositionPatient": [-873.66575972707, -756.50919362904, 282.68415214952],
      "ImageType": [
        "ORIGINAL",
        "PRIMARY",
        "M",
        "MB",
        "ND",
        "MOSAIC"
],
      "ImagedNucleus": "1H",
      "ImagingFrequency": 123.259064,
      "InPlanePhaseEncodingDirection": "COL",
      "MRAcquisitionType": "2D",
      "MagneticFieldStrength": 3.0,
      "Manufacturer": "SIEMENS",
      "ManufacturerModelName": "Prisma_fit",
      "Modality": "MR",
      "NumberOfAverages": 1.0,
      "NumberOfPhaseEncodingSteps": 104,
      "PercentPhaseFieldOfView": 100.0,
      "PercentSampling": 100.0,
      "PerformedProcedureStepStartTime": "093014.698000",
      "PhotometricInterpretation": "MONOCHROME2",
      "PixelBandwidth": 2290.0,
      "PixelRepresentation": 0,
      "PixelSpacing": [2.0, 2.0],
      "ProtocolName": "func_task-relational_run-1",
      "RepetitionTime": 1490.0,
      "Rows": 832,
      "SAR": 0.02855173245465,
      "SamplesPerPixel": 1,
      "ScanOptions": "FS",
      "ScanningSequence": "EP",
      "SequenceName": "epfid2d1_104",
      "SequenceVariant": [
        "SK",
        "SS"
],
      "SeriesDescription": "func_task-relational_run-1",
      "SeriesNumber": 21,
      "SeriesTime": "100846.099000",
      "SliceLocation": -51.562840350691,
      "SliceThickness": 2.0,
      "SmallestImagePixelValue": 0,
      "SoftwareVersions": "syngo MR E11",
      "SpacingBetweenSlices": 1.9999999653148,
      "SpecificCharacterSet": "ISO_IR 100",
      "StudyID": "1",
      "StudyTime": "093014.575000",
      "TransmitCoilName": "Body",
      "VariableFlipAngleFlag": "N",
      "WindowCenterWidthExplanation": "Algo1",
      "dBdt": 0.0},
    "slices": {}
  },
  "time": {
    "samples": {
      "AcquisitionNumber": [1, 2, 3, 4, 5, 6, 7, 8, 9, 10, 11, 12, 13, 14, 15, 16, 17, 18, 19, 20, 21, 22, 23, 24, 25, 26, 27, 28, 29, 30, 31, 32, 33, 34, 35, 36, 37, 38, 39, 40, 41, 42, 43, 44, 45, 46, 47, 48, 49, 50, 51, 52, 53, 54, 55, 56, 57, 58, 59, 60, 61, 62, 63, 64, 65, 66, 67, 68, 69, 70, 71, 72, 73, 74, 75, 76, 77, 78, 79, 80, 81, 82, 83, 84, 85, 86, 87, 88, 89, 90, 91, 92, 93, 94, 95, 96, 97, 98, 99, 100, 101, 102, 103, 104, 105, 106, 107, 108, 109, 110, 111, 112, 113, 114, 115, 116, 117, 118, 119],
      "AcquisitionTime": ["100745.552500", "100747.042500", "100748.532500", "100750.022500", "100751.512500", "100753.002500", "100754.492500", "100755.982500", "100757.472500", "100758.962500", "100800.452500", "100801.942500", "100803.432500", "100804.922500", "100806.412500", "100807.902500", "100809.392500", "100810.882500", "100812.372500", "100813.862500", "100815.352500", "100816.842500", "100818.332500", "100819.822500", "100821.312500", "100822.802500", "100824.292500", "100825.782500", "100827.272500", "100828.762500", "100830.252500", "100831.742500", "100833.232500", "100834.722500", "100836.212500", "100837.702500", "100839.192500", "100840.682500", "100842.172500", "100843.662500", "100845.152500", "100846.642500", "100848.132500", "100849.622500", "100851.112500", "100852.602500", "100854.092500", "100855.582500", "100857.072500", "100858.562500", "100900.052500", "100901.542500", "100903.032500", "100904.522500", "100906.012500", "100907.502500", "100908.992500", "100910.482500", "100911.972500", "100913.462500", "100914.952500", "100916.442500", "100917.932500", "100919.422500", "100920.912500", "100922.402500", "100923.892500", "100925.382500", "100926.872500", "100928.362500", "100929.852500", "100931.342500", "100932.832500", "100934.322500", "100935.812500", "100937.302500", "100938.792500", "100940.282500", "100941.772500", "100943.262500", "100944.752500", "100946.242500", "100947.732500", "100949.222500", "100950.712500", "100952.202500", "100953.692500", "100955.182500", "100956.672500", "100958.162500", "100959.652500", "101001.142500", "101002.632500", "101004.122500", "101005.612500", "101007.102500", "101008.592500", "101010.082500", "101011.572500", "101013.062500", "101014.552500", "101016.042500", "101017.532500", "101019.022500", "101020.512500", "101022.002500", "101023.492500", "101024.982500", "101026.472500", "101027.962500", "101029.452500", "101030.942500", "101032.432500", "101033.922500", "101035.412500", "101036.902500", "101038.392500", "101039.882500", "101041.372500"],
      "ContentTime": ["100846.101000", "100846.105000", "100846.108000", "100846.110000", "100846.113000", "100846.116000", "100846.128000", "100906.067000", "100906.070000", "100906.073000", "100906.076000", "100906.078000", "100906.081000", "100906.084000", "100906.087000", "100906.090000", "100906.093000", "100906.096000", "100906.099000", "100906.102000", "100906.104000", "100906.107000", "100906.110000", "100906.113000", "100906.116000", "100906.124000", "100906.127000", "100906.130000", "100926.068000", "100926.071000", "100926.074000", "100926.077000", "100926.080000", "100926.083000", "100926.086000", "100926.088000", "100926.091000", "100926.094000", "100926.097000", "100926.100000", "100926.103000", "100926.106000", "100926.109000", "100926.112000", "100926.114000", "100926.117000", "100926.120000", "100926.123000", "100946.068000", "100946.071000", "100946.074000", "100946.077000", "100946.086000", "100946.089000", "100946.092000", "100946.095000", "100946.098000", "100946.101000", "100946.104000", "100946.106000", "100946.109000", "100946.112000", "100946.123000", "100946.126000", "100946.128000", "100946.132000", "100946.134000", "100946.137000", "101006.068000", "101006.071000", "101006.074000", "101006.077000", "101006.089000", "101006.092000", "101006.095000", "101006.098000", "101006.101000", "101006.104000", "101006.107000", "101006.109000", "101006.112000", "101006.115000", "101006.118000", "101006.121000", "101006.124000", "101006.127000", "101006.130000", "101006.132000", "101043.576000", "101043.579000", "101043.582000", "101043.596000", "101043.598000", "101043.601000", "101043.604000", "101043.607000", "101043.610000", "101043.613000", "101043.616000", "101043.619000", "101043.622000", "101043.625000", "101043.629000", "101043.632000", "101043.635000", "101043.638000", "101043.641000", "101043.643000", "101043.646000", "101043.649000", "101043.652000", "101043.655000", "101043.658000", "101043.661000", "101043.664000", "101043.666000", "101043.669000", "101043.672000", "101043.675000"],
      "InstanceCreationTime": ["100846.101000", "100846.105000", "100846.108000", "100846.110000", "100846.113000", "100846.116000", "100846.128000", "100906.067000", "100906.070000", "100906.073000", "100906.076000", "100906.078000", "100906.081000", "100906.084000", "100906.087000", "100906.090000", "100906.093000", "100906.096000", "100906.099000", "100906.102000", "100906.104000", "100906.107000", "100906.110000", "100906.113000", "100906.116000", "100906.124000", "100906.127000", "100906.130000", "100926.068000", "100926.071000", "100926.074000", "100926.077000", "100926.080000", "100926.083000", "100926.086000", "100926.088000", "100926.091000", "100926.094000", "100926.097000", "100926.100000", "100926.103000", "100926.106000", "100926.109000", "100926.112000", "100926.114000", "100926.117000", "100926.120000", "100926.123000", "100946.068000", "100946.071000", "100946.074000", "100946.077000", "100946.086000", "100946.089000", "100946.092000", "100946.095000", "100946.098000", "100946.101000", "100946.104000", "100946.106000", "100946.109000", "100946.112000", "100946.123000", "100946.126000", "100946.128000", "100946.132000", "100946.134000", "100946.137000", "101006.068000", "101006.071000", "101006.074000", "101006.077000", "101006.089000", "101006.092000", "101006.095000", "101006.098000", "101006.101000", "101006.104000", "101006.107000", "101006.109000", "101006.112000", "101006.115000", "101006.118000", "101006.121000", "101006.124000", "101006.127000", "101006.130000", "101006.132000", "101043.576000", "101043.579000", "101043.582000", "101043.596000", "101043.598000", "101043.601000", "101043.604000", "101043.607000", "101043.610000", "101043.613000", "101043.616000", "101043.619000", "101043.622000", "101043.625000", "101043.629000", "101043.632000", "101043.635000", "101043.638000", "101043.641000", "101043.643000", "101043.646000", "101043.649000", "101043.652000", "101043.655000", "101043.658000", "101043.661000", "101043.664000", "101043.666000", "101043.669000", "101043.672000", "101043.675000"],
      "InstanceNumber": [1, 2, 3, 4, 5, 6, 7, 8, 9, 10, 11, 12, 13, 14, 15, 16, 17, 18, 19, 20, 21, 22, 23, 24, 25, 26, 27, 28, 29, 30, 31, 32, 33, 34, 35, 36, 37, 38, 39, 40, 41, 42, 43, 44, 45, 46, 47, 48, 49, 50, 51, 52, 53, 54, 55, 56, 57, 58, 59, 60, 61, 62, 63, 64, 65, 66, 67, 68, 69, 70, 71, 72, 73, 74, 75, 76, 77, 78, 79, 80, 81, 82, 83, 84, 85, 86, 87, 88, 89, 90, 91, 92, 93, 94, 95, 96, 97, 98, 99, 100, 101, 102, 103, 104, 105, 106, 107, 108, 109, 110, 111, 112, 113, 114, 115, 116, 117, 118, 119],
      "LargestImagePixelValue": [45014, 43781, 43000, 42221, 42119, 42139, 41548, 41437, 41346, 41532, 41907, 41452, 41540, 41263, 42017, 41762, 41906, 41730, 41602, 40970, 41689, 41496, 40607, 40722, 41015, 41050, 40980, 41016, 41190, 40729, 40634, 40788, 40408, 40613, 40413, 40564, 40580, 40384, 40130, 39925, 40414, 40483, 40194, 40132, 40263, 40336, 40518, 40003, 40717, 40360, 40375, 39911, 40088, 39971, 39797, 39706, 40472, 40581, 40497, 40185, 40052, 40008, 39824, 39817, 39758, 40289, 40465, 40040, 41061, 41033, 40813, 40016, 40502, 40918, 40169, 40561, 41037, 41003, 40769, 40792, 40468, 40500, 40459, 40521, 40566, 41030, 40787, 40635, 40664, 41075, 40850, 41186, 40811, 41256, 40946, 41439, 41209, 41357, 41557, 41313, 41615, 41883, 41449, 41635, 41682, 41624, 41459, 42230, 41213, 41162, 41238, 41303, 41729, 41608, 41875, 41560, 41823, 41341, 41262],
      "WindowCenter": [10051.0, 10002.0, 9995.0, 9995.0, 10004.0, 10027.0, 10032.0, 10024.0, 10001.0, 10003.0, 10009.0, 10017.0, 10027.0, 10022.0, 10014.0, 10001.0, 9996.0, 9995.0, 9994.0, 9973.0, 9969.0, 9982.0, 9995.0, 10010.0, 10011.0, 9993.0, 9975.0, 9981.0, 9995.0, 10000.0, 10001.0, 10002.0, 9996.0, 9995.0, 9988.0, 9991.0, 9977.0, 9970.0, 9969.0, 9973.0, 9982.0, 9983.0, 9974.0, 9960.0, 9965.0, 9980.0, 9990.0, 9983.0, 9988.0, 9975.0, 9974.0, 9976.0, 9984.0, 9983.0, 9976.0, 9977.0, 9982.0, 9983.0, 9981.0, 9974.0, 9976.0, 9977.0, 9970.0, 9976.0, 9971.0, 9975.0, 9967.0, 9974.0, 9993.0, 9988.0, 9974.0, 9958.0, 9962.0, 9961.0, 9964.0, 9963.0, 9957.0, 9963.0, 9956.0, 9964.0, 9980.0, 9994.0, 9989.0, 9997.0, 9998.0, 10003.0, 10005.0, 10008.0, 10016.0, 10013.0, 10005.0, 9997.0, 9995.0, 10002.0, 10004.0, 10004.0, 10004.0, 10003.0, 10001.0, 9995.0, 10001.0, 10001.0, 9993.0, 9979.0, 9967.0, 9966.0, 9966.0, 9966.0, 9960.0, 9954.0, 9958.0, 9965.0, 9984.0, 9987.0, 9982.0, 9967.0, 9964.0, 9966.0, 9962.0],
      "WindowWidth": [21580.0, 21434.0, 21393.0, 21386.0, 21402.0, 21448.0, 21460.0, 21444.0, 21394.0, 21390.0, 21399.0, 21417.0, 21439.0, 21432.0, 21413.0, 21381.0, 21369.0, 21371.0, 21369.0, 21326.0, 21314.0, 21339.0, 21369.0, 21407.0, 21408.0, 21369.0, 21332.0, 21340.0, 21373.0, 21387.0, 21392.0, 21395.0, 21383.0, 21380.0, 21364.0, 21364.0, 21335.0, 21322.0, 21320.0, 21325.0, 21344.0, 21347.0, 21327.0, 21299.0, 21305.0, 21339.0, 21358.0, 21347.0, 21353.0, 21327.0, 21325.0, 21333.0, 21350.0, 21348.0, 21334.0, 21337.0, 21347.0, 21347.0, 21340.0, 21326.0, 21332.0, 21336.0, 21321.0, 21334.0, 21324.0, 21329.0, 21311.0, 21324.0, 21362.0, 21352.0, 21323.0, 21290.0, 21292.0, 21292.0, 21298.0, 21299.0, 21285.0, 21294.0, 21282.0, 21299.0, 21334.0, 21366.0, 21358.0, 21373.0, 21377.0, 21385.0, 21392.0, 21402.0, 21416.0, 21410.0, 21390.0, 21373.0, 21368.0, 21384.0, 21388.0, 21389.0, 21388.0, 21384.0, 21379.0, 21366.0, 21377.0, 21378.0, 21361.0, 21331.0, 21303.0, 21300.0, 21298.0, 21297.0, 21288.0, 21274.0, 21282.0, 21295.0, 21340.0, 21350.0, 21335.0, 21301.0, 21291.0, 21297.0, 21294.0]
    },
    "slices": {}
  }
}