{
  "AcquisitionMatrixPE": 104,
  "AcquisitionNumber": 1,
  "AcquisitionTime": "14:54:5.785000",
  "BandwidthPerPixelPhaseEncode": 17.17,
  "BaseResolution": 104,
  "BodyPartExamined": "BRAIN",
  "CoilString": "HC1-7;NC1_2",
  "ConsistencyInfo": "N4_VE11C_LATEST_20160120",
  "ConversionSoftware": "dcm2niix",
  "ConversionSoftwareVersion": "v1.0.20190902",
  "DerivedVendorReportedEchoSpacing": 0.000560011,
  "DeviceSerialNumber": "167006",
  "DwellTime": 2.1e-06,
  "EchoTime": 0.037,
  "EchoTrainLength": 104,
  "EffectiveEchoSpacing": 0.000560011,
  "FlipAngle": 52,
  "ImageComments": "Unaliased_MB4_PE3_LB",
  "ImageOrientationPatientDICOM": [0.997518, 0.00451702, -0.0702692, -0.0193275, 0.977176, -0.211552],
  "ImageType": [
    "ORIGINAL",
    "PRIMARY",
    "M",
    "MB",
    "ND",
    "MOSAIC"
],
  "ImagingFrequency": 123.259,
  "InPlanePhaseEncodingDirectionDICOM": "COL",
  "InstitutionAddress": "Chemin_Queen-Mary_4565_Montreal_District_CA_H3W_1W5",
  "InstitutionName": "IUGM",
  "InstitutionalDepartmentName": "Department",
  "MRAcquisitionType": "2D",
  "MagneticFieldStrength": 3,
  "Manufacturer": "Siemens",
  "ManufacturersModelName": "Prisma_fit",
  "Modality": "MR",
  "MultibandAccelerationFactor": 4,
  "PartialFourier": 1,
  "PatientPosition": "HFS",
  "PercentPhaseFOV": 100,
  "PhaseEncodingDirection": "j",
  "PhaseEncodingSteps": 104,
  "PhaseResolution": 1,
  "PixelBandwidth": 2290,
  "ProcedureStepDescription": "hcptrt_generic",
  "ProtocolName": "func_task-motor_run-2",
  "PulseSequenceDetails": "%CustomerSeq%_cmrr_mbep2d_bold",
  "ReceiveCoilActiveElements": "HC1-7;NC1,2",
  "ReceiveCoilName": "HeadNeck_64",
  "ReconMatrixPE": 104,
  "RepetitionTime": 1.49,
  "SAR": 0.0303379,
  "ScanOptions": "FS",
  "ScanningSequence": "EP",
  "SequenceName": "epfid2d1_104",
  "SequenceVariant": "SK_SS",
  "SeriesDescription": "func_task-motor_run-2",
  "SeriesNumber": 25,
  "ShimSetting": [594, -7267, -8853, 590, -62, -358, -10, 62],
  "SliceThickness": 2,
  "SliceTiming": [0, 0.785, 0.0975, 0.8825, 0.1975, 0.98, 0.295, 1.0775, 0.3925, 1.1775, 0.49, 1.275, 0.5875, 1.3725, 0.6875, 0, 0.785, 0.0975, 0.8825, 0.1975, 0.98, 0.295, 1.0775, 0.3925, 1.1775, 0.49, 1.275, 0.5875, 1.3725, 0.6875, 0, 0.785, 0.0975, 0.8825, 0.1975, 0.98, 0.295, 1.0775, 0.3925, 1.1775, 0.49, 1.275, 0.5875, 1.3725, 0.6875, 0, 0.785, 0.0975, 0.8825, 0.1975, 0.98, 0.295, 1.0775, 0.3925, 1.1775, 0.49, 1.275, 0.5875, 1.3725, 0.6875],
  "SoftwareVersions": "syngo_MR_E11",
  "SpacingBetweenSlices": 2,
  "StationName": "MRC35049",
  "TaskName": "motor",
  "TotalReadoutTime": 0.0576811,
  "TxRefAmp": 221.262,
  "WipMemBlock": "f71fcc7d-576f-4406-b8af-d984c4a76e21||Sequence: R016 ve11c/master r/e634e98; Dec 19 2017 11:00:25 by eja",
  "dcmmeta_affine": [
    [-1.9950356483459473, -0.038655009120702744, -0.13541953265666962, 108.4046859741211],
    [-0.009034045040607452, 1.9543511867523193, -0.4247704744338989, -74.20597076416016],
    [-0.14053840935230255, 0.4231044352054596, 1.9496747255325317, -49.61323165893555],
    [0.0, 0.0, 0.0, 1.0]
],
  "dcmmeta_reorient_transform": [
    [0.0, -1.0, 0.0, 103.0],
    [1.0, 0.0, 0.0, 0.0],
    [0.0, 0.0, 1.0, 0.0],
    [0.0, 0.0, 0.0, 1.0]
],
  "dcmmeta_shape": [104, 104, 60, 144],
  "dcmmeta_slice_dim": 2,
  "dcmmeta_version": 0.6,
  "global": {
    "const": {
      "AcquisitionMatrix": [104, 0, 0, 104],
      "AngioFlag": "N",
      "BitsAllocated": 16,
      "BitsStored": 16,
      "BodyPartExamined": "BRAIN",
      "Columns": 832,
      "EchoNumbers": 1,
      "EchoTime": 37.0,
      "EchoTrainLength": 104,
      "FlipAngle": 52.0,
      "HighBit": 15,
      "ImageOrientationPatient": [0.99751783699564, 0.00451702255303, -0.0702692065047, -0.0193275050859, 0.97717557470719, -0.2115522246228],
      "ImagePositionPatient": [-816.54577789615, -841.7644052424, 199.13252756084],
      "ImageType": [
        "ORIGINAL",
        "PRIMARY",
        "M",
        "MB",
        "ND",
        "MOSAIC"
],
      "ImagedNucleus": "1H",
      "ImagingFrequency": 123.259399,
      "InPlanePhaseEncodingDirection": "COL",
      "MRAcquisitionType": "2D",
      "MagneticFieldStrength": 3.0,
      "Manufacturer": "SIEMENS",
      "ManufacturerModelName": "Prisma_fit",
      "Modality": "MR",
      "NumberOfAverages": 1.0,
      "NumberOfPhaseEncodingSteps": 104,
      "PercentPhaseFieldOfView": 100.0,
      "PercentSampling": 100.0,
      "PerformedProcedureStepStartTime": "141236.510000",
      "PhotometricInterpretation": "MONOCHROME2",
      "PixelBandwidth": 2290.0,
      "PixelRepresentation": 0,
      "PixelSpacing": [2.0, 2.0],
      "ProtocolName": "func_task-motor_run-2",
      "RepetitionTime": 1490.0,
      "Rows": 832,
      "SAR": 0.03033790841678,
      "SamplesPerPixel": 1,
      "ScanOptions": "FS",
      "ScanningSequence": "EP",
      "SequenceName": "epfid2d1_104",
      "SequenceVariant": [
        "SK",
        "SS"
],
      "SeriesDescription": "func_task-motor_run-2",
      "SeriesNumber": 25,
      "SeriesTime": "145520.909000",
      "SliceLocation": -39.944634731289,
      "SliceThickness": 2.0,
      "SmallestImagePixelValue": 0,
      "SoftwareVersions": "syngo MR E11",
      "SpacingBetweenSlices": 1.9999999612374,
      "SpecificCharacterSet": "ISO_IR 100",
      "StudyID": "1",
      "StudyTime": "141236.442000",
      "TransmitCoilName": "Body",
      "VariableFlipAngleFlag": "N",
      "WindowCenterWidthExplanation": "Algo1",
      "dBdt": 0.0},
    "slices": {}
  },
  "time": {
    "samples": {
      "AcquisitionNumber": [1, 2, 3, 4, 5, 6, 7, 8, 9, 10, 11, 12, 13, 14, 15, 16, 17, 18, 19, 20, 21, 22, 23, 24, 25, 26, 27, 28, 29, 30, 31, 32, 33, 34, 35, 36, 37, 38, 39, 40, 41, 42, 43, 44, 45, 46, 47, 48, 49, 50, 51, 52, 53, 54, 55, 56, 57, 58, 59, 60, 61, 62, 63, 64, 65, 66, 67, 68, 69, 70, 71, 72, 73, 74, 75, 76, 77, 78, 79, 80, 81, 82, 83, 84, 85, 86, 87, 88, 89, 90, 91, 92, 93, 94, 95, 96, 97, 98, 99, 100, 101, 102, 103, 104, 105, 106, 107, 108, 109, 110, 111, 112, 113, 114, 115, 116, 117, 118, 119, 120, 121, 122, 123, 124, 125, 126, 127, 128, 129, 130, 131, 132, 133, 134, 135, 136, 137, 138, 139, 140, 141, 142, 143, 144],
      "AcquisitionTime": ["145405.785000", "145407.275000", "145408.765000", "145410.255000", "145411.745000", "145413.235000", "145414.725000", "145416.215000", "145417.705000", "145419.195000", "145420.685000", "145422.175000", "145423.665000", "145425.155000", "145426.645000", "145428.135000", "145429.625000", "145431.115000", "145432.605000", "145434.095000", "145435.585000", "145437.075000", "145438.565000", "145440.055000", "145441.545000", "145443.035000", "145444.525000", "145446.015000", "145447.505000", "145448.995000", "145450.485000", "145451.975000", "145453.465000", "145454.955000", "145456.445000", "145457.935000", "145459.425000", "145500.915000", "145502.405000", "145503.895000", "145505.385000", "145506.875000", "145508.365000", "145509.855000", "145511.345000", "145512.835000", "145514.325000", "145515.815000", "145517.305000", "145518.795000", "145520.285000", "145521.775000", "145523.265000", "145524.755000", "145526.245000", "145527.735000", "145529.225000", "145530.715000", "145532.205000", "145533.695000", "145535.185000", "145536.675000", "145538.165000", "145539.655000", "145541.145000", "145542.635000", "145544.125000", "145545.615000", "145547.105000", "145548.595000", "145550.085000", "145551.575000", "145553.065000", "145554.555000", "145556.045000", "145557.535000", "145559.025000", "145600.515000", "145602.005000", "145603.495000", "145604.985000", "145606.475000", "145607.965000", "145609.455000", "145610.945000", "145612.435000", "145613.925000", "145615.415000", "145616.905000", "145618.395000", "145619.885000", "145621.375000", "145622.865000", "145624.355000", "145625.845000", "145627.335000", "145628.825000", "145630.315000", "145631.805000", "145633.295000", "145634.785000", "145636.275000", "145637.765000", "145639.255000", "145640.745000", "145642.235000", "145643.725000", "145645.215000", "145646.705000", "145648.195000", "145649.685000", "145651.175000", "145652.665000", "145654.155000", "145655.645000", "145657.135000", "145658.625000", "145700.115000", "145701.605000", "145703.095000", "145704.585000", "145706.075000", "145707.565000", "145709.055000", "145710.545000", "145712.035000", "145713.525000", "145715.015000", "145716.505000", "145717.995000", "145719.485000", "145720.975000", "145722.465000", "145723.955000", "145725.445000", "145726.935000", "145728.425000", "145729.915000", "145731.405000", "145732.895000", "145734.385000", "145735.875000", "145737.365000", "145738.855000"],
      "ContentTime": ["145520.913000", "145520.917000", "145520.920000", "145520.923000", "145520.927000", "145520.930000", "145520.933000", "145520.936000", "145520.939000", "145520.942000", "145520.945000", "145520.948000", "145520.957000", "145520.963000", "145520.966000", "145520.969000", "145520.972000", "145520.975000", "145520.978000", "145520.981000", "145520.984000", "145540.880000", "145540.883000", "145540.886000", "145540.889000", "145540.892000", "145540.895000", "145540.898000", "145540.901000", "145540.904000", "145540.907000", "145540.910000", "145540.914000", "145540.917000", "145540.920000", "145540.923000", "145540.926000", "145540.929000", "145540.932000", "145540.935000", "145540.938000", "145600.879000", "145600.882000", "145600.885000", "145600.888000", "145600.891000", "145600.894000", "145600.897000", "145600.900000", "145600.903000", "145600.906000", "145600.909000", "145600.912000", "145600.915000", "145600.918000", "145600.921000", "145600.924000", "145600.928000", "145600.931000", "145600.934000", "145600.937000", "145620.879000", "145620.882000", "145620.885000", "145620.888000", "145620.891000", "145620.894000", "145620.897000", "145620.900000", "145620.903000", "145620.906000", "145620.909000", "145620.912000", "145620.915000", "145620.919000", "145620.922000", "145620.924000", "145620.928000", "145620.931000", "145620.934000", "145620.937000", "145620.940000", "145640.879000", "145640.882000", "145640.885000", "145640.888000", "145640.891000", "145640.894000", "145640.897000", "145640.900000", "145640.904000", "145640.907000", "145640.909000", "145640.912000", "145640.916000", "145640.919000", "145640.921000", "145640.924000", "145640.928000", "145640.931000", "145640.934000", "145640.937000", "145720.880000", "145720.883000", "145720.886000", "145720.889000", "145720.893000", "145720.896000", "145720.899000", "145720.902000", "145720.905000", "145720.908000", "145720.911000", "145720.914000", "145720.917000", "145720.920000", "145720.923000", "145720.926000", "145720.929000", "145720.932000", "145720.935000", "145720.938000", "145720.941000", "145720.953000", "145720.956000", "145720.959000", "145720.962000", "145720.965000", "145720.968000", "145720.971000", "145740.798000", "145740.802000", "145740.805000", "145740.808000", "145740.819000", "145740.822000", "145740.825000", "145740.828000", "145740.831000", "145740.834000", "145740.838000", "145740.841000", "145740.864000", "145740.867000"],
      "InstanceCreationTime": ["145520.913000", "145520.917000", "145520.920000", "145520.923000", "145520.927000", "145520.930000", "145520.933000", "145520.936000", "145520.939000", "145520.942000", "145520.945000", "145520.948000", "145520.957000", "145520.963000", "145520.966000", "145520.969000", "145520.972000", "145520.975000", "145520.978000", "145520.981000", "145520.984000", "145540.880000", "145540.883000", "145540.886000", "145540.889000", "145540.892000", "145540.895000", "145540.898000", "145540.901000", "145540.904000", "145540.907000", "145540.910000", "145540.914000", "145540.917000", "145540.920000", "145540.923000", "145540.926000", "145540.929000", "145540.932000", "145540.935000", "145540.938000", "145600.879000", "145600.882000", "145600.885000", "145600.888000", "145600.891000", "145600.894000", "145600.897000", "145600.900000", "145600.903000", "145600.906000", "145600.909000", "145600.912000", "145600.915000", "145600.918000", "145600.921000", "145600.924000", "145600.928000", "145600.931000", "145600.934000", "145600.937000", "145620.879000", "145620.882000", "145620.885000", "145620.888000", "145620.891000", "145620.894000", "145620.897000", "145620.900000", "145620.903000", "145620.906000", "145620.909000", "145620.912000", "145620.915000", "145620.919000", "145620.922000", "145620.924000", "145620.928000", "145620.931000", "145620.934000", "145620.937000", "145620.940000", "145640.879000", "145640.882000", "145640.885000", "145640.888000", "145640.891000", "145640.894000", "145640.897000", "145640.900000", "145640.904000", "145640.907000", "145640.909000", "145640.912000", "145640.916000", "145640.919000", "145640.921000", "145640.924000", "145640.928000", "145640.931000", "145640.934000", "145640.937000", "145720.880000", "145720.883000", "145720.886000", "145720.889000", "145720.893000", "145720.896000", "145720.899000", "145720.902000", "145720.905000", "145720.908000", "145720.911000", "145720.914000", "145720.917000", "145720.920000", "145720.923000", "145720.926000", "145720.929000", "145720.932000", "145720.935000", "145720.938000", "145720.941000", "145720.953000", "145720.956000", "145720.959000", "145720.962000", "145720.965000", "145720.968000", "145720.971000", "145740.798000", "145740.802000", "145740.805000", "145740.808000", "145740.819000", "145740.822000", "145740.825000", "145740.828000", "145740.831000", "145740.834000", "145740.838000", "145740.841000", "145740.864000", "145740.867000"],
      "InstanceNumber": [1, 2, 3, 4, 5, 6, 7, 8, 9, 10, 11, 12, 13, 14, 15, 16, 17, 18, 19, 20, 21, 22, 23, 24, 25, 26, 27, 28, 29, 30, 31, 32, 33, 34, 35, 36, 37, 38, 39, 40, 41, 42, 43, 44, 45, 46, 47, 48, 49, 50, 51, 52, 53, 54, 55, 56, 57, 58, 59, 60, 61, 62, 63, 64, 65, 66, 67, 68, 69, 70, 71, 72, 73, 74, 75, 76, 77, 78, 79, 80, 81, 82, 83, 84, 85, 86, 87, 88, 89, 90, 91, 92, 93, 94, 95, 96, 97, 98, 99, 100, 101, 102, 103, 104, 105, 106, 107, 108, 109, 110, 111, 112, 113, 114, 115, 116, 117, 118, 119, 120, 121, 122, 123, 124, 125, 126, 127, 128, 129, 130, 131, 132, 133, 134, 135, 136, 137, 138, 139, 140, 141, 142, 143, 144],
      "LargestImagePixelValue": [44414, 43280, 42560, 42499, 42223, 41997, 41991, 42163, 42132, 41631, 42159, 41919, 42237, 41840, 42012, 42024, 41671, 42406, 42362, 42395, 42233, 42164, 42389, 42399, 42364, 42619, 41915, 41978, 42003, 42197, 42576, 41978, 42126, 42511, 42098, 42496, 42316, 42784, 43257, 43276, 43553, 43253, 43010, 43486, 42680, 43303, 43061, 42978, 42943, 42460, 43231, 42759, 42302, 43140, 42811, 42959, 43376, 42606, 43533, 42760, 42614, 42532, 42170, 42851, 42944, 42576, 42920, 41780, 42871, 43039, 42875, 42898, 42424, 43743, 42999, 43693, 43849, 43205, 42831, 42870, 42714, 42346, 42997, 42816, 43371, 42874, 43457, 43004, 42867, 43164, 42808, 43136, 42514, 42509, 42917, 44091, 44061, 42980, 43483, 43343, 43208, 42225, 42707, 42255, 42593, 42944, 43526, 43675, 43335, 43377, 42887, 42989, 42906, 43040, 43449, 43609, 43338, 43686, 43305, 43235, 42653, 42970, 42569, 42559, 42866, 42985, 43168, 42873, 43432, 42734, 43268, 43122, 43067, 42905, 42992, 43052, 43322, 43127, 43054, 42662, 43107, 42881, 43346, 42958],
      "WindowCenter": [9982.0, 9943.0, 9925.0, 9914.0, 9897.0, 9880.0, 9885.0, 9892.0, 9891.0, 9893.0, 9899.0, 9893.0, 9892.0, 9883.0, 9885.0, 9890.0, 9884.0, 9897.0, 9896.0, 9897.0, 9883.0, 9875.0, 9872.0, 9870.0, 9874.0, 9886.0, 9876.0, 9883.0, 9877.0, 9882.0, 9893.0, 9898.0, 9900.0, 9898.0, 9891.0, 9881.0, 9874.0, 9883.0, 9893.0, 9901.0, 9900.0, 9884.0, 9869.0, 9866.0, 9869.0, 9884.0, 9901.0, 9896.0, 9893.0, 9893.0, 9893.0, 9886.0, 9873.0, 9877.0, 9870.0, 9867.0, 9864.0, 9859.0, 9864.0, 9858.0, 9859.0, 9857.0, 9860.0, 9866.0, 9868.0, 9868.0, 9868.0, 9863.0, 9876.0, 9876.0, 9883.0, 9882.0, 9893.0, 9908.0, 9902.0, 9888.0, 9885.0, 9872.0, 9858.0, 9863.0, 9842.0, 9817.0, 9803.0, 9803.0, 9821.0, 9832.0, 9857.0, 9871.0, 9882.0, 9888.0, 9882.0, 9870.0, 9857.0, 9853.0, 9861.0, 9882.0, 9884.0, 9863.0, 9857.0, 9825.0, 9806.0, 9783.0, 9768.0, 9754.0, 9752.0, 9759.0, 9772.0, 9789.0, 9793.0, 9800.0, 9814.0, 9836.0, 9843.0, 9841.0, 9841.0, 9857.0, 9869.0, 9884.0, 9886.0, 9879.0, 9871.0, 9861.0, 9844.0, 9833.0, 9830.0, 9833.0, 9847.0, 9858.0, 9857.0, 9858.0, 9866.0, 9874.0, 9882.0, 9893.0, 9894.0, 9900.0, 9892.0, 9892.0, 9901.0, 9889.0, 9870.0, 9843.0, 9816.0, 9797.0],
      "WindowWidth": [21345.0, 21230.0, 21176.0, 21139.0, 21099.0, 21057.0, 21066.0, 21078.0, 21071.0, 21079.0, 21091.0, 21077.0, 21074.0, 21054.0, 21060.0, 21070.0, 21057.0, 21084.0, 21083.0, 21083.0, 21056.0, 21037.0, 21030.0, 21027.0, 21035.0, 21059.0, 21039.0, 21055.0, 21045.0, 21053.0, 21072.0, 21086.0, 21092.0, 21087.0, 21073.0, 21050.0, 21033.0, 21051.0, 21071.0, 21088.0, 21086.0, 21048.0, 21017.0, 21010.0, 21020.0, 21052.0, 21085.0, 21080.0, 21071.0, 21070.0, 21070.0, 21053.0, 21029.0, 21035.0, 21020.0, 21011.0, 21002.0, 20994.0, 21003.0, 20990.0, 20994.0, 20987.0, 20993.0, 21010.0, 21015.0, 21013.0, 21013.0, 21004.0, 21029.0, 21029.0, 21046.0, 21045.0, 21070.0, 21101.0, 21092.0, 21054.0, 21046.0, 21020.0, 20993.0, 21003.0, 20959.0, 20905.0, 20867.0, 20865.0, 20900.0, 20929.0, 20982.0, 21017.0, 21045.0, 21054.0, 21043.0, 21014.0, 20987.0, 20979.0, 20998.0, 21040.0, 21049.0, 21001.0, 20981.0, 20911.0, 20870.0, 20822.0, 20781.0, 20753.0, 20748.0, 20765.0, 20790.0, 20828.0, 20841.0, 20853.0, 20889.0, 20938.0, 20952.0, 20946.0, 20946.0, 20982.0, 21013.0, 21045.0, 21051.0, 21037.0, 21018.0, 20992.0, 20953.0, 20930.0, 20922.0, 20933.0, 20960.0, 20985.0, 20981.0, 20985.0, 21003.0, 21023.0, 21039.0, 21065.0, 21070.0, 21081.0, 21065.0, 21064.0, 21081.0, 21056.0, 21011.0, 20952.0, 20895.0, 20850.0]
    },
    "slices": {}
  }
}