{
  "AcquisitionMatrixPE": 104,
  "AcquisitionNumber": 1,
  "AcquisitionTime": "14:45:55.145000",
  "BandwidthPerPixelPhaseEncode": 17.17,
  "BaseResolution": 104,
  "BodyPartExamined": "BRAIN",
  "CoilString": "HC1-7;NC1_2",
  "ConsistencyInfo": "N4_VE11C_LATEST_20160120",
  "ConversionSoftware": "dcm2niix",
  "ConversionSoftwareVersion": "v1.0.20190902",
  "DerivedVendorReportedEchoSpacing": 0.000560011,
  "DeviceSerialNumber": "167006",
  "DwellTime": 2.1e-06,
  "EchoTime": 0.037,
  "EchoTrainLength": 104,
  "EffectiveEchoSpacing": 0.000560011,
  "FlipAngle": 52,
  "ImageComments": "Unaliased_MB4_PE3_LB",
  "ImageOrientationPatientDICOM": [0.997518, 0.00451702, -0.0702692, -0.0193275, 0.977176, -0.211552],
  "ImageType": [
    "ORIGINAL",
    "PRIMARY",
    "M",
    "MB",
    "ND",
    "MOSAIC"
],
  "ImagingFrequency": 123.259,
  "InPlanePhaseEncodingDirectionDICOM": "COL",
  "InstitutionAddress": "Chemin_Queen-Mary_4565_Montreal_District_CA_H3W_1W5",
  "InstitutionName": "IUGM",
  "InstitutionalDepartmentName": "Department",
  "MRAcquisitionType": "2D",
  "MagneticFieldStrength": 3,
  "Manufacturer": "Siemens",
  "ManufacturersModelName": "Prisma_fit",
  "Modality": "MR",
  "MultibandAccelerationFactor": 4,
  "PartialFourier": 1,
  "PatientPosition": "HFS",
  "PercentPhaseFOV": 100,
  "PhaseEncodingDirection": "j",
  "PhaseEncodingSteps": 104,
  "PhaseResolution": 1,
  "PixelBandwidth": 2290,
  "ProcedureStepDescription": "hcptrt_generic",
  "ProtocolName": "func_task-relational_run-1",
  "PulseSequenceDetails": "%CustomerSeq%_cmrr_mbep2d_bold",
  "ReceiveCoilActiveElements": "HC1-7;NC1,2",
  "ReceiveCoilName": "HeadNeck_64",
  "ReconMatrixPE": 104,
  "RepetitionTime": 1.49,
  "SAR": 0.030256,
  "ScanOptions": "FS",
  "ScanningSequence": "EP",
  "SequenceName": "epfid2d1_104",
  "SequenceVariant": "SK_SS",
  "SeriesDescription": "func_task-relational_run-1",
  "SeriesNumber": 21,
  "ShimSetting": [594, -7267, -8853, 590, -62, -358, -10, 62],
  "SliceThickness": 2,
  "SliceTiming": [0, 0.7825, 0.0975, 0.88, 0.195, 0.98, 0.2925, 1.0775, 0.39, 1.175, 0.49, 1.2725, 0.5875, 1.37, 0.685, 0, 0.7825, 0.0975, 0.88, 0.195, 0.98, 0.2925, 1.0775, 0.39, 1.175, 0.49, 1.2725, 0.5875, 1.37, 0.685, 0, 0.7825, 0.0975, 0.88, 0.195, 0.98, 0.2925, 1.0775, 0.39, 1.175, 0.49, 1.2725, 0.5875, 1.37, 0.685, 0, 0.7825, 0.0975, 0.88, 0.195, 0.98, 0.2925, 1.0775, 0.39, 1.175, 0.49, 1.2725, 0.5875, 1.37, 0.685],
  "SoftwareVersions": "syngo_MR_E11",
  "SpacingBetweenSlices": 2,
  "StationName": "MRC35049",
  "TaskName": "relational",
  "TotalReadoutTime": 0.0576811,
  "TxRefAmp": 221.262,
  "WipMemBlock": "85452aa5-df87-452a-88ae-99e92183ebb3||Sequence: R016 ve11c/master r/e634e98; Dec 19 2017 11:00:25 by eja",
  "dcmmeta_affine": [
    [-1.9950356483459473, -0.038655009120702744, -0.13541953265666962, 108.4046859741211],
    [-0.009034045040607452, 1.9543511867523193, -0.4247704744338989, -74.20597076416016],
    [-0.14053840935230255, 0.4231044352054596, 1.9496747255325317, -49.61323165893555],
    [0.0, 0.0, 0.0, 1.0]
],
  "dcmmeta_reorient_transform": [
    [0.0, -1.0, 0.0, 103.0],
    [1.0, 0.0, 0.0, 0.0],
    [0.0, 0.0, 1.0, 0.0],
    [0.0, 0.0, 0.0, 1.0]
],
  "dcmmeta_shape": [104, 104, 60, 119],
  "dcmmeta_slice_dim": 2,
  "dcmmeta_version": 0.6,
  "global": {
    "const": {
      "AcquisitionMatrix": [104, 0, 0, 104],
      "AngioFlag": "N",
      "BitsAllocated": 16,
      "BitsStored": 16,
      "BodyPartExamined": "BRAIN",
      "Columns": 832,
      "EchoNumbers": 1,
      "EchoTime": 37.0,
      "EchoTrainLength": 104,
      "FlipAngle": 52.0,
      "HighBit": 15,
      "ImageOrientationPatient": [0.99751783699564, 0.00451702255303, -0.0702692065047, -0.0193275050859, 0.97717557470719, -0.2115522246228],
      "ImagePositionPatient": [-816.54577789615, -841.7644052424, 199.13252756084],
      "ImageType": [
        "ORIGINAL",
        "PRIMARY",
        "M",
        "MB",
        "ND",
        "MOSAIC"
],
      "ImagedNucleus": "1H",
      "ImagingFrequency": 123.259401,
      "InPlanePhaseEncodingDirection": "COL",
      "MRAcquisitionType": "2D",
      "MagneticFieldStrength": 3.0,
      "Manufacturer": "SIEMENS",
      "ManufacturerModelName": "Prisma_fit",
      "Modality": "MR",
      "NumberOfAverages": 1.0,
      "NumberOfPhaseEncodingSteps": 104,
      "PercentPhaseFieldOfView": 100.0,
      "PercentSampling": 100.0,
      "PerformedProcedureStepStartTime": "141236.510000",
      "PhotometricInterpretation": "MONOCHROME2",
      "PixelBandwidth": 2290.0,
      "PixelRepresentation": 0,
      "PixelSpacing": [2.0, 2.0],
      "ProtocolName": "func_task-relational_run-1",
      "RepetitionTime": 1490.0,
      "Rows": 832,
      "SAR": 0.030256039137,
      "SamplesPerPixel": 1,
      "ScanOptions": "FS",
      "ScanningSequence": "EP",
      "SequenceName": "epfid2d1_104",
      "SequenceVariant": [
        "SK",
        "SS"
],
      "SeriesDescription": "func_task-relational_run-1",
      "SeriesNumber": 21,
      "SeriesTime": "144659.120000",
      "SliceLocation": -39.944634731289,
      "SliceThickness": 2.0,
      "SmallestImagePixelValue": 0,
      "SoftwareVersions": "syngo MR E11",
      "SpacingBetweenSlices": 1.9999999612374,
      "SpecificCharacterSet": "ISO_IR 100",
      "StudyID": "1",
      "StudyTime": "141236.442000",
      "TransmitCoilName": "Body",
      "VariableFlipAngleFlag": "N",
      "WindowCenterWidthExplanation": "Algo1",
      "dBdt": 0.0},
    "slices": {}
  },
  "time": {
    "samples": {
      "AcquisitionNumber": [1, 2, 3, 4, 5, 6, 7, 8, 9, 10, 11, 12, 13, 14, 15, 16, 17, 18, 19, 20, 21, 22, 23, 24, 25, 26, 27, 28, 29, 30, 31, 32, 33, 34, 35, 36, 37, 38, 39, 40, 41, 42, 43, 44, 45, 46, 47, 48, 49, 50, 51, 52, 53, 54, 55, 56, 57, 58, 59, 60, 61, 62, 63, 64, 65, 66, 67, 68, 69, 70, 71, 72, 73, 74, 75, 76, 77, 78, 79, 80, 81, 82, 83, 84, 85, 86, 87, 88, 89, 90, 91, 92, 93, 94, 95, 96, 97, 98, 99, 100, 101, 102, 103, 104, 105, 106, 107, 108, 109, 110, 111, 112, 113, 114, 115, 116, 117, 118, 119],
      "AcquisitionTime": ["144555.145000", "144556.635000", "144558.125000", "144559.615000", "144601.105000", "144602.595000", "144604.085000", "144605.575000", "144607.065000", "144608.555000", "144610.045000", "144611.535000", "144613.025000", "144614.515000", "144616.005000", "144617.495000", "144618.985000", "144620.475000", "144621.965000", "144623.455000", "144624.945000", "144626.435000", "144627.925000", "144629.415000", "144630.905000", "144632.395000", "144633.885000", "144635.375000", "144636.865000", "144638.355000", "144639.845000", "144641.335000", "144642.825000", "144644.315000", "144645.805000", "144647.295000", "144648.785000", "144650.275000", "144651.765000", "144653.255000", "144654.745000", "144656.235000", "144657.725000", "144659.215000", "144700.705000", "144702.195000", "144703.685000", "144705.175000", "144706.665000", "144708.155000", "144709.645000", "144711.135000", "144712.625000", "144714.115000", "144715.605000", "144717.095000", "144718.585000", "144720.075000", "144721.565000", "144723.055000", "144724.545000", "144726.035000", "144727.525000", "144729.015000", "144730.505000", "144731.995000", "144733.485000", "144734.975000", "144736.465000", "144737.955000", "144739.445000", "144740.935000", "144742.425000", "144743.915000", "144745.405000", "144746.895000", "144748.385000", "144749.875000", "144751.365000", "144752.855000", "144754.345000", "144755.835000", "144757.325000", "144758.815000", "144800.305000", "144801.795000", "144803.285000", "144804.775000", "144806.265000", "144807.755000", "144809.245000", "144810.735000", "144812.225000", "144813.715000", "144815.205000", "144816.695000", "144818.185000", "144819.675000", "144821.165000", "144822.655000", "144824.145000", "144825.635000", "144827.125000", "144828.615000", "144830.105000", "144831.595000", "144833.085000", "144834.575000", "144836.065000", "144837.555000", "144839.045000", "144840.535000", "144842.025000", "144843.515000", "144845.005000", "144846.495000", "144847.985000", "144849.475000", "144850.965000"],
      "ContentTime": ["144659.124000", "144659.129000", "144659.132000", "144659.135000", "144659.138000", "144659.141000", "144659.144000", "144659.147000", "144659.154000", "144659.157000", "144719.091000", "144719.099000", "144719.102000", "144719.105000", "144719.108000", "144719.111000", "144719.114000", "144719.117000", "144719.120000", "144719.123000", "144719.127000", "144719.130000", "144719.133000", "144719.136000", "144719.139000", "144719.142000", "144719.145000", "144719.149000", "144719.152000", "144719.155000", "144739.091000", "144739.094000", "144739.097000", "144739.100000", "144739.103000", "144739.106000", "144739.109000", "144739.112000", "144739.116000", "144739.119000", "144739.122000", "144739.125000", "144739.128000", "144739.130000", "144739.134000", "144739.137000", "144739.140000", "144739.142000", "144739.146000", "144739.149000", "144759.091000", "144759.094000", "144759.097000", "144759.100000", "144759.103000", "144759.106000", "144759.110000", "144759.113000", "144759.115000", "144759.119000", "144759.122000", "144759.125000", "144759.128000", "144759.131000", "144759.134000", "144759.137000", "144759.140000", "144759.143000", "144759.146000", "144759.149000", "144819.091000", "144819.094000", "144819.097000", "144819.100000", "144819.103000", "144819.106000", "144819.110000", "144819.113000", "144819.116000", "144819.119000", "144819.122000", "144819.125000", "144819.128000", "144819.131000", "144819.134000", "144819.137000", "144819.140000", "144819.143000", "144819.146000", "144819.149000", "144852.898000", "144852.904000", "144852.909000", "144852.912000", "144852.922000", "144852.925000", "144852.929000", "144852.933000", "144852.937000", "144852.940000", "144852.944000", "144852.947000", "144852.951000", "144852.954000", "144852.957000", "144852.960000", "144852.963000", "144852.973000", "144852.976000", "144852.980000", "144852.983000", "144852.986000", "144852.989000", "144852.992000", "144852.996000", "144853.000000", "144853.004000", "144853.007000", "144853.011000"],
      "InstanceCreationTime": ["144659.124000", "144659.129000", "144659.132000", "144659.135000", "144659.138000", "144659.141000", "144659.144000", "144659.147000", "144659.154000", "144659.157000", "144719.091000", "144719.099000", "144719.102000", "144719.105000", "144719.108000", "144719.111000", "144719.114000", "144719.117000", "144719.120000", "144719.123000", "144719.127000", "144719.130000", "144719.133000", "144719.136000", "144719.139000", "144719.142000", "144719.145000", "144719.149000", "144719.152000", "144719.155000", "144739.091000", "144739.094000", "144739.097000", "144739.100000", "144739.103000", "144739.106000", "144739.109000", "144739.112000", "144739.116000", "144739.119000", "144739.122000", "144739.125000", "144739.128000", "144739.130000", "144739.134000", "144739.137000", "144739.140000", "144739.142000", "144739.146000", "144739.149000", "144759.091000", "144759.094000", "144759.097000", "144759.100000", "144759.103000", "144759.106000", "144759.110000", "144759.113000", "144759.115000", "144759.119000", "144759.122000", "144759.125000", "144759.128000", "144759.131000", "144759.134000", "144759.137000", "144759.140000", "144759.143000", "144759.146000", "144759.149000", "144819.091000", "144819.094000", "144819.097000", "144819.100000", "144819.103000", "144819.106000", "144819.110000", "144819.113000", "144819.116000", "144819.119000", "144819.122000", "144819.125000", "144819.128000", "144819.131000", "144819.134000", "144819.137000", "144819.140000", "144819.143000", "144819.146000", "144819.149000", "144852.898000", "144852.904000", "144852.909000", "144852.912000", "144852.922000", "144852.925000", "144852.929000", "144852.933000", "144852.937000", "144852.940000", "144852.944000", "144852.947000", "144852.951000", "144852.954000", "144852.957000", "144852.960000", "144852.963000", "144852.973000", "144852.976000", "144852.980000", "144852.983000", "144852.986000", "144852.989000", "144852.992000", "144852.996000", "144853.000000", "144853.004000", "144853.007000", "144853.011000"],
      "InstanceNumber": [1, 2, 3, 4, 5, 6, 7, 8, 9, 10, 11, 12, 13, 14, 15, 16, 17, 18, 19, 20, 21, 22, 23, 24, 25, 26, 27, 28, 29, 30, 31, 32, 33, 34, 35, 36, 37, 38, 39, 40, 41, 42, 43, 44, 45, 46, 47, 48, 49, 50, 51, 52, 53, 54, 55, 56, 57, 58, 59, 60, 61, 62, 63, 64, 65, 66, 67, 68, 69, 70, 71, 72, 73, 74, 75, 76, 77, 78, 79, 80, 81, 82, 83, 84, 85, 86, 87, 88, 89, 90, 91, 92, 93, 94, 95, 96, 97, 98, 99, 100, 101, 102, 103, 104, 105, 106, 107, 108, 109, 110, 111, 112, 113, 114, 115, 116, 117, 118, 119],
      "LargestImagePixelValue": [43237, 42006, 42163, 40915, 41568, 41107, 41789, 42085, 42005, 42397, 42076, 42189, 42034, 41973, 41669, 41470, 41411, 41581, 40881, 41326, 41005, 41801, 41575, 41440, 41524, 41909, 41405, 40478, 41062, 41174, 41929, 41328, 41738, 41863, 42102, 42095, 42070, 41707, 41473, 41678, 41919, 41131, 41409, 41643, 41146, 41297, 41252, 41100, 40824, 41125, 40921, 40458, 40730, 40680, 40569, 41498, 41217, 41648, 41680, 41271, 41701, 41441, 41438, 41244, 40963, 40715, 41011, 40360, 40437, 40585, 40405, 40323, 40270, 40744, 40929, 40678, 40708, 40641, 40867, 40887, 40093, 40192, 40271, 39711, 40681, 41858, 41821, 39573, 39783, 40112, 40376, 40918, 40678, 40350, 40524, 40789, 40489, 39573, 41541, 41022, 40556, 39876, 40670, 40369, 40490, 40650, 41150, 40765, 40364, 39846, 41531, 40307, 39902, 43688, 42723, 41934, 41677, 41306, 42179],
      "WindowCenter": [9937.0, 9889.0, 9864.0, 9841.0, 9828.0, 9787.0, 9760.0, 9739.0, 9737.0, 9751.0, 9752.0, 9785.0, 9808.0, 9842.0, 9864.0, 9887.0, 9904.0, 9912.0, 9893.0, 9889.0, 9880.0, 9877.0, 9878.0, 9882.0, 9884.0, 9881.0, 9883.0, 9872.0, 9881.0, 9869.0, 9863.0, 9835.0, 9804.0, 9786.0, 9796.0, 9797.0, 9780.0, 9781.0, 9798.0, 9809.0, 9824.0, 9813.0, 9821.0, 9830.0, 9854.0, 9868.0, 9878.0, 9877.0, 9868.0, 9878.0, 9862.0, 9862.0, 9865.0, 9877.0, 9876.0, 9874.0, 9864.0, 9854.0, 9835.0, 9820.0, 9831.0, 9833.0, 9851.0, 9862.0, 9874.0, 9870.0, 9874.0, 9861.0, 9859.0, 9849.0, 9858.0, 9866.0, 9867.0, 9877.0, 9882.0, 9874.0, 9858.0, 9840.0, 9837.0, 9836.0, 9832.0, 9814.0, 9795.0, 9761.0, 9765.0, 9775.0, 9784.0, 9782.0, 9785.0, 9776.0, 9774.0, 9782.0, 9761.0, 9735.0, 9728.0, 9726.0, 9745.0, 9765.0, 9811.0, 9820.0, 9832.0, 9825.0, 9832.0, 9824.0, 9850.0, 9870.0, 9913.0, 9904.0, 9888.0, 9857.0, 9852.0, 9830.0, 9832.0, 9877.0, 9862.0, 9833.0, 9818.0, 9808.0, 9813.0],
      "WindowWidth": [21248.0, 21111.0, 21036.0, 20979.0, 20942.0, 20852.0, 20784.0, 20732.0, 20730.0, 20757.0, 20760.0, 20832.0, 20887.0, 20962.0, 21018.0, 21072.0, 21112.0, 21128.0, 21092.0, 21079.0, 21057.0, 21050.0, 21053.0, 21059.0, 21065.0, 21060.0, 21064.0, 21043.0, 21061.0, 21032.0, 21011.0, 20953.0, 20881.0, 20839.0, 20857.0, 20863.0, 20825.0, 20829.0, 20869.0, 20895.0, 20923.0, 20905.0, 20922.0, 20943.0, 20997.0, 21036.0, 21056.0, 21053.0, 21034.0, 21055.0, 21021.0, 21022.0, 21025.0, 21054.0, 21049.0, 21043.0, 21023.0, 20996.0, 20954.0, 20924.0, 20945.0, 20954.0, 20996.0, 21020.0, 21052.0, 21045.0, 21052.0, 21027.0, 21022.0, 20996.0, 21018.0, 21037.0, 21039.0, 21064.0, 21068.0, 21052.0, 21014.0, 20974.0, 20966.0, 20962.0, 20955.0, 20914.0, 20870.0, 20799.0, 20803.0, 20818.0, 20836.0, 20840.0, 20848.0, 20826.0, 20817.0, 20834.0, 20790.0, 20735.0, 20713.0, 20708.0, 20751.0, 20804.0, 20904.0, 20930.0, 20958.0, 20944.0, 20958.0, 20940.0, 20995.0, 21040.0, 21138.0, 21121.0, 21086.0, 21021.0, 21000.0, 20953.0, 20960.0, 21043.0, 21011.0, 20950.0, 20916.0, 20895.0, 20903.0]
    },
    "slices": {}
  }
}