{
  "AcquisitionMatrixPE": 104,
  "AcquisitionNumber": 1,
  "AcquisitionTime": "15:05:18.900000",
  "BandwidthPerPixelPhaseEncode": 17.17,
  "BaseResolution": 104,
  "BodyPartExamined": "BRAIN",
  "CoilString": "HC1-7;NC1_2",
  "ConsistencyInfo": "N4_VE11C_LATEST_20160120",
  "ConversionSoftware": "dcm2niix",
  "ConversionSoftwareVersion": "v1.0.20190902",
  "DerivedVendorReportedEchoSpacing": 0.000560011,
  "DeviceSerialNumber": "167006",
  "DwellTime": 2.1e-06,
  "EchoTime": 0.037,
  "EchoTrainLength": 104,
  "EffectiveEchoSpacing": 0.000560011,
  "FlipAngle": 52,
  "ImageComments": "Unaliased_MB4_PE3_LB",
  "ImageOrientationPatientDICOM": [0.997518, 0.00451702, -0.0702692, -0.0193275, 0.977176, -0.211552],
  "ImageType": [
    "ORIGINAL",
    "PRIMARY",
    "M",
    "MB",
    "ND",
    "MOSAIC"
],
  "ImagingFrequency": 123.259,
  "InPlanePhaseEncodingDirectionDICOM": "COL",
  "InstitutionAddress": "Chemin_Queen-Mary_4565_Montreal_District_CA_H3W_1W5",
  "InstitutionName": "IUGM",
  "InstitutionalDepartmentName": "Department",
  "MRAcquisitionType": "2D",
  "MagneticFieldStrength": 3,
  "Manufacturer": "Siemens",
  "ManufacturersModelName": "Prisma_fit",
  "Modality": "MR",
  "MultibandAccelerationFactor": 4,
  "PartialFourier": 1,
  "PatientPosition": "HFS",
  "PercentPhaseFOV": 100,
  "PhaseEncodingDirection": "j",
  "PhaseEncodingSteps": 104,
  "PhaseResolution": 1,
  "PixelBandwidth": 2290,
  "ProcedureStepDescription": "hcptrt_generic",
  "ProtocolName": "func_task-social_run-2",
  "PulseSequenceDetails": "%CustomerSeq%_cmrr_mbep2d_bold",
  "ReceiveCoilActiveElements": "HC1-7;NC1,2",
  "ReceiveCoilName": "HeadNeck_64",
  "ReconMatrixPE": 104,
  "RepetitionTime": 1.49,
  "SAR": 0.0303238,
  "ScanOptions": "FS",
  "ScanningSequence": "EP",
  "SequenceName": "epfid2d1_104",
  "SequenceVariant": "SK_SS",
  "SeriesDescription": "func_task-social_run-2",
  "SeriesNumber": 29,
  "ShimSetting": [594, -7267, -8853, 590, -62, -358, -10, 62],
  "SliceThickness": 2,
  "SliceTiming": [0, 0.7825, 0.0975, 0.8825, 0.195, 0.98, 0.2925, 1.0775, 0.3925, 1.175, 0.49, 1.2725, 0.5875, 1.3725, 0.685, 0, 0.7825, 0.0975, 0.8825, 0.195, 0.98, 0.2925, 1.0775, 0.3925, 1.175, 0.49, 1.2725, 0.5875, 1.3725, 0.685, 0, 0.7825, 0.0975, 0.8825, 0.195, 0.98, 0.2925, 1.0775, 0.3925, 1.175, 0.49, 1.2725, 0.5875, 1.3725, 0.685, 0, 0.7825, 0.0975, 0.8825, 0.195, 0.98, 0.2925, 1.0775, 0.3925, 1.175, 0.49, 1.2725, 0.5875, 1.3725, 0.685],
  "SoftwareVersions": "syngo_MR_E11",
  "SpacingBetweenSlices": 2,
  "StationName": "MRC35049",
  "TaskName": "social",
  "TotalReadoutTime": 0.0576811,
  "TxRefAmp": 221.262,
  "WipMemBlock": "b9b9923a-4e93-4913-9ef2-79d1dcf31b27||Sequence: R016 ve11c/master r/e634e98; Dec 19 2017 11:00:25 by eja",
  "dcmmeta_affine": [
    [-1.9950356483459473, -0.038655009120702744, -0.13541953265666962, 108.4046859741211],
    [-0.009034045040607452, 1.9543511867523193, -0.4247704744338989, -74.20597076416016],
    [-0.14053840935230255, 0.4231044352054596, 1.9496747255325317, -49.61323165893555],
    [0.0, 0.0, 0.0, 1.0]
],
  "dcmmeta_reorient_transform": [
    [0.0, -1.0, 0.0, 103.0],
    [1.0, 0.0, 0.0, 0.0],
    [0.0, 0.0, 1.0, 0.0],
    [0.0, 0.0, 0.0, 1.0]
],
  "dcmmeta_shape": [104, 104, 60, 139],
  "dcmmeta_slice_dim": 2,
  "dcmmeta_version": 0.6,
  "global": {
    "const": {
      "AcquisitionMatrix": [104, 0, 0, 104],
      "AngioFlag": "N",
      "BitsAllocated": 16,
      "BitsStored": 16,
      "BodyPartExamined": "BRAIN",
      "Columns": 832,
      "EchoNumbers": 1,
      "EchoTime": 37.0,
      "EchoTrainLength": 104,
      "FlipAngle": 52.0,
      "HighBit": 15,
      "ImageOrientationPatient": [0.99751783699564, 0.00451702255303, -0.0702692065047, -0.0193275050859, 0.97717557470719, -0.2115522246228],
      "ImagePositionPatient": [-816.54577789615, -841.7644052424, 199.13252756084],
      "ImageType": [
        "ORIGINAL",
        "PRIMARY",
        "M",
        "MB",
        "ND",
        "MOSAIC"
],
      "ImagedNucleus": "1H",
      "ImagingFrequency": 123.259403,
      "InPlanePhaseEncodingDirection": "COL",
      "MRAcquisitionType": "2D",
      "MagneticFieldStrength": 3.0,
      "Manufacturer": "SIEMENS",
      "ManufacturerModelName": "Prisma_fit",
      "Modality": "MR",
      "NumberOfAverages": 1.0,
      "NumberOfPhaseEncodingSteps": 104,
      "PercentPhaseFieldOfView": 100.0,
      "PercentSampling": 100.0,
      "PerformedProcedureStepStartTime": "141236.510000",
      "PhotometricInterpretation": "MONOCHROME2",
      "PixelBandwidth": 2290.0,
      "PixelRepresentation": 0,
      "PixelSpacing": [2.0, 2.0],
      "ProtocolName": "func_task-social_run-2",
      "RepetitionTime": 1490.0,
      "Rows": 832,
      "SAR": 0.03032377534231,
      "SamplesPerPixel": 1,
      "ScanOptions": "FS",
      "ScanningSequence": "EP",
      "SequenceName": "epfid2d1_104",
      "SequenceVariant": [
        "SK",
        "SS"
],
      "SeriesDescription": "func_task-social_run-2",
      "SeriesNumber": 29,
      "SeriesTime": "150625.203000",
      "SliceLocation": -39.944634731289,
      "SliceThickness": 2.0,
      "SmallestImagePixelValue": 0,
      "SoftwareVersions": "syngo MR E11",
      "SpacingBetweenSlices": 1.9999999612374,
      "SpecificCharacterSet": "ISO_IR 100",
      "StudyID": "1",
      "StudyTime": "141236.442000",
      "TransmitCoilName": "Body",
      "VariableFlipAngleFlag": "N",
      "WindowCenterWidthExplanation": "Algo1",
      "dBdt": 0.0},
    "slices": {}
  },
  "time": {
    "samples": {
      "AcquisitionNumber": [1, 2, 3, 4, 5, 6, 7, 8, 9, 10, 11, 12, 13, 14, 15, 16, 17, 18, 19, 20, 21, 22, 23, 24, 25, 26, 27, 28, 29, 30, 31, 32, 33, 34, 35, 36, 37, 38, 39, 40, 41, 42, 43, 44, 45, 46, 47, 48, 49, 50, 51, 52, 53, 54, 55, 56, 57, 58, 59, 60, 61, 62, 63, 64, 65, 66, 67, 68, 69, 70, 71, 72, 73, 74, 75, 76, 77, 78, 79, 80, 81, 82, 83, 84, 85, 86, 87, 88, 89, 90, 91, 92, 93, 94, 95, 96, 97, 98, 99, 100, 101, 102, 103, 104, 105, 106, 107, 108, 109, 110, 111, 112, 113, 114, 115, 116, 117, 118, 119, 120, 121, 122, 123, 124, 125, 126, 127, 128, 129, 130, 131, 132, 133, 134, 135, 136, 137, 138, 139],
      "AcquisitionTime": ["150518.900000", "150520.390000", "150521.880000", "150523.370000", "150524.860000", "150526.350000", "150527.840000", "150529.330000", "150530.820000", "150532.310000", "150533.800000", "150535.290000", "150536.780000", "150538.270000", "150539.760000", "150541.250000", "150542.740000", "150544.230000", "150545.720000", "150547.210000", "150548.700000", "150550.190000", "150551.680000", "150553.170000", "150554.660000", "150556.150000", "150557.640000", "150559.130000", "150600.620000", "150602.110000", "150603.600000", "150605.090000", "150606.580000", "150608.070000", "150609.560000", "150611.050000", "150612.540000", "150614.030000", "150615.520000", "150617.010000", "150618.500000", "150619.990000", "150621.480000", "150622.970000", "150624.460000", "150625.950000", "150627.440000", "150628.930000", "150630.420000", "150631.910000", "150633.400000", "150634.890000", "150636.380000", "150637.870000", "150639.360000", "150640.850000", "150642.340000", "150643.830000", "150645.320000", "150646.810000", "150648.300000", "150649.790000", "150651.280000", "150652.770000", "150654.260000", "150655.750000", "150657.240000", "150658.730000", "150700.220000", "150701.710000", "150703.200000", "150704.690000", "150706.180000", "150707.670000", "150709.160000", "150710.650000", "150712.140000", "150713.630000", "150715.120000", "150716.610000", "150718.100000", "150719.590000", "150721.080000", "150722.570000", "150724.060000", "150725.550000", "150727.040000", "150728.530000", "150730.020000", "150731.510000", "150733.000000", "150734.490000", "150735.980000", "150737.470000", "150738.960000", "150740.450000", "150741.940000", "150743.430000", "150744.920000", "150746.410000", "150747.900000", "150749.390000", "150750.880000", "150752.370000", "150753.860000", "150755.350000", "150756.840000", "150758.330000", "150759.820000", "150801.310000", "150802.800000", "150804.290000", "150805.780000", "150807.270000", "150808.760000", "150810.250000", "150811.740000", "150813.230000", "150814.720000", "150816.210000", "150817.700000", "150819.190000", "150820.680000", "150822.170000", "150823.660000", "150825.150000", "150826.640000", "150828.130000", "150829.620000", "150831.110000", "150832.600000", "150834.090000", "150835.580000", "150837.070000", "150838.560000", "150840.050000", "150841.540000", "150843.030000", "150844.520000"],
      "ContentTime": ["150625.206000", "150625.210000", "150625.213000", "150625.216000", "150625.219000", "150625.222000", "150625.228000", "150625.231000", "150625.234000", "150625.238000", "150645.166000", "150645.227000", "150645.230000", "150645.233000", "150645.236000", "150645.239000", "150645.242000", "150645.245000", "150645.248000", "150645.251000", "150645.254000", "150645.257000", "150645.263000", "150645.266000", "150645.269000", "150645.272000", "150645.275000", "150645.278000", "150645.281000", "150645.286000", "150705.165000", "150705.168000", "150705.171000", "150705.174000", "150705.177000", "150705.180000", "150705.183000", "150705.186000", "150705.189000", "150705.192000", "150705.195000", "150705.198000", "150705.202000", "150705.205000", "150705.208000", "150705.211000", "150705.214000", "150705.217000", "150705.220000", "150705.223000", "150705.226000", "150725.165000", "150725.168000", "150725.171000", "150725.174000", "150725.177000", "150725.180000", "150725.183000", "150725.186000", "150725.189000", "150725.192000", "150725.195000", "150725.198000", "150725.201000", "150725.204000", "150725.207000", "150725.211000", "150725.214000", "150725.217000", "150725.220000", "150725.223000", "150745.165000", "150745.168000", "150745.171000", "150745.174000", "150745.177000", "150745.180000", "150745.183000", "150745.187000", "150745.190000", "150745.199000", "150745.202000", "150745.205000", "150745.208000", "150745.211000", "150745.214000", "150745.217000", "150745.220000", "150745.223000", "150745.226000", "150745.229000", "150805.165000", "150805.168000", "150805.171000", "150805.174000", "150805.177000", "150805.180000", "150805.183000", "150805.186000", "150805.190000", "150805.193000", "150805.196000", "150805.199000", "150805.202000", "150805.210000", "150805.213000", "150805.216000", "150805.219000", "150805.222000", "150805.225000", "150805.228000", "150845.166000", "150845.169000", "150845.172000", "150845.187000", "150845.190000", "150845.193000", "150845.196000", "150845.199000", "150845.202000", "150845.205000", "150845.208000", "150845.211000", "150845.214000", "150845.217000", "150845.220000", "150845.223000", "150845.226000", "150845.229000", "150845.232000", "150845.236000", "150845.239000", "150845.242000", "150845.245000", "150845.248000", "150845.251000", "150845.254000", "150846.868000", "150846.871000"],
      "InstanceCreationTime": ["150625.206000", "150625.210000", "150625.213000", "150625.216000", "150625.219000", "150625.222000", "150625.228000", "150625.231000", "150625.234000", "150625.238000", "150645.166000", "150645.227000", "150645.230000", "150645.233000", "150645.236000", "150645.239000", "150645.242000", "150645.245000", "150645.248000", "150645.251000", "150645.254000", "150645.257000", "150645.263000", "150645.266000", "150645.269000", "150645.272000", "150645.275000", "150645.278000", "150645.281000", "150645.286000", "150705.165000", "150705.168000", "150705.171000", "150705.174000", "150705.177000", "150705.180000", "150705.183000", "150705.186000", "150705.189000", "150705.192000", "150705.195000", "150705.198000", "150705.202000", "150705.205000", "150705.208000", "150705.211000", "150705.214000", "150705.217000", "150705.220000", "150705.223000", "150705.226000", "150725.165000", "150725.168000", "150725.171000", "150725.174000", "150725.177000", "150725.180000", "150725.183000", "150725.186000", "150725.189000", "150725.192000", "150725.195000", "150725.198000", "150725.201000", "150725.204000", "150725.207000", "150725.211000", "150725.214000", "150725.217000", "150725.220000", "150725.223000", "150745.165000", "150745.168000", "150745.171000", "150745.174000", "150745.177000", "150745.180000", "150745.183000", "150745.187000", "150745.190000", "150745.199000", "150745.202000", "150745.205000", "150745.208000", "150745.211000", "150745.214000", "150745.217000", "150745.220000", "150745.223000", "150745.226000", "150745.229000", "150805.165000", "150805.168000", "150805.171000", "150805.174000", "150805.177000", "150805.180000", "150805.183000", "150805.186000", "150805.190000", "150805.193000", "150805.196000", "150805.199000", "150805.202000", "150805.210000", "150805.213000", "150805.216000", "150805.219000", "150805.222000", "150805.225000", "150805.228000", "150845.166000", "150845.169000", "150845.172000", "150845.187000", "150845.190000", "150845.193000", "150845.196000", "150845.199000", "150845.202000", "150845.205000", "150845.208000", "150845.211000", "150845.214000", "150845.217000", "150845.220000", "150845.223000", "150845.226000", "150845.229000", "150845.232000", "150845.236000", "150845.239000", "150845.242000", "150845.245000", "150845.248000", "150845.251000", "150845.254000", "150846.868000", "150846.871000"],
      "InstanceNumber": [1, 2, 3, 4, 5, 6, 7, 8, 9, 10, 11, 12, 13, 14, 15, 16, 17, 18, 19, 20, 21, 22, 23, 24, 25, 26, 27, 28, 29, 30, 31, 32, 33, 34, 35, 36, 37, 38, 39, 40, 41, 42, 43, 44, 45, 46, 47, 48, 49, 50, 51, 52, 53, 54, 55, 56, 57, 58, 59, 60, 61, 62, 63, 64, 65, 66, 67, 68, 69, 70, 71, 72, 73, 74, 75, 76, 77, 78, 79, 80, 81, 82, 83, 84, 85, 86, 87, 88, 89, 90, 91, 92, 93, 94, 95, 96, 97, 98, 99, 100, 101, 102, 103, 104, 105, 106, 107, 108, 109, 110, 111, 112, 113, 114, 115, 116, 117, 118, 119, 120, 121, 122, 123, 124, 125, 126, 127, 128, 129, 130, 131, 132, 133, 134, 135, 136, 137, 138, 139],
      "LargestImagePixelValue": [43155, 41905, 41174, 41269, 40697, 40689, 40843, 40602, 40321, 40944, 41211, 40786, 39739, 40163, 39970, 39809, 39889, 40244, 40056, 40099, 40254, 40011, 39877, 40222, 39956, 39890, 40146, 40326, 40448, 41243, 41063, 41071, 42093, 40428, 40769, 40387, 40700, 39965, 39712, 40255, 41319, 42783, 43186, 41890, 42382, 41543, 41691, 41070, 41090, 40838, 41429, 41441, 41705, 42624, 43025, 42501, 42601, 43142, 42657, 42091, 41841, 41895, 41213, 42547, 42513, 42848, 43484, 43799, 43036, 42508, 42507, 42499, 43245, 42586, 42977, 41334, 41519, 42158, 41854, 42034, 42202, 42002, 41962, 42347, 42742, 42997, 42497, 42061, 42177, 42351, 42311, 42817, 42790, 42644, 43497, 42819, 43256, 43662, 43484, 43205, 43589, 42966, 43205, 43764, 43240, 43125, 43226, 41961, 42538, 42659, 42664, 42566, 43843, 43819, 44312, 44406, 44142, 44529, 44224, 44335, 43752, 43364, 43725, 43650, 43831, 42375, 44092, 43012, 43286, 43249, 43053, 42616, 42907, 42067, 42506, 42262, 42331, 41049, 41112],
      "WindowCenter": [9912.0, 9881.0, 9867.0, 9849.0, 9817.0, 9810.0, 9812.0, 9815.0, 9813.0, 9813.0, 9822.0, 9834.0, 9849.0, 9850.0, 9845.0, 9828.0, 9810.0, 9805.0, 9803.0, 9815.0, 9850.0, 9861.0, 9862.0, 9850.0, 9833.0, 9831.0, 9823.0, 9835.0, 9847.0, 9869.0, 9864.0, 9863.0, 9883.0, 9881.0, 9896.0, 9891.0, 9890.0, 9859.0, 9845.0, 9840.0, 9838.0, 9852.0, 9855.0, 9816.0, 9787.0, 9763.0, 9742.0, 9739.0, 9741.0, 9776.0, 9814.0, 9837.0, 9845.0, 9878.0, 9897.0, 9915.0, 9920.0, 9901.0, 9885.0, 9863.0, 9828.0, 9816.0, 9809.0, 9835.0, 9853.0, 9879.0, 9889.0, 9894.0, 9874.0, 9865.0, 9859.0, 9864.0, 9877.0, 9860.0, 9862.0, 9854.0, 9857.0, 9838.0, 9813.0, 9795.0, 9776.0, 9767.0, 9800.0, 9829.0, 9856.0, 9874.0, 9879.0, 9867.0, 9872.0, 9834.0, 9808.0, 9811.0, 9811.0, 9835.0, 9858.0, 9854.0, 9863.0, 9871.0, 9871.0, 9871.0, 9860.0, 9862.0, 9861.0, 9852.0, 9836.0, 9826.0, 9814.0, 9793.0, 9805.0, 9807.0, 9829.0, 9832.0, 9868.0, 9880.0, 9896.0, 9891.0, 9889.0, 9885.0, 9876.0, 9877.0, 9878.0, 9871.0, 9876.0, 9877.0, 9902.0, 9895.0, 9900.0, 9869.0, 9853.0, 9840.0, 9838.0, 9825.0, 9814.0, 9823.0, 9852.0, 9843.0, 9842.0, 9824.0, 9795.0],
      "WindowWidth": [21189.0, 21093.0, 21045.0, 20994.0, 20918.0, 20897.0, 20900.0, 20908.0, 20899.0, 20896.0, 20922.0, 20950.0, 20985.0, 20985.0, 20975.0, 20937.0, 20895.0, 20881.0, 20874.0, 20904.0, 20983.0, 21010.0, 21017.0, 20985.0, 20946.0, 20940.0, 20923.0, 20948.0, 20978.0, 21024.0, 21015.0, 21015.0, 21054.0, 21057.0, 21091.0, 21081.0, 21076.0, 21011.0, 20984.0, 20962.0, 20956.0, 20987.0, 21001.0, 20913.0, 20841.0, 20788.0, 20737.0, 20733.0, 20738.0, 20814.0, 20899.0, 20954.0, 20972.0, 21042.0, 21088.0, 21132.0, 21138.0, 21091.0, 21053.0, 21007.0, 20927.0, 20901.0, 20889.0, 20942.0, 20982.0, 21040.0, 21062.0, 21070.0, 21030.0, 21011.0, 20998.0, 21008.0, 21033.0, 20998.0, 21000.0, 20990.0, 20998.0, 20953.0, 20895.0, 20854.0, 20812.0, 20793.0, 20863.0, 20927.0, 20991.0, 21045.0, 21048.0, 21023.0, 21034.0, 20943.0, 20884.0, 20886.0, 20889.0, 20940.0, 20989.0, 20984.0, 21008.0, 21025.0, 21021.0, 21022.0, 20996.0, 21003.0, 21001.0, 20979.0, 20946.0, 20922.0, 20892.0, 20848.0, 20873.0, 20879.0, 20924.0, 20933.0, 21007.0, 21037.0, 21072.0, 21064.0, 21059.0, 21045.0, 21026.0, 21027.0, 21034.0, 21020.0, 21028.0, 21031.0, 21085.0, 21081.0, 21083.0, 21022.0, 20985.0, 20952.0, 20945.0, 20924.0, 20895.0, 20916.0, 20984.0, 20958.0, 20957.0, 20920.0, 20862.0]
    },
    "slices": {}
  }
}