{
  "AcquisitionMatrixPE": 104,
  "AcquisitionNumber": 1,
  "AcquisitionTime": "15:13:50.692500",
  "BandwidthPerPixelPhaseEncode": 17.17,
  "BaseResolution": 104,
  "BodyPartExamined": "BRAIN",
  "CoilString": "HC1-7;NC1_2",
  "ConsistencyInfo": "N4_VE11C_LATEST_20160120",
  "ConversionSoftware": "dcm2niix",
  "ConversionSoftwareVersion": "v1.0.20190902",
  "DerivedVendorReportedEchoSpacing": 0.000560011,
  "DeviceSerialNumber": "167006",
  "DwellTime": 2.1e-06,
  "EchoTime": 0.037,
  "EchoTrainLength": 104,
  "EffectiveEchoSpacing": 0.000560011,
  "FlipAngle": 52,
  "ImageComments": "Unaliased_MB4_PE3_LB",
  "ImageOrientationPatientDICOM": [0.997518, 0.00451702, -0.0702692, -0.0193275, 0.977176, -0.211552],
  "ImageType": [
    "ORIGINAL",
    "PRIMARY",
    "M",
    "MB",
    "ND",
    "MOSAIC"
],
  "ImagingFrequency": 123.259,
  "InPlanePhaseEncodingDirectionDICOM": "COL",
  "InstitutionAddress": "Chemin_Queen-Mary_4565_Montreal_District_CA_H3W_1W5",
  "InstitutionName": "IUGM",
  "InstitutionalDepartmentName": "Department",
  "MRAcquisitionType": "2D",
  "MagneticFieldStrength": 3,
  "Manufacturer": "Siemens",
  "ManufacturersModelName": "Prisma_fit",
  "Modality": "MR",
  "MultibandAccelerationFactor": 4,
  "PartialFourier": 1,
  "PatientPosition": "HFS",
  "PercentPhaseFOV": 100,
  "PhaseEncodingDirection": "j",
  "PhaseEncodingSteps": 104,
  "PhaseResolution": 1,
  "PixelBandwidth": 2290,
  "ProcedureStepDescription": "hcptrt_generic",
  "ProtocolName": "func_task-gambling_run-2",
  "PulseSequenceDetails": "%CustomerSeq%_cmrr_mbep2d_bold",
  "ReceiveCoilActiveElements": "HC1-7;NC1,2",
  "ReceiveCoilName": "HeadNeck_64",
  "ReconMatrixPE": 104,
  "RepetitionTime": 1.49,
  "SAR": 0.0302924,
  "ScanOptions": "FS",
  "ScanningSequence": "EP",
  "SequenceName": "epfid2d1_104",
  "SequenceVariant": "SK_SS",
  "SeriesDescription": "func_task-gambling_run-2",
  "SeriesNumber": 33,
  "ShimSetting": [594, -7267, -8853, 590, -62, -358, -10, 62],
  "SliceThickness": 2,
  "SliceTiming": [0, 0.7825, 0.0975, 0.8825, 0.195, 0.98, 0.2925, 1.0775, 0.3925, 1.175, 0.49, 1.2725, 0.5875, 1.3725, 0.685, 0, 0.7825, 0.0975, 0.8825, 0.195, 0.98, 0.2925, 1.0775, 0.3925, 1.175, 0.49, 1.2725, 0.5875, 1.3725, 0.685, 0, 0.7825, 0.0975, 0.8825, 0.195, 0.98, 0.2925, 1.0775, 0.3925, 1.175, 0.49, 1.2725, 0.5875, 1.3725, 0.685, 0, 0.7825, 0.0975, 0.8825, 0.195, 0.98, 0.2925, 1.0775, 0.3925, 1.175, 0.49, 1.2725, 0.5875, 1.3725, 0.685],
  "SoftwareVersions": "syngo_MR_E11",
  "SpacingBetweenSlices": 2,
  "StationName": "MRC35049",
  "TaskName": "gambling",
  "TotalReadoutTime": 0.0576811,
  "TxRefAmp": 221.262,
  "WipMemBlock": "387e1185-20f3-4db7-87ca-7be33b1393b8||Sequence: R016 ve11c/master r/e634e98; Dec 19 2017 11:00:25 by eja",
  "dcmmeta_affine": [
    [-1.9950356483459473, -0.038655009120702744, -0.13541953265666962, 108.4046859741211],
    [-0.009034045040607452, 1.9543511867523193, -0.4247704744338989, -74.20597076416016],
    [-0.14053840935230255, 0.4231044352054596, 1.9496747255325317, -49.61323165893555],
    [0.0, 0.0, 0.0, 1.0]
],
  "dcmmeta_reorient_transform": [
    [0.0, -1.0, 0.0, 103.0],
    [1.0, 0.0, 0.0, 0.0],
    [0.0, 0.0, 1.0, 0.0],
    [0.0, 0.0, 0.0, 1.0]
],
  "dcmmeta_shape": [104, 104, 60, 129],
  "dcmmeta_slice_dim": 2,
  "dcmmeta_version": 0.6,
  "global": {
    "const": {
      "AcquisitionMatrix": [104, 0, 0, 104],
      "AngioFlag": "N",
      "BitsAllocated": 16,
      "BitsStored": 16,
      "BodyPartExamined": "BRAIN",
      "Columns": 832,
      "EchoNumbers": 1,
      "EchoTime": 37.0,
      "EchoTrainLength": 104,
      "FlipAngle": 52.0,
      "HighBit": 15,
      "ImageOrientationPatient": [0.99751783699564, 0.00451702255303, -0.0702692065047, -0.0193275050859, 0.97717557470719, -0.2115522246228],
      "ImagePositionPatient": [-816.54577789615, -841.7644052424, 199.13252756084],
      "ImageType": [
        "ORIGINAL",
        "PRIMARY",
        "M",
        "MB",
        "ND",
        "MOSAIC"
],
      "ImagedNucleus": "1H",
      "ImagingFrequency": 123.259404,
      "InPlanePhaseEncodingDirection": "COL",
      "MRAcquisitionType": "2D",
      "MagneticFieldStrength": 3.0,
      "Manufacturer": "SIEMENS",
      "ManufacturerModelName": "Prisma_fit",
      "Modality": "MR",
      "NumberOfAverages": 1.0,
      "NumberOfPhaseEncodingSteps": 104,
      "PercentPhaseFieldOfView": 100.0,
      "PercentSampling": 100.0,
      "PerformedProcedureStepStartTime": "141236.510000",
      "PhotometricInterpretation": "MONOCHROME2",
      "PixelBandwidth": 2290.0,
      "PixelRepresentation": 0,
      "PixelSpacing": [2.0, 2.0],
      "ProtocolName": "func_task-gambling_run-2",
      "RepetitionTime": 1490.0,
      "Rows": 832,
      "SAR": 0.03029239721267,
      "SamplesPerPixel": 1,
      "ScanOptions": "FS",
      "ScanningSequence": "EP",
      "SequenceName": "epfid2d1_104",
      "SequenceVariant": [
        "SK",
        "SS"
],
      "SeriesDescription": "func_task-gambling_run-2",
      "SeriesNumber": 33,
      "SeriesTime": "151519.122000",
      "SliceLocation": -39.944634731289,
      "SliceThickness": 2.0,
      "SmallestImagePixelValue": 0,
      "SoftwareVersions": "syngo MR E11",
      "SpacingBetweenSlices": 1.9999999612374,
      "SpecificCharacterSet": "ISO_IR 100",
      "StudyID": "1",
      "StudyTime": "141236.442000",
      "TransmitCoilName": "Body",
      "VariableFlipAngleFlag": "N",
      "WindowCenterWidthExplanation": "Algo1",
      "dBdt": 0.0},
    "slices": {}
  },
  "time": {
    "samples": {
      "AcquisitionNumber": [1, 2, 3, 4, 5, 6, 7, 8, 9, 10, 11, 12, 13, 14, 15, 16, 17, 18, 19, 20, 21, 22, 23, 24, 25, 26, 27, 28, 29, 30, 31, 32, 33, 34, 35, 36, 37, 38, 39, 40, 41, 42, 43, 44, 45, 46, 47, 48, 49, 50, 51, 52, 53, 54, 55, 56, 57, 58, 59, 60, 61, 62, 63, 64, 65, 66, 67, 68, 69, 70, 71, 72, 73, 74, 75, 76, 77, 78, 79, 80, 81, 82, 83, 84, 85, 86, 87, 88, 89, 90, 91, 92, 93, 94, 95, 96, 97, 98, 99, 100, 101, 102, 103, 104, 105, 106, 107, 108, 109, 110, 111, 112, 113, 114, 115, 116, 117, 118, 119, 120, 121, 122, 123, 124, 125, 126, 127, 128, 129],
      "AcquisitionTime": ["151350.692500", "151352.182500", "151353.672500", "151355.162500", "151356.652500", "151358.142500", "151359.632500", "151401.122500", "151402.612500", "151404.102500", "151405.592500", "151407.082500", "151408.572500", "151410.062500", "151411.552500", "151413.042500", "151414.532500", "151416.022500", "151417.512500", "151419.002500", "151420.492500", "151421.982500", "151423.472500", "151424.962500", "151426.452500", "151427.942500", "151429.432500", "151430.922500", "151432.412500", "151433.902500", "151435.392500", "151436.882500", "151438.372500", "151439.862500", "151441.352500", "151442.842500", "151444.332500", "151445.822500", "151447.312500", "151448.802500", "151450.292500", "151451.782500", "151453.272500", "151454.762500", "151456.252500", "151457.742500", "151459.232500", "151500.722500", "151502.212500", "151503.702500", "151505.192500", "151506.682500", "151508.172500", "151509.662500", "151511.152500", "151512.642500", "151514.132500", "151515.622500", "151517.112500", "151518.602500", "151520.092500", "151521.582500", "151523.072500", "151524.562500", "151526.052500", "151527.542500", "151529.032500", "151530.522500", "151532.012500", "151533.502500", "151534.992500", "151536.482500", "151537.972500", "151539.462500", "151540.952500", "151542.442500", "151543.932500", "151545.422500", "151546.912500", "151548.402500", "151549.892500", "151551.382500", "151552.872500", "151554.362500", "151555.852500", "151557.342500", "151558.832500", "151600.322500", "151601.812500", "151603.302500", "151604.792500", "151606.282500", "151607.772500", "151609.262500", "151610.752500", "151612.242500", "151613.732500", "151615.222500", "151616.712500", "151618.202500", "151619.692500", "151621.182500", "151622.672500", "151624.162500", "151625.652500", "151627.142500", "151628.632500", "151630.122500", "151631.612500", "151633.102500", "151634.592500", "151636.082500", "151637.572500", "151639.062500", "151640.552500", "151642.042500", "151643.532500", "151645.022500", "151646.512500", "151648.002500", "151649.492500", "151650.982500", "151652.472500", "151653.962500", "151655.452500", "151656.942500", "151658.432500", "151659.922500", "151701.412500"],
      "ContentTime": ["151519.125000", "151519.128000", "151519.132000", "151519.135000", "151519.138000", "151519.141000", "151519.154000", "151519.157000", "151519.160000", "151519.163000", "151519.166000", "151519.175000", "151519.178000", "151519.181000", "151519.184000", "151519.187000", "151519.190000", "151519.193000", "151519.196000", "151519.199000", "151519.202000", "151519.205000", "151519.208000", "151519.211000", "151519.214000", "151519.217000", "151519.220000", "151519.224000", "151519.230000", "151519.233000", "151519.236000", "151519.239000", "151519.242000", "151519.245000", "151539.091000", "151539.094000", "151539.097000", "151539.100000", "151539.103000", "151539.106000", "151539.109000", "151539.112000", "151539.115000", "151539.118000", "151539.121000", "151539.124000", "151539.128000", "151539.131000", "151539.134000", "151539.137000", "151539.140000", "151539.143000", "151539.146000", "151539.149000", "151559.090000", "151559.098000", "151559.101000", "151559.104000", "151559.107000", "151559.110000", "151559.113000", "151559.116000", "151559.119000", "151559.122000", "151559.125000", "151559.128000", "151559.132000", "151559.135000", "151559.138000", "151559.141000", "151559.144000", "151559.147000", "151559.150000", "151559.153000", "151619.091000", "151619.094000", "151619.097000", "151619.100000", "151619.103000", "151619.106000", "151619.109000", "151619.112000", "151619.116000", "151619.119000", "151619.122000", "151619.125000", "151619.128000", "151619.131000", "151619.134000", "151619.138000", "151619.141000", "151619.144000", "151619.147000", "151619.150000", "151659.091000", "151659.094000", "151659.097000", "151659.100000", "151659.103000", "151659.106000", "151659.110000", "151659.113000", "151659.116000", "151659.119000", "151659.122000", "151659.125000", "151659.128000", "151659.131000", "151659.134000", "151659.137000", "151659.140000", "151659.143000", "151659.146000", "151659.149000", "151659.152000", "151659.155000", "151659.158000", "151659.161000", "151659.164000", "151659.167000", "151659.170000", "151659.173000", "151659.176000", "151659.179000", "151659.182000", "151704.015000", "151704.019000", "151704.022000", "151704.025000"],
      "InstanceCreationTime": ["151519.125000", "151519.128000", "151519.132000", "151519.135000", "151519.138000", "151519.141000", "151519.154000", "151519.157000", "151519.160000", "151519.163000", "151519.166000", "151519.175000", "151519.178000", "151519.181000", "151519.184000", "151519.187000", "151519.190000", "151519.193000", "151519.196000", "151519.199000", "151519.202000", "151519.205000", "151519.208000", "151519.211000", "151519.214000", "151519.217000", "151519.220000", "151519.224000", "151519.230000", "151519.233000", "151519.236000", "151519.239000", "151519.242000", "151519.245000", "151539.091000", "151539.094000", "151539.097000", "151539.100000", "151539.103000", "151539.106000", "151539.109000", "151539.112000", "151539.115000", "151539.118000", "151539.121000", "151539.124000", "151539.128000", "151539.131000", "151539.134000", "151539.137000", "151539.140000", "151539.143000", "151539.146000", "151539.149000", "151559.090000", "151559.098000", "151559.101000", "151559.104000", "151559.107000", "151559.110000", "151559.113000", "151559.116000", "151559.119000", "151559.122000", "151559.125000", "151559.128000", "151559.132000", "151559.135000", "151559.138000", "151559.141000", "151559.144000", "151559.147000", "151559.150000", "151559.153000", "151619.091000", "151619.094000", "151619.097000", "151619.100000", "151619.103000", "151619.106000", "151619.109000", "151619.112000", "151619.116000", "151619.119000", "151619.122000", "151619.125000", "151619.128000", "151619.131000", "151619.134000", "151619.138000", "151619.141000", "151619.144000", "151619.147000", "151619.150000", "151659.091000", "151659.094000", "151659.097000", "151659.100000", "151659.103000", "151659.106000", "151659.110000", "151659.113000", "151659.116000", "151659.119000", "151659.122000", "151659.125000", "151659.128000", "151659.131000", "151659.134000", "151659.137000", "151659.140000", "151659.143000", "151659.146000", "151659.149000", "151659.152000", "151659.155000", "151659.158000", "151659.161000", "151659.164000", "151659.167000", "151659.170000", "151659.173000", "151659.176000", "151659.179000", "151659.182000", "151704.015000", "151704.019000", "151704.022000", "151704.025000"],
      "InstanceNumber": [1, 2, 3, 4, 5, 6, 7, 8, 9, 10, 11, 12, 13, 14, 15, 16, 17, 18, 19, 20, 21, 22, 23, 24, 25, 26, 27, 28, 29, 30, 31, 32, 33, 34, 35, 36, 37, 38, 39, 40, 41, 42, 43, 44, 45, 46, 47, 48, 49, 50, 51, 52, 53, 54, 55, 56, 57, 58, 59, 60, 61, 62, 63, 64, 65, 66, 67, 68, 69, 70, 71, 72, 73, 74, 75, 76, 77, 78, 79, 80, 81, 82, 83, 84, 85, 86, 87, 88, 89, 90, 91, 92, 93, 94, 95, 96, 97, 98, 99, 100, 101, 102, 103, 104, 105, 106, 107, 108, 109, 110, 111, 112, 113, 114, 115, 116, 117, 118, 119, 120, 121, 122, 123, 124, 125, 126, 127, 128, 129],
      "LargestImagePixelValue": [44928, 42391, 43411, 43095, 42013, 42051, 43057, 42927, 43012, 43246, 43847, 43235, 43822, 43121, 42979, 43267, 42916, 43664, 43293, 43365, 43361, 44012, 43328, 42834, 43129, 43332, 42919, 43618, 43725, 43328, 43709, 43065, 42998, 43049, 43338, 42629, 43307, 43264, 43131, 42785, 43130, 44015, 43377, 43047, 43062, 43519, 43076, 42995, 44395, 44068, 44276, 43570, 43825, 44037, 44017, 43886, 43877, 43829, 43560, 42674, 43330, 43189, 42608, 43123, 42825, 43339, 42874, 43073, 43170, 43694, 43157, 43462, 42442, 42288, 42354, 42415, 42505, 42631, 42911, 42706, 42253, 42876, 42338, 41816, 41908, 42911, 43890, 43263, 43538, 43398, 43338, 43163, 42801, 42489, 42132, 42613, 42179, 42382, 42770, 42161, 43482, 43365, 43993, 43460, 43086, 43359, 43166, 43966, 43327, 43180, 42930, 42134, 42417, 42574, 43225, 42939, 42026, 42146, 42585, 43007, 42395, 42356, 42389, 42670, 42955, 43583, 43540, 43922, 43296],
      "WindowCenter": [9870.0, 9848.0, 9870.0, 9830.0, 9867.0, 9835.0, 9805.0, 9800.0, 9814.0, 9866.0, 9900.0, 9894.0, 9908.0, 9885.0, 9862.0, 9854.0, 9830.0, 9843.0, 9851.0, 9862.0, 9881.0, 9895.0, 9896.0, 9883.0, 9880.0, 9871.0, 9869.0, 9860.0, 9855.0, 9851.0, 9892.0, 9860.0, 9853.0, 9834.0, 9877.0, 9825.0, 9831.0, 9836.0, 9831.0, 9838.0, 9841.0, 9851.0, 9848.0, 9855.0, 9856.0, 9865.0, 9873.0, 9876.0, 9897.0, 9896.0, 9889.0, 9874.0, 9871.0, 9872.0, 9870.0, 9878.0, 9902.0, 9925.0, 9921.0, 9889.0, 9880.0, 9865.0, 9849.0, 9862.0, 9839.0, 9836.0, 9826.0, 9825.0, 9839.0, 9863.0, 9859.0, 9853.0, 9830.0, 9812.0, 9807.0, 9808.0, 9815.0, 9823.0, 9830.0, 9833.0, 9852.0, 9867.0, 9862.0, 9848.0, 9858.0, 9865.0, 9870.0, 9870.0, 9854.0, 9851.0, 9825.0, 9803.0, 9755.0, 9722.0, 9714.0, 9755.0, 9784.0, 9787.0, 9812.0, 9821.0, 9853.0, 9866.0, 9864.0, 9843.0, 9839.0, 9834.0, 9851.0, 9873.0, 9865.0, 9847.0, 9815.0, 9793.0, 9783.0, 9767.0, 9769.0, 9773.0, 9784.0, 9803.0, 9812.0, 9818.0, 9795.0, 9766.0, 9753.0, 9760.0, 9791.0, 9834.0, 9873.0, 9901.0, 9896.0],
      "WindowWidth": [21089.0, 21030.0, 21058.0, 20945.0, 21036.0, 20954.0, 20879.0, 20864.0, 20892.0, 21007.0, 21083.0, 21076.0, 21103.0, 21055.0, 21007.0, 20986.0, 20933.0, 20962.0, 20981.0, 21004.0, 21046.0, 21074.0, 21077.0, 21056.0, 21046.0, 21024.0, 21023.0, 21003.0, 20985.0, 20983.0, 21076.0, 21003.0, 20985.0, 20944.0, 21045.0, 20930.0, 20937.0, 20945.0, 20937.0, 20948.0, 20957.0, 20974.0, 20971.0, 20986.0, 20991.0, 21009.0, 21026.0, 21037.0, 21078.0, 21075.0, 21059.0, 21031.0, 21019.0, 21021.0, 21019.0, 21034.0, 21088.0, 21137.0, 21129.0, 21062.0, 21038.0, 21007.0, 20975.0, 21000.0, 20954.0, 20943.0, 20918.0, 20919.0, 20944.0, 20998.0, 20993.0, 20980.0, 20933.0, 20892.0, 20877.0, 20880.0, 20894.0, 20911.0, 20928.0, 20935.0, 20981.0, 21008.0, 21003.0, 20971.0, 20995.0, 21006.0, 21013.0, 21024.0, 20987.0, 20978.0, 20919.0, 20868.0, 20765.0, 20687.0, 20670.0, 20757.0, 20826.0, 20832.0, 20884.0, 20909.0, 20978.0, 21008.0, 21001.0, 20955.0, 20945.0, 20933.0, 20970.0, 21025.0, 21004.0, 20965.0, 20895.0, 20845.0, 20819.0, 20783.0, 20790.0, 20806.0, 20832.0, 20876.0, 20897.0, 20906.0, 20858.0, 20792.0, 20760.0, 20776.0, 20842.0, 20936.0, 21024.0, 21090.0, 21082.0]
    },
    "slices": {}
  }
}