{
  "AcquisitionMatrixPE": 104,
  "AcquisitionNumber": 1,
  "AcquisitionTime": "15:18:16.887500",
  "BandwidthPerPixelPhaseEncode": 17.17,
  "BaseResolution": 104,
  "BodyPartExamined": "BRAIN",
  "CoilString": "HC1-7;NC1_2",
  "ConsistencyInfo": "N4_VE11C_LATEST_20160120",
  "ConversionSoftware": "dcm2niix",
  "ConversionSoftwareVersion": "v1.0.20190902",
  "DerivedVendorReportedEchoSpacing": 0.000560011,
  "DeviceSerialNumber": "167006",
  "DwellTime": 2.1e-06,
  "EchoTime": 0.037,
  "EchoTrainLength": 104,
  "EffectiveEchoSpacing": 0.000560011,
  "FlipAngle": 52,
  "ImageComments": "Unaliased_MB4_PE3_LB",
  "ImageOrientationPatientDICOM": [0.997518, 0.00451702, -0.0702692, -0.0193275, 0.977176, -0.211552],
  "ImageType": [
    "ORIGINAL",
    "PRIMARY",
    "M",
    "MB",
    "ND",
    "MOSAIC"
],
  "ImagingFrequency": 123.259,
  "InPlanePhaseEncodingDirectionDICOM": "COL",
  "InstitutionAddress": "Chemin_Queen-Mary_4565_Montreal_District_CA_H3W_1W5",
  "InstitutionName": "IUGM",
  "InstitutionalDepartmentName": "Department",
  "MRAcquisitionType": "2D",
  "MagneticFieldStrength": 3,
  "Manufacturer": "Siemens",
  "ManufacturersModelName": "Prisma_fit",
  "Modality": "MR",
  "MultibandAccelerationFactor": 4,
  "PartialFourier": 1,
  "PatientPosition": "HFS",
  "PercentPhaseFOV": 100,
  "PhaseEncodingDirection": "j",
  "PhaseEncodingSteps": 104,
  "PhaseResolution": 1,
  "PixelBandwidth": 2290,
  "ProcedureStepDescription": "hcptrt_generic",
  "ProtocolName": "func_task-language_run-2",
  "PulseSequenceDetails": "%CustomerSeq%_cmrr_mbep2d_bold",
  "ReceiveCoilActiveElements": "HC1-7;NC1,2",
  "ReceiveCoilName": "HeadNeck_64",
  "ReconMatrixPE": 104,
  "RepetitionTime": 1.49,
  "SAR": 0.0303752,
  "ScanOptions": "FS",
  "ScanningSequence": "EP",
  "SequenceName": "epfid2d1_104",
  "SequenceVariant": "SK_SS",
  "SeriesDescription": "func_task-language_run-2",
  "SeriesNumber": 35,
  "ShimSetting": [594, -7267, -8853, 590, -62, -358, -10, 62],
  "SliceThickness": 2,
  "SliceTiming": [0, 0.785, 0.1, 0.8825, 0.1975, 0.98, 0.295, 1.08, 0.3925, 1.1775, 0.49, 1.275, 0.59, 1.3725, 0.6875, 0, 0.785, 0.1, 0.8825, 0.1975, 0.98, 0.295, 1.08, 0.3925, 1.1775, 0.49, 1.275, 0.59, 1.3725, 0.6875, 0, 0.785, 0.1, 0.8825, 0.1975, 0.98, 0.295, 1.08, 0.3925, 1.1775, 0.49, 1.275, 0.59, 1.3725, 0.6875, 0, 0.785, 0.1, 0.8825, 0.1975, 0.98, 0.295, 1.08, 0.3925, 1.1775, 0.49, 1.275, 0.59, 1.3725, 0.6875],
  "SoftwareVersions": "syngo_MR_E11",
  "SpacingBetweenSlices": 2,
  "StationName": "MRC35049",
  "TaskName": "language",
  "TotalReadoutTime": 0.0576811,
  "TxRefAmp": 221.262,
  "WipMemBlock": "bb9ab958-b4a5-40f0-8ccf-e88bc1764ae4||Sequence: R016 ve11c/master r/e634e98; Dec 19 2017 11:00:25 by eja",
  "dcmmeta_affine": [
    [-1.9950356483459473, -0.038655009120702744, -0.13541953265666962, 108.4046859741211],
    [-0.009034045040607452, 1.9543511867523193, -0.4247704744338989, -74.20597076416016],
    [-0.14053840935230255, 0.4231044352054596, 1.9496747255325317, -49.61323165893555],
    [0.0, 0.0, 0.0, 1.0]
],
  "dcmmeta_reorient_transform": [
    [0.0, -1.0, 0.0, 103.0],
    [1.0, 0.0, 0.0, 0.0],
    [0.0, 0.0, 1.0, 0.0],
    [0.0, 0.0, 0.0, 1.0]
],
  "dcmmeta_shape": [104, 104, 60, 159],
  "dcmmeta_slice_dim": 2,
  "dcmmeta_version": 0.6,
  "global": {
    "const": {
      "AcquisitionMatrix": [104, 0, 0, 104],
      "AngioFlag": "N",
      "BitsAllocated": 16,
      "BitsStored": 16,
      "BodyPartExamined": "BRAIN",
      "Columns": 832,
      "EchoNumbers": 1,
      "EchoTime": 37.0,
      "EchoTrainLength": 104,
      "FlipAngle": 52.0,
      "HighBit": 15,
      "ImageOrientationPatient": [0.99751783699564, 0.00451702255303, -0.0702692065047, -0.0193275050859, 0.97717557470719, -0.2115522246228],
      "ImagePositionPatient": [-816.54577789615, -841.7644052424, 199.13252756084],
      "ImageType": [
        "ORIGINAL",
        "PRIMARY",
        "M",
        "MB",
        "ND",
        "MOSAIC"
],
      "ImagedNucleus": "1H",
      "ImagingFrequency": 123.259405,
      "InPlanePhaseEncodingDirection": "COL",
      "MRAcquisitionType": "2D",
      "MagneticFieldStrength": 3.0,
      "Manufacturer": "SIEMENS",
      "ManufacturerModelName": "Prisma_fit",
      "Modality": "MR",
      "NumberOfAverages": 1.0,
      "NumberOfPhaseEncodingSteps": 104,
      "PercentPhaseFieldOfView": 100.0,
      "PercentSampling": 100.0,
      "PerformedProcedureStepStartTime": "141236.510000",
      "PhotometricInterpretation": "MONOCHROME2",
      "PixelBandwidth": 2290.0,
      "PixelRepresentation": 0,
      "PixelSpacing": [2.0, 2.0],
      "ProtocolName": "func_task-language_run-2",
      "RepetitionTime": 1490.0,
      "Rows": 832,
      "SAR": 0.03037519176414,
      "SamplesPerPixel": 1,
      "ScanOptions": "FS",
      "ScanningSequence": "EP",
      "SequenceName": "epfid2d1_104",
      "SequenceVariant": [
        "SK",
        "SS"
],
      "SeriesDescription": "func_task-language_run-2",
      "SeriesNumber": 35,
      "SeriesTime": "151945.199000",
      "SliceLocation": -39.944634731289,
      "SliceThickness": 2.0,
      "SmallestImagePixelValue": 0,
      "SoftwareVersions": "syngo MR E11",
      "SpacingBetweenSlices": 1.9999999612374,
      "SpecificCharacterSet": "ISO_IR 100",
      "StudyID": "1",
      "StudyTime": "141236.442000",
      "TransmitCoilName": "Body",
      "VariableFlipAngleFlag": "N",
      "WindowCenterWidthExplanation": "Algo1",
      "dBdt": 0.0},
    "slices": {}
  },
  "time": {
    "samples": {
      "AcquisitionNumber": [1, 2, 3, 4, 5, 6, 7, 8, 9, 10, 11, 12, 13, 14, 15, 16, 17, 18, 19, 20, 21, 22, 23, 24, 25, 26, 27, 28, 29, 30, 31, 32, 33, 34, 35, 36, 37, 38, 39, 40, 41, 42, 43, 44, 45, 46, 47, 48, 49, 50, 51, 52, 53, 54, 55, 56, 57, 58, 59, 60, 61, 62, 63, 64, 65, 66, 67, 68, 69, 70, 71, 72, 73, 74, 75, 76, 77, 78, 79, 80, 81, 82, 83, 84, 85, 86, 87, 88, 89, 90, 91, 92, 93, 94, 95, 96, 97, 98, 99, 100, 101, 102, 103, 104, 105, 106, 107, 108, 109, 110, 111, 112, 113, 114, 115, 116, 117, 118, 119, 120, 121, 122, 123, 124, 125, 126, 127, 128, 129, 130, 131, 132, 133, 134, 135, 136, 137, 138, 139, 140, 141, 142, 143, 144, 145, 146, 147, 148, 149, 150, 151, 152, 153, 154, 155, 156, 157, 158, 159],
      "AcquisitionTime": ["151816.887500", "151818.377500", "151819.867500", "151821.357500", "151822.847500", "151824.337500", "151825.827500", "151827.317500", "151828.807500", "151830.297500", "151831.787500", "151833.277500", "151834.767500", "151836.257500", "151837.747500", "151839.237500", "151840.727500", "151842.217500", "151843.707500", "151845.197500", "151846.687500", "151848.177500", "151849.667500", "151851.157500", "151852.647500", "151854.137500", "151855.627500", "151857.117500", "151858.607500", "151900.097500", "151901.587500", "151903.077500", "151904.567500", "151906.057500", "151907.547500", "151909.037500", "151910.527500", "151912.017500", "151913.507500", "151914.997500", "151916.487500", "151917.977500", "151919.467500", "151920.957500", "151922.447500", "151923.937500", "151925.427500", "151926.917500", "151928.407500", "151929.897500", "151931.387500", "151932.877500", "151934.367500", "151935.857500", "151937.347500", "151938.837500", "151940.327500", "151941.817500", "151943.307500", "151944.797500", "151946.287500", "151947.777500", "151949.267500", "151950.757500", "151952.247500", "151953.737500", "151955.227500", "151956.717500", "151958.207500", "151959.697500", "152001.187500", "152002.677500", "152004.167500", "152005.657500", "152007.147500", "152008.637500", "152010.127500", "152011.617500", "152013.107500", "152014.597500", "152016.087500", "152017.577500", "152019.067500", "152020.557500", "152022.047500", "152023.537500", "152025.027500", "152026.517500", "152028.007500", "152029.497500", "152030.987500", "152032.477500", "152033.967500", "152035.457500", "152036.947500", "152038.437500", "152039.927500", "152041.417500", "152042.907500", "152044.397500", "152045.887500", "152047.377500", "152048.867500", "152050.357500", "152051.847500", "152053.337500", "152054.827500", "152056.317500", "152057.807500", "152059.297500", "152100.787500", "152102.277500", "152103.767500", "152105.257500", "152106.747500", "152108.237500", "152109.727500", "152111.217500", "152112.707500", "152114.197500", "152115.687500", "152117.177500", "152118.667500", "152120.157500", "152121.647500", "152123.137500", "152124.627500", "152126.117500", "152127.607500", "152129.097500", "152130.587500", "152132.077500", "152133.567500", "152135.057500", "152136.547500", "152138.037500", "152139.527500", "152141.017500", "152142.507500", "152143.997500", "152145.487500", "152146.977500", "152148.467500", "152149.957500", "152151.447500", "152152.937500", "152154.427500", "152155.917500", "152157.407500", "152158.897500", "152200.387500", "152201.877500", "152203.367500", "152204.857500", "152206.347500", "152207.837500", "152209.327500", "152210.817500", "152212.307500"],
      "ContentTime": ["151945.202000", "151945.205000", "151945.208000", "151945.211000", "151945.215000", "151945.218000", "151945.221000", "151945.224000", "151945.227000", "151945.230000", "151945.233000", "151945.236000", "151945.239000", "151945.242000", "151945.245000", "151945.248000", "151945.251000", "151945.255000", "151945.258000", "151945.262000", "151945.265000", "151945.268000", "151945.271000", "151945.294000", "151945.297000", "151945.300000", "151945.303000", "151945.306000", "151945.309000", "151945.312000", "151945.315000", "152005.166000", "152005.169000", "152005.172000", "152005.175000", "152005.178000", "152005.181000", "152005.185000", "152005.188000", "152005.191000", "152005.193000", "152005.197000", "152005.200000", "152005.203000", "152005.206000", "152005.209000", "152005.212000", "152005.215000", "152005.218000", "152005.221000", "152005.224000", "152005.227000", "152025.166000", "152025.169000", "152025.172000", "152025.175000", "152025.178000", "152025.181000", "152025.184000", "152025.187000", "152025.190000", "152025.194000", "152025.197000", "152025.199000", "152025.203000", "152025.206000", "152025.209000", "152025.212000", "152025.215000", "152025.218000", "152025.221000", "152025.224000", "152045.165000", "152045.168000", "152045.171000", "152045.175000", "152045.178000", "152045.181000", "152045.185000", "152045.187000", "152045.190000", "152045.194000", "152045.197000", "152045.200000", "152045.203000", "152045.206000", "152045.209000", "152045.212000", "152045.215000", "152045.218000", "152045.235000", "152045.239000", "152105.165000", "152105.168000", "152105.171000", "152105.174000", "152105.177000", "152105.181000", "152105.183000", "152105.186000", "152105.189000", "152105.193000", "152105.196000", "152105.199000", "152105.202000", "152105.205000", "152105.208000", "152105.211000", "152105.214000", "152105.220000", "152105.223000", "152105.226000", "152145.165000", "152145.168000", "152145.171000", "152145.174000", "152145.177000", "152145.180000", "152145.183000", "152145.187000", "152145.190000", "152145.192000", "152145.196000", "152145.199000", "152145.202000", "152145.205000", "152145.208000", "152145.211000", "152145.214000", "152145.217000", "152145.220000", "152145.223000", "152145.226000", "152145.229000", "152145.232000", "152145.235000", "152145.238000", "152145.241000", "152145.244000", "152214.763000", "152214.767000", "152214.770000", "152214.773000", "152214.784000", "152214.787000", "152214.790000", "152214.793000", "152214.796000", "152214.799000", "152214.802000", "152214.805000", "152214.809000", "152214.812000", "152214.815000", "152214.818000", "152214.822000", "152214.825000", "152214.828000", "152214.831000"],
      "InstanceCreationTime": ["151945.202000", "151945.205000", "151945.208000", "151945.211000", "151945.215000", "151945.218000", "151945.221000", "151945.224000", "151945.227000", "151945.230000", "151945.233000", "151945.236000", "151945.239000", "151945.242000", "151945.245000", "151945.248000", "151945.251000", "151945.255000", "151945.258000", "151945.262000", "151945.265000", "151945.268000", "151945.271000", "151945.294000", "151945.297000", "151945.300000", "151945.303000", "151945.306000", "151945.309000", "151945.312000", "151945.315000", "152005.166000", "152005.169000", "152005.172000", "152005.175000", "152005.178000", "152005.181000", "152005.185000", "152005.188000", "152005.191000", "152005.193000", "152005.197000", "152005.200000", "152005.203000", "152005.206000", "152005.209000", "152005.212000", "152005.215000", "152005.218000", "152005.221000", "152005.224000", "152005.227000", "152025.166000", "152025.169000", "152025.172000", "152025.175000", "152025.178000", "152025.181000", "152025.184000", "152025.187000", "152025.190000", "152025.194000", "152025.197000", "152025.199000", "152025.203000", "152025.206000", "152025.209000", "152025.212000", "152025.215000", "152025.218000", "152025.221000", "152025.224000", "152045.165000", "152045.168000", "152045.171000", "152045.175000", "152045.178000", "152045.181000", "152045.185000", "152045.187000", "152045.190000", "152045.194000", "152045.197000", "152045.200000", "152045.203000", "152045.206000", "152045.209000", "152045.212000", "152045.215000", "152045.218000", "152045.235000", "152045.239000", "152105.165000", "152105.168000", "152105.171000", "152105.174000", "152105.177000", "152105.181000", "152105.183000", "152105.186000", "152105.189000", "152105.193000", "152105.196000", "152105.199000", "152105.202000", "152105.205000", "152105.208000", "152105.211000", "152105.214000", "152105.220000", "152105.223000", "152105.226000", "152145.165000", "152145.168000", "152145.171000", "152145.174000", "152145.177000", "152145.180000", "152145.183000", "152145.187000", "152145.190000", "152145.192000", "152145.196000", "152145.199000", "152145.202000", "152145.205000", "152145.208000", "152145.211000", "152145.214000", "152145.217000", "152145.220000", "152145.223000", "152145.226000", "152145.229000", "152145.232000", "152145.235000", "152145.238000", "152145.241000", "152145.244000", "152214.763000", "152214.767000", "152214.770000", "152214.773000", "152214.784000", "152214.787000", "152214.790000", "152214.793000", "152214.796000", "152214.799000", "152214.802000", "152214.805000", "152214.809000", "152214.812000", "152214.815000", "152214.818000", "152214.822000", "152214.825000", "152214.828000", "152214.831000"],
      "InstanceNumber": [1, 2, 3, 4, 5, 6, 7, 8, 9, 10, 11, 12, 13, 14, 15, 16, 17, 18, 19, 20, 21, 22, 23, 24, 25, 26, 27, 28, 29, 30, 31, 32, 33, 34, 35, 36, 37, 38, 39, 40, 41, 42, 43, 44, 45, 46, 47, 48, 49, 50, 51, 52, 53, 54, 55, 56, 57, 58, 59, 60, 61, 62, 63, 64, 65, 66, 67, 68, 69, 70, 71, 72, 73, 74, 75, 76, 77, 78, 79, 80, 81, 82, 83, 84, 85, 86, 87, 88, 89, 90, 91, 92, 93, 94, 95, 96, 97, 98, 99, 100, 101, 102, 103, 104, 105, 106, 107, 108, 109, 110, 111, 112, 113, 114, 115, 116, 117, 118, 119, 120, 121, 122, 123, 124, 125, 126, 127, 128, 129, 130, 131, 132, 133, 134, 135, 136, 137, 138, 139, 140, 141, 142, 143, 144, 145, 146, 147, 148, 149, 150, 151, 152, 153, 154, 155, 156, 157, 158, 159],
      "LargestImagePixelValue": [47294, 45889, 45643, 44720, 44775, 44631, 44595, 44262, 44066, 43832, 43754, 44135, 44122, 43885, 43441, 44114, 44082, 43890, 44266, 43662, 44345, 44210, 43987, 43782, 44065, 44028, 44277, 43512, 43767, 43507, 43805, 43697, 43822, 43329, 43792, 43563, 43640, 43240, 43252, 43352, 43208, 43458, 43529, 43348, 43563, 43567, 43724, 43119, 43972, 43493, 43441, 43402, 43607, 43990, 43403, 43316, 43753, 43564, 43325, 43899, 43856, 43295, 43194, 43139, 43425, 43649, 43074, 43293, 43017, 42662, 43110, 43220, 43299, 42624, 43637, 42850, 42974, 43133, 42914, 43007, 42774, 43809, 43072, 43155, 42863, 42636, 42632, 42418, 42261, 42169, 41702, 42129, 42188, 42531, 42595, 42776, 43087, 42645, 42207, 42377, 42294, 42324, 41893, 42008, 41699, 42295, 41703, 41881, 41990, 41996, 41672, 41838, 41566, 41902, 42065, 42407, 42464, 42532, 42391, 42349, 41780, 41651, 41851, 42055, 41849, 41660, 41692, 42045, 41816, 41385, 42011, 41701, 41553, 41614, 41570, 41579, 42208, 41544, 41181, 40636, 40718, 40811, 40682, 40936, 41237, 42214, 42141, 42271, 41634, 41513, 40926, 40575, 40427, 40508, 39897, 40430, 40708, 41047, 41005],
      "WindowCenter": [9992.0, 9944.0, 9958.0, 9951.0, 9951.0, 9937.0, 9919.0, 9909.0, 9898.0, 9890.0, 9886.0, 9885.0, 9884.0, 9899.0, 9897.0, 9884.0, 9890.0, 9894.0, 9908.0, 9906.0, 9917.0, 9904.0, 9896.0, 9872.0, 9866.0, 9890.0, 9916.0, 9928.0, 9922.0, 9914.0, 9904.0, 9903.0, 9903.0, 9905.0, 9918.0, 9922.0, 9913.0, 9897.0, 9880.0, 9871.0, 9878.0, 9885.0, 9872.0, 9871.0, 9869.0, 9878.0, 9886.0, 9885.0, 9903.0, 9906.0, 9906.0, 9900.0, 9897.0, 9889.0, 9882.0, 9873.0, 9887.0, 9895.0, 9915.0, 9916.0, 9906.0, 9883.0, 9875.0, 9876.0, 9882.0, 9873.0, 9873.0, 9863.0, 9864.0, 9874.0, 9873.0, 9873.0, 9871.0, 9857.0, 9861.0, 9865.0, 9883.0, 9891.0, 9892.0, 9883.0, 9876.0, 9889.0, 9885.0, 9892.0, 9886.0, 9876.0, 9866.0, 9857.0, 9857.0, 9858.0, 9835.0, 9839.0, 9853.0, 9864.0, 9880.0, 9890.0, 9889.0, 9873.0, 9867.0, 9867.0, 9876.0, 9878.0, 9871.0, 9861.0, 9861.0, 9865.0, 9867.0, 9878.0, 9872.0, 9873.0, 9857.0, 9844.0, 9835.0, 9856.0, 9868.0, 9889.0, 9877.0, 9874.0, 9865.0, 9851.0, 9843.0, 9840.0, 9842.0, 9852.0, 9858.0, 9845.0, 9853.0, 9862.0, 9858.0, 9846.0, 9843.0, 9841.0, 9834.0, 9843.0, 9862.0, 9870.0, 9877.0, 9875.0, 9869.0, 9861.0, 9851.0, 9838.0, 9826.0, 9838.0, 9869.0, 9893.0, 9921.0, 9916.0, 9892.0, 9852.0, 9800.0, 9754.0, 9740.0, 9738.0, 9739.0, 9754.0, 9782.0, 9793.0, 9817.0],
      "WindowWidth": [21355.0, 21220.0, 21236.0, 21211.0, 21207.0, 21178.0, 21134.0, 21110.0, 21081.0, 21064.0, 21052.0, 21052.0, 21048.0, 21088.0, 21082.0, 21046.0, 21060.0, 21072.0, 21099.0, 21099.0, 21124.0, 21099.0, 21084.0, 21029.0, 21011.0, 21064.0, 21124.0, 21150.0, 21139.0, 21123.0, 21100.0, 21096.0, 21097.0, 21105.0, 21129.0, 21142.0, 21121.0, 21084.0, 21044.0, 21026.0, 21041.0, 21055.0, 21029.0, 21026.0, 21016.0, 21036.0, 21058.0, 21058.0, 21093.0, 21101.0, 21103.0, 21090.0, 21081.0, 21061.0, 21047.0, 21030.0, 21060.0, 21079.0, 21122.0, 21126.0, 21101.0, 21053.0, 21037.0, 21037.0, 21050.0, 21031.0, 21028.0, 21007.0, 21010.0, 21035.0, 21033.0, 21033.0, 21027.0, 20998.0, 21002.0, 21013.0, 21055.0, 21071.0, 21074.0, 21053.0, 21040.0, 21067.0, 21059.0, 21071.0, 21062.0, 21036.0, 21011.0, 20989.0, 20990.0, 20998.0, 20948.0, 20951.0, 20983.0, 21009.0, 21044.0, 21065.0, 21063.0, 21027.0, 21018.0, 21018.0, 21040.0, 21043.0, 21029.0, 21005.0, 21007.0, 21013.0, 21019.0, 21044.0, 21032.0, 21034.0, 21001.0, 20967.0, 20949.0, 20992.0, 21021.0, 21065.0, 21043.0, 21031.0, 21011.0, 20981.0, 20967.0, 20955.0, 20962.0, 20985.0, 20999.0, 20974.0, 20992.0, 21010.0, 20998.0, 20974.0, 20962.0, 20959.0, 20943.0, 20965.0, 21011.0, 21027.0, 21039.0, 21039.0, 21025.0, 21004.0, 20982.0, 20952.0, 20930.0, 20954.0, 21024.0, 21074.0, 21137.0, 21126.0, 21074.0, 20988.0, 20872.0, 20769.0, 20732.0, 20729.0, 20735.0, 20767.0, 20830.0, 20857.0, 20908.0]
    },
    "slices": {}
  }
}