{
  "AcquisitionMatrixPE": 104,
  "AcquisitionNumber": 1,
  "AcquisitionTime": "14:33:16.847500",
  "BandwidthPerPixelPhaseEncode": 17.17,
  "BaseResolution": 104,
  "BodyPartExamined": "BRAIN",
  "CoilString": "HC1-7;NC1_2",
  "ConsistencyInfo": "N4_VE11C_LATEST_20160120",
  "ConversionSoftware": "dcm2niix",
  "ConversionSoftwareVersion": "v1.0.20190902",
  "DerivedVendorReportedEchoSpacing": 0.000560011,
  "DeviceSerialNumber": "167006",
  "DwellTime": 2.1e-06,
  "EchoTime": 0.037,
  "EchoTrainLength": 104,
  "EffectiveEchoSpacing": 0.000560011,
  "FlipAngle": 52,
  "ImageComments": "Unaliased_MB4_PE3_LB",
  "ImageOrientationPatientDICOM": [0.997518, 0.00451702, -0.0702692, -0.0193275, 0.977176, -0.211552],
  "ImageType": [
    "ORIGINAL",
    "PRIMARY",
    "M",
    "MB",
    "ND",
    "MOSAIC"
],
  "ImagingFrequency": 123.259,
  "InPlanePhaseEncodingDirectionDICOM": "COL",
  "InstitutionAddress": "Chemin_Queen-Mary_4565_Montreal_District_CA_H3W_1W5",
  "InstitutionName": "IUGM",
  "InstitutionalDepartmentName": "Department",
  "MRAcquisitionType": "2D",
  "MagneticFieldStrength": 3,
  "Manufacturer": "Siemens",
  "ManufacturersModelName": "Prisma_fit",
  "Modality": "MR",
  "MultibandAccelerationFactor": 4,
  "PartialFourier": 1,
  "PatientPosition": "HFS",
  "PercentPhaseFOV": 100,
  "PhaseEncodingDirection": "j",
  "PhaseEncodingSteps": 104,
  "PhaseResolution": 1,
  "PixelBandwidth": 2290,
  "ProcedureStepDescription": "hcptrt_generic",
  "ProtocolName": "func_task-gambling_run-1",
  "PulseSequenceDetails": "%CustomerSeq%_cmrr_mbep2d_bold",
  "ReceiveCoilActiveElements": "HC1-7;NC1,2",
  "ReceiveCoilName": "HeadNeck_64",
  "ReconMatrixPE": 104,
  "RepetitionTime": 1.49,
  "SAR": 0.0302924,
  "ScanOptions": "FS",
  "ScanningSequence": "EP",
  "SequenceName": "epfid2d1_104",
  "SequenceVariant": "SK_SS",
  "SeriesDescription": "func_task-gambling_run-1",
  "SeriesNumber": 15,
  "ShimSetting": [594, -7267, -8853, 590, -62, -358, -10, 62],
  "SliceThickness": 2,
  "SliceTiming": [0, 0.785, 0.0975, 0.8825, 0.195, 0.98, 0.295, 1.0775, 0.3925, 1.175, 0.49, 1.275, 0.5875, 1.3725, 0.685, 0, 0.785, 0.0975, 0.8825, 0.195, 0.98, 0.295, 1.0775, 0.3925, 1.175, 0.49, 1.275, 0.5875, 1.3725, 0.685, 0, 0.785, 0.0975, 0.8825, 0.195, 0.98, 0.295, 1.0775, 0.3925, 1.175, 0.49, 1.275, 0.5875, 1.3725, 0.685, 0, 0.785, 0.0975, 0.8825, 0.195, 0.98, 0.295, 1.0775, 0.3925, 1.175, 0.49, 1.275, 0.5875, 1.3725, 0.685],
  "SoftwareVersions": "syngo_MR_E11",
  "SpacingBetweenSlices": 2,
  "StationName": "MRC35049",
  "TaskName": "gambling",
  "TotalReadoutTime": 0.0576811,
  "TxRefAmp": 221.262,
  "WipMemBlock": "2277b5ce-690d-4131-8e19-ebce014d4dfa||Sequence: R016 ve11c/master r/e634e98; Dec 19 2017 11:00:25 by eja",
  "dcmmeta_affine": [
    [-1.9950356483459473, -0.038655009120702744, -0.13541953265666962, 108.4046859741211],
    [-0.009034045040607452, 1.9543511867523193, -0.4247704744338989, -74.20597076416016],
    [-0.14053840935230255, 0.4231044352054596, 1.9496747255325317, -49.61323165893555],
    [0.0, 0.0, 0.0, 1.0]
],
  "dcmmeta_reorient_transform": [
    [0.0, -1.0, 0.0, 103.0],
    [1.0, 0.0, 0.0, 0.0],
    [0.0, 0.0, 1.0, 0.0],
    [0.0, 0.0, 0.0, 1.0]
],
  "dcmmeta_shape": [104, 104, 60, 129],
  "dcmmeta_slice_dim": 2,
  "dcmmeta_version": 0.6,
  "global": {
    "const": {
      "AcquisitionMatrix": [104, 0, 0, 104],
      "AngioFlag": "N",
      "BitsAllocated": 16,
      "BitsStored": 16,
      "BodyPartExamined": "BRAIN",
      "Columns": 832,
      "EchoNumbers": 1,
      "EchoTime": 37.0,
      "EchoTrainLength": 104,
      "FlipAngle": 52.0,
      "HighBit": 15,
      "ImageOrientationPatient": [0.99751783699564, 0.00451702255303, -0.0702692065047, -0.0193275050859, 0.97717557470719, -0.2115522246228],
      "ImagePositionPatient": [-816.54577789615, -841.7644052424, 199.13252756084],
      "ImageType": [
        "ORIGINAL",
        "PRIMARY",
        "M",
        "MB",
        "ND",
        "MOSAIC"
],
      "ImagedNucleus": "1H",
      "ImagingFrequency": 123.2594,
      "InPlanePhaseEncodingDirection": "COL",
      "MRAcquisitionType": "2D",
      "MagneticFieldStrength": 3.0,
      "Manufacturer": "SIEMENS",
      "ManufacturerModelName": "Prisma_fit",
      "Modality": "MR",
      "NumberOfAverages": 1.0,
      "NumberOfPhaseEncodingSteps": 104,
      "PercentPhaseFieldOfView": 100.0,
      "PercentSampling": 100.0,
      "PerformedProcedureStepStartTime": "141236.510000",
      "PhotometricInterpretation": "MONOCHROME2",
      "PixelBandwidth": 2290.0,
      "PixelRepresentation": 0,
      "PixelSpacing": [2.0, 2.0],
      "ProtocolName": "func_task-gambling_run-1",
      "RepetitionTime": 1490.0,
      "Rows": 832,
      "SAR": 0.03029239721267,
      "SamplesPerPixel": 1,
      "ScanOptions": "FS",
      "ScanningSequence": "EP",
      "SequenceName": "epfid2d1_104",
      "SequenceVariant": [
        "SK",
        "SS"
],
      "SeriesDescription": "func_task-gambling_run-1",
      "SeriesNumber": 15,
      "SeriesTime": "143439.119000",
      "SliceLocation": -39.944634731289,
      "SliceThickness": 2.0,
      "SmallestImagePixelValue": 0,
      "SoftwareVersions": "syngo MR E11",
      "SpacingBetweenSlices": 1.9999999612374,
      "SpecificCharacterSet": "ISO_IR 100",
      "StudyID": "1",
      "StudyTime": "141236.442000",
      "TransmitCoilName": "Body",
      "VariableFlipAngleFlag": "N",
      "WindowCenterWidthExplanation": "Algo1",
      "dBdt": 0.0},
    "slices": {}
  },
  "time": {
    "samples": {
      "AcquisitionNumber": [1, 2, 3, 4, 5, 6, 7, 8, 9, 10, 11, 12, 13, 14, 15, 16, 17, 18, 19, 20, 21, 22, 23, 24, 25, 26, 27, 28, 29, 30, 31, 32, 33, 34, 35, 36, 37, 38, 39, 40, 41, 42, 43, 44, 45, 46, 47, 48, 49, 50, 51, 52, 53, 54, 55, 56, 57, 58, 59, 60, 61, 62, 63, 64, 65, 66, 67, 68, 69, 70, 71, 72, 73, 74, 75, 76, 77, 78, 79, 80, 81, 82, 83, 84, 85, 86, 87, 88, 89, 90, 91, 92, 93, 94, 95, 96, 97, 98, 99, 100, 101, 102, 103, 104, 105, 106, 107, 108, 109, 110, 111, 112, 113, 114, 115, 116, 117, 118, 119, 120, 121, 122, 123, 124, 125, 126, 127, 128, 129],
      "AcquisitionTime": ["143316.847500", "143318.337500", "143319.827500", "143321.317500", "143322.807500", "143324.297500", "143325.787500", "143327.277500", "143328.767500", "143330.257500", "143331.747500", "143333.237500", "143334.727500", "143336.217500", "143337.707500", "143339.197500", "143340.687500", "143342.177500", "143343.667500", "143345.157500", "143346.647500", "143348.137500", "143349.627500", "143351.117500", "143352.607500", "143354.097500", "143355.587500", "143357.077500", "143358.567500", "143400.057500", "143401.547500", "143403.037500", "143404.527500", "143406.017500", "143407.507500", "143408.997500", "143410.487500", "143411.977500", "143413.467500", "143414.957500", "143416.447500", "143417.937500", "143419.427500", "143420.917500", "143422.407500", "143423.897500", "143425.387500", "143426.877500", "143428.367500", "143429.857500", "143431.347500", "143432.837500", "143434.327500", "143435.817500", "143437.307500", "143438.797500", "143440.287500", "143441.777500", "143443.267500", "143444.757500", "143446.247500", "143447.737500", "143449.227500", "143450.717500", "143452.207500", "143453.697500", "143455.187500", "143456.677500", "143458.167500", "143459.657500", "143501.147500", "143502.637500", "143504.127500", "143505.617500", "143507.107500", "143508.597500", "143510.087500", "143511.577500", "143513.067500", "143514.557500", "143516.047500", "143517.537500", "143519.027500", "143520.517500", "143522.007500", "143523.497500", "143524.987500", "143526.477500", "143527.967500", "143529.457500", "143530.947500", "143532.437500", "143533.927500", "143535.417500", "143536.907500", "143538.397500", "143539.887500", "143541.377500", "143542.867500", "143544.357500", "143545.847500", "143547.337500", "143548.827500", "143550.317500", "143551.807500", "143553.297500", "143554.787500", "143556.277500", "143557.767500", "143559.257500", "143600.747500", "143602.237500", "143603.727500", "143605.217500", "143606.707500", "143608.197500", "143609.687500", "143611.177500", "143612.667500", "143614.157500", "143615.647500", "143617.137500", "143618.627500", "143620.117500", "143621.607500", "143623.097500", "143624.587500", "143626.077500", "143627.567500"],
      "ContentTime": ["143439.122000", "143439.125000", "143439.130000", "143439.133000", "143439.137000", "143439.139000", "143439.142000", "143439.145000", "143439.149000", "143439.152000", "143439.155000", "143439.158000", "143439.161000", "143439.164000", "143439.167000", "143439.170000", "143439.173000", "143439.176000", "143439.179000", "143439.182000", "143439.185000", "143439.188000", "143439.191000", "143439.194000", "143439.197000", "143439.200000", "143439.203000", "143439.206000", "143439.209000", "143459.091000", "143459.097000", "143459.101000", "143459.104000", "143459.107000", "143459.110000", "143459.113000", "143459.116000", "143459.119000", "143459.122000", "143459.125000", "143459.128000", "143459.131000", "143459.134000", "143459.137000", "143459.140000", "143459.143000", "143459.146000", "143459.149000", "143459.152000", "143519.091000", "143519.094000", "143519.097000", "143519.100000", "143519.103000", "143519.106000", "143519.109000", "143519.112000", "143519.115000", "143519.118000", "143519.122000", "143519.124000", "143519.127000", "143519.130000", "143519.134000", "143519.137000", "143519.140000", "143519.143000", "143519.146000", "143519.149000", "143539.091000", "143539.094000", "143539.097000", "143539.100000", "143539.103000", "143539.106000", "143539.110000", "143539.113000", "143539.116000", "143539.119000", "143539.122000", "143539.125000", "143539.128000", "143539.131000", "143539.139000", "143539.142000", "143539.145000", "143539.148000", "143539.151000", "143539.154000", "143559.091000", "143559.094000", "143559.097000", "143559.100000", "143559.103000", "143559.106000", "143559.109000", "143559.112000", "143559.116000", "143559.119000", "143559.122000", "143559.125000", "143559.128000", "143559.131000", "143559.134000", "143559.137000", "143559.140000", "143559.143000", "143559.146000", "143629.852000", "143629.855000", "143629.858000", "143629.862000", "143629.865000", "143629.868000", "143629.871000", "143629.874000", "143629.877000", "143629.880000", "143629.887000", "143629.890000", "143629.893000", "143629.897000", "143629.900000", "143629.903000", "143629.906000", "143629.909000", "143629.913000", "143629.916000", "143629.919000"],
      "InstanceCreationTime": ["143439.122000", "143439.125000", "143439.130000", "143439.133000", "143439.137000", "143439.139000", "143439.142000", "143439.145000", "143439.149000", "143439.152000", "143439.155000", "143439.158000", "143439.161000", "143439.164000", "143439.167000", "143439.170000", "143439.173000", "143439.176000", "143439.179000", "143439.182000", "143439.185000", "143439.188000", "143439.191000", "143439.194000", "143439.197000", "143439.200000", "143439.203000", "143439.206000", "143439.209000", "143459.091000", "143459.097000", "143459.101000", "143459.104000", "143459.107000", "143459.110000", "143459.113000", "143459.116000", "143459.119000", "143459.122000", "143459.125000", "143459.128000", "143459.131000", "143459.134000", "143459.137000", "143459.140000", "143459.143000", "143459.146000", "143459.149000", "143459.152000", "143519.091000", "143519.094000", "143519.097000", "143519.100000", "143519.103000", "143519.106000", "143519.109000", "143519.112000", "143519.115000", "143519.118000", "143519.122000", "143519.124000", "143519.127000", "143519.130000", "143519.134000", "143519.137000", "143519.140000", "143519.143000", "143519.146000", "143519.149000", "143539.091000", "143539.094000", "143539.097000", "143539.100000", "143539.103000", "143539.106000", "143539.110000", "143539.113000", "143539.116000", "143539.119000", "143539.122000", "143539.125000", "143539.128000", "143539.131000", "143539.139000", "143539.142000", "143539.145000", "143539.148000", "143539.151000", "143539.154000", "143559.091000", "143559.094000", "143559.097000", "143559.100000", "143559.103000", "143559.106000", "143559.109000", "143559.112000", "143559.116000", "143559.119000", "143559.122000", "143559.125000", "143559.128000", "143559.131000", "143559.134000", "143559.137000", "143559.140000", "143559.143000", "143559.146000", "143629.852000", "143629.855000", "143629.858000", "143629.862000", "143629.865000", "143629.868000", "143629.871000", "143629.874000", "143629.877000", "143629.880000", "143629.887000", "143629.890000", "143629.893000", "143629.897000", "143629.900000", "143629.903000", "143629.906000", "143629.909000", "143629.913000", "143629.916000", "143629.919000"],
      "InstanceNumber": [1, 2, 3, 4, 5, 6, 7, 8, 9, 10, 11, 12, 13, 14, 15, 16, 17, 18, 19, 20, 21, 22, 23, 24, 25, 26, 27, 28, 29, 30, 31, 32, 33, 34, 35, 36, 37, 38, 39, 40, 41, 42, 43, 44, 45, 46, 47, 48, 49, 50, 51, 52, 53, 54, 55, 56, 57, 58, 59, 60, 61, 62, 63, 64, 65, 66, 67, 68, 69, 70, 71, 72, 73, 74, 75, 76, 77, 78, 79, 80, 81, 82, 83, 84, 85, 86, 87, 88, 89, 90, 91, 92, 93, 94, 95, 96, 97, 98, 99, 100, 101, 102, 103, 104, 105, 106, 107, 108, 109, 110, 111, 112, 113, 114, 115, 116, 117, 118, 119, 120, 121, 122, 123, 124, 125, 126, 127, 128, 129],
      "LargestImagePixelValue": [45235, 44564, 43522, 43070, 42974, 43113, 43000, 42452, 41823, 41307, 40651, 41000, 40672, 40526, 40878, 41328, 40806, 42164, 42799, 42714, 42863, 42866, 42880, 42969, 42942, 43344, 43639, 43225, 43286, 43559, 43604, 42755, 43055, 42949, 43217, 44155, 44043, 42820, 42467, 42648, 42537, 42684, 43974, 43793, 43845, 43680, 44175, 43494, 43011, 43328, 40185, 43473, 41210, 41924, 40523, 40708, 42565, 41991, 42123, 40534, 41064, 41575, 43847, 43606, 44006, 43417, 43429, 43218, 43488, 43146, 43105, 43340, 42904, 43187, 43030, 43465, 43159, 42774, 42475, 43351, 43373, 43073, 43029, 43138, 43758, 43350, 42705, 43548, 43109, 43592, 43595, 43681, 43507, 44138, 44173, 44007, 43682, 42828, 42670, 43324, 43156, 43251, 43177, 42406, 42603, 42964, 40967, 41399, 40368, 41511, 42372, 40457, 39358, 39774, 40991, 40858, 40826, 40566, 40268, 40431, 41803, 40284, 40809, 40505, 40875, 40552, 42932, 43408, 43617],
      "WindowCenter": [9860.0, 9850.0, 9859.0, 9865.0, 9877.0, 9886.0, 9871.0, 9846.0, 9820.0, 9793.0, 9767.0, 9758.0, 9748.0, 9755.0, 9771.0, 9785.0, 9788.0, 9822.0, 9848.0, 9860.0, 9857.0, 9851.0, 9850.0, 9838.0, 9844.0, 9868.0, 9861.0, 9844.0, 9819.0, 9818.0, 9832.0, 9833.0, 9835.0, 9839.0, 9849.0, 9872.0, 9898.0, 9864.0, 9859.0, 9869.0, 9862.0, 9866.0, 9864.0, 9865.0, 9872.0, 9884.0, 9894.0, 9876.0, 9854.0, 9844.0, 9830.0, 9868.0, 9849.0, 9816.0, 9800.0, 9760.0, 9756.0, 9770.0, 9787.0, 9801.0, 9842.0, 9858.0, 9876.0, 9875.0, 9880.0, 9883.0, 9885.0, 9894.0, 9886.0, 9862.0, 9843.0, 9832.0, 9832.0, 9848.0, 9865.0, 9881.0, 9883.0, 9896.0, 9909.0, 9894.0, 9891.0, 9883.0, 9865.0, 9854.0, 9851.0, 9844.0, 9854.0, 9880.0, 9874.0, 9875.0, 9879.0, 9878.0, 9876.0, 9875.0, 9890.0, 9901.0, 9918.0, 9908.0, 9878.0, 9861.0, 9838.0, 9851.0, 9857.0, 9855.0, 9849.0, 9839.0, 9807.0, 9820.0, 9822.0, 9841.0, 9840.0, 9798.0, 9765.0, 9739.0, 9740.0, 9766.0, 9786.0, 9814.0, 9827.0, 9855.0, 9885.0, 9882.0, 9895.0, 9910.0, 9903.0, 9870.0, 9856.0, 9843.0, 9841.0],
      "WindowWidth": [21064.0, 21013.0, 21019.0, 21028.0, 21048.0, 21062.0, 21030.0, 20975.0, 20919.0, 20854.0, 20796.0, 20777.0, 20758.0, 20771.0, 20807.0, 20837.0, 20846.0, 20913.0, 20970.0, 20999.0, 20987.0, 20978.0, 20975.0, 20947.0, 20964.0, 21013.0, 20998.0, 20960.0, 20906.0, 20904.0, 20939.0, 20937.0, 20940.0, 20952.0, 20976.0, 21029.0, 21090.0, 21011.0, 20996.0, 21018.0, 21005.0, 21014.0, 21004.0, 21006.0, 21024.0, 21051.0, 21073.0, 21031.0, 20984.0, 20961.0, 20955.0, 21034.0, 20996.0, 20915.0, 20880.0, 20788.0, 20771.0, 20804.0, 20844.0, 20879.0, 20975.0, 21007.0, 21038.0, 21034.0, 21042.0, 21050.0, 21056.0, 21078.0, 21057.0, 21007.0, 20964.0, 20940.0, 20942.0, 20978.0, 21014.0, 21048.0, 21057.0, 21090.0, 21118.0, 21079.0, 21070.0, 21055.0, 21015.0, 20991.0, 20979.0, 20964.0, 20990.0, 21045.0, 21033.0, 21036.0, 21044.0, 21040.0, 21034.0, 21029.0, 21064.0, 21091.0, 21128.0, 21115.0, 21047.0, 21004.0, 20951.0, 20980.0, 20991.0, 20992.0, 20975.0, 20956.0, 20889.0, 20919.0, 20936.0, 20976.0, 20969.0, 20880.0, 20811.0, 20745.0, 20740.0, 20800.0, 20848.0, 20917.0, 20947.0, 21014.0, 21072.0, 21071.0, 21097.0, 21133.0, 21117.0, 21041.0, 20998.0, 20965.0, 20961.0]
    },
    "slices": {}
  }
}