{
  "AcquisitionMatrixPE": 104,
  "AcquisitionNumber": 1,
  "AcquisitionTime": "14:17:42.702500",
  "BandwidthPerPixelPhaseEncode": 17.17,
  "BaseResolution": 104,
  "BodyPartExamined": "BRAIN",
  "CoilString": "HC1-7;NC1_2",
  "ConsistencyInfo": "N4_VE11C_LATEST_20160120",
  "ConversionSoftware": "dcm2niix",
  "ConversionSoftwareVersion": "v1.0.20190902",
  "DerivedVendorReportedEchoSpacing": 0.000560011,
  "DeviceSerialNumber": "167006",
  "DwellTime": 2.1e-06,
  "EchoTime": 0.037,
  "EchoTrainLength": 104,
  "EffectiveEchoSpacing": 0.000560011,
  "FlipAngle": 52,
  "ImageComments": "Unaliased_MB4_PE3_LB",
  "ImageOrientationPatientDICOM": [0.997518, 0.00451702, -0.0702692, -0.0193275, 0.977176, -0.211552],
  "ImageType": [
    "ORIGINAL",
    "PRIMARY",
    "M",
    "MB",
    "ND",
    "MOSAIC"
],
  "ImagingFrequency": 123.259,
  "InPlanePhaseEncodingDirectionDICOM": "COL",
  "InstitutionAddress": "Chemin_Queen-Mary_4565_Montreal_District_CA_H3W_1W5",
  "InstitutionName": "IUGM",
  "InstitutionalDepartmentName": "Department",
  "MRAcquisitionType": "2D",
  "MagneticFieldStrength": 3,
  "Manufacturer": "Siemens",
  "ManufacturersModelName": "Prisma_fit",
  "Modality": "MR",
  "MultibandAccelerationFactor": 4,
  "PartialFourier": 1,
  "PatientPosition": "HFS",
  "PercentPhaseFOV": 100,
  "PhaseEncodingDirection": "j",
  "PhaseEncodingSteps": 104,
  "PhaseResolution": 1,
  "PixelBandwidth": 2290,
  "ProcedureStepDescription": "hcptrt_generic",
  "ProtocolName": "func_task-language_run-1",
  "PulseSequenceDetails": "%CustomerSeq%_cmrr_mbep2d_bold",
  "ReceiveCoilActiveElements": "HC1-7;NC1,2",
  "ReceiveCoilName": "HeadNeck_64",
  "ReconMatrixPE": 104,
  "RepetitionTime": 1.49,
  "SAR": 0.0303752,
  "ScanOptions": "FS",
  "ScanningSequence": "EP",
  "SequenceName": "epfid2d1_104",
  "SequenceVariant": "SK_SS",
  "SeriesDescription": "func_task-language_run-1",
  "SeriesNumber": 9,
  "ShimSetting": [594, -7267, -8853, 590, -62, -358, -10, 62],
  "SliceThickness": 2,
  "SliceTiming": [0, 0.7825, 0.0975, 0.88, 0.195, 0.98, 0.2925, 1.0775, 0.39, 1.175, 0.49, 1.2725, 0.5875, 1.37, 0.685, 0, 0.7825, 0.0975, 0.88, 0.195, 0.98, 0.2925, 1.0775, 0.39, 1.175, 0.49, 1.2725, 0.5875, 1.37, 0.685, 0, 0.7825, 0.0975, 0.88, 0.195, 0.98, 0.2925, 1.0775, 0.39, 1.175, 0.49, 1.2725, 0.5875, 1.37, 0.685, 0, 0.7825, 0.0975, 0.88, 0.195, 0.98, 0.2925, 1.0775, 0.39, 1.175, 0.49, 1.2725, 0.5875, 1.37, 0.685],
  "SoftwareVersions": "syngo_MR_E11",
  "SpacingBetweenSlices": 2,
  "StationName": "MRC35049",
  "TaskName": "language",
  "TotalReadoutTime": 0.0576811,
  "TxRefAmp": 221.262,
  "WipMemBlock": "2df85072-b580-4679-850f-510c86507112||Sequence: R016 ve11c/master r/e634e98; Dec 19 2017 11:00:25 by eja",
  "dcmmeta_affine": [
    [-1.9950356483459473, -0.038655009120702744, -0.13541953265666962, 108.4046859741211],
    [-0.009034045040607452, 1.9543511867523193, -0.4247704744338989, -74.20597076416016],
    [-0.14053840935230255, 0.4231044352054596, 1.9496747255325317, -49.61323165893555],
    [0.0, 0.0, 0.0, 1.0]
],
  "dcmmeta_reorient_transform": [
    [0.0, -1.0, 0.0, 103.0],
    [1.0, 0.0, 0.0, 0.0],
    [0.0, 0.0, 1.0, 0.0],
    [0.0, 0.0, 0.0, 1.0]
],
  "dcmmeta_shape": [104, 104, 60, 159],
  "dcmmeta_slice_dim": 2,
  "dcmmeta_version": 0.6,
  "global": {
    "const": {
      "AcquisitionMatrix": [104, 0, 0, 104],
      "AngioFlag": "N",
      "BitsAllocated": 16,
      "BitsStored": 16,
      "BodyPartExamined": "BRAIN",
      "Columns": 832,
      "EchoNumbers": 1,
      "EchoTime": 37.0,
      "EchoTrainLength": 104,
      "FlipAngle": 52.0,
      "HighBit": 15,
      "ImageOrientationPatient": [0.99751783699564, 0.00451702255303, -0.0702692065047, -0.0193275050859, 0.97717557470719, -0.2115522246228],
      "ImagePositionPatient": [-816.54577789615, -841.7644052424, 199.13252756084],
      "ImageType": [
        "ORIGINAL",
        "PRIMARY",
        "M",
        "MB",
        "ND",
        "MOSAIC"
],
      "ImagedNucleus": "1H",
      "ImagingFrequency": 123.259392,
      "InPlanePhaseEncodingDirection": "COL",
      "MRAcquisitionType": "2D",
      "MagneticFieldStrength": 3.0,
      "Manufacturer": "SIEMENS",
      "ManufacturerModelName": "Prisma_fit",
      "Modality": "MR",
      "NumberOfAverages": 1.0,
      "NumberOfPhaseEncodingSteps": 104,
      "PercentPhaseFieldOfView": 100.0,
      "PercentSampling": 100.0,
      "PerformedProcedureStepStartTime": "141236.510000",
      "PhotometricInterpretation": "MONOCHROME2",
      "PixelBandwidth": 2290.0,
      "PixelRepresentation": 0,
      "PixelSpacing": [2.0, 2.0],
      "ProtocolName": "func_task-language_run-1",
      "RepetitionTime": 1490.0,
      "Rows": 832,
      "SAR": 0.03037519176414,
      "SamplesPerPixel": 1,
      "ScanOptions": "FS",
      "ScanningSequence": "EP",
      "SequenceName": "epfid2d1_104",
      "SequenceVariant": [
        "SK",
        "SS"
],
      "SeriesDescription": "func_task-language_run-1",
      "SeriesNumber": 9,
      "SeriesTime": "141859.118000",
      "SliceLocation": -39.944634731289,
      "SliceThickness": 2.0,
      "SmallestImagePixelValue": 0,
      "SoftwareVersions": "syngo MR E11",
      "SpacingBetweenSlices": 1.9999999612374,
      "SpecificCharacterSet": "ISO_IR 100",
      "StudyID": "1",
      "StudyTime": "141236.442000",
      "TransmitCoilName": "Body",
      "VariableFlipAngleFlag": "N",
      "WindowCenterWidthExplanation": "Algo1",
      "dBdt": 0.0},
    "slices": {}
  },
  "time": {
    "samples": {
      "AcquisitionNumber": [1, 2, 3, 4, 5, 6, 7, 8, 9, 10, 11, 12, 13, 14, 15, 16, 17, 18, 19, 20, 21, 22, 23, 24, 25, 26, 27, 28, 29, 30, 31, 32, 33, 34, 35, 36, 37, 38, 39, 40, 41, 42, 43, 44, 45, 46, 47, 48, 49, 50, 51, 52, 53, 54, 55, 56, 57, 58, 59, 60, 61, 62, 63, 64, 65, 66, 67, 68, 69, 70, 71, 72, 73, 74, 75, 76, 77, 78, 79, 80, 81, 82, 83, 84, 85, 86, 87, 88, 89, 90, 91, 92, 93, 94, 95, 96, 97, 98, 99, 100, 101, 102, 103, 104, 105, 106, 107, 108, 109, 110, 111, 112, 113, 114, 115, 116, 117, 118, 119, 120, 121, 122, 123, 124, 125, 126, 127, 128, 129, 130, 131, 132, 133, 134, 135, 136, 137, 138, 139, 140, 141, 142, 143, 144, 145, 146, 147, 148, 149, 150, 151, 152, 153, 154, 155, 156, 157, 158, 159],
      "AcquisitionTime": ["141742.702500", "141744.192500", "141745.682500", "141747.172500", "141748.662500", "141750.152500", "141751.642500", "141753.132500", "141754.622500", "141756.112500", "141757.602500", "141759.092500", "141800.582500", "141802.072500", "141803.562500", "141805.052500", "141806.542500", "141808.032500", "141809.522500", "141811.012500", "141812.502500", "141813.992500", "141815.482500", "141816.972500", "141818.462500", "141819.952500", "141821.442500", "141822.932500", "141824.422500", "141825.912500", "141827.402500", "141828.892500", "141830.382500", "141831.872500", "141833.362500", "141834.852500", "141836.342500", "141837.832500", "141839.322500", "141840.812500", "141842.302500", "141843.792500", "141845.282500", "141846.772500", "141848.262500", "141849.752500", "141851.242500", "141852.732500", "141854.222500", "141855.712500", "141857.202500", "141858.692500", "141900.182500", "141901.672500", "141903.162500", "141904.652500", "141906.142500", "141907.632500", "141909.122500", "141910.612500", "141912.102500", "141913.592500", "141915.082500", "141916.572500", "141918.062500", "141919.552500", "141921.042500", "141922.532500", "141924.022500", "141925.512500", "141927.002500", "141928.492500", "141929.982500", "141931.472500", "141932.962500", "141934.452500", "141935.942500", "141937.432500", "141938.922500", "141940.412500", "141941.902500", "141943.392500", "141944.882500", "141946.372500", "141947.862500", "141949.352500", "141950.842500", "141952.332500", "141953.822500", "141955.312500", "141956.802500", "141958.292500", "141959.782500", "142001.272500", "142002.762500", "142004.252500", "142005.742500", "142007.232500", "142008.722500", "142010.212500", "142011.702500", "142013.192500", "142014.682500", "142016.172500", "142017.662500", "142019.152500", "142020.642500", "142022.132500", "142023.622500", "142025.112500", "142026.602500", "142028.092500", "142029.582500", "142031.072500", "142032.562500", "142034.052500", "142035.542500", "142037.032500", "142038.522500", "142040.012500", "142041.502500", "142042.992500", "142044.482500", "142045.972500", "142047.462500", "142048.952500", "142050.442500", "142051.932500", "142053.422500", "142054.912500", "142056.402500", "142057.892500", "142059.382500", "142100.872500", "142102.362500", "142103.852500", "142105.342500", "142106.832500", "142108.322500", "142109.812500", "142111.302500", "142112.792500", "142114.282500", "142115.772500", "142117.262500", "142118.752500", "142120.242500", "142121.732500", "142123.222500", "142124.712500", "142126.202500", "142127.692500", "142129.182500", "142130.672500", "142132.162500", "142133.652500", "142135.142500", "142136.632500", "142138.122500"],
      "ContentTime": ["141859.121000", "141859.124000", "141859.134000", "141859.137000", "141859.140000", "141859.142000", "141859.146000", "141859.149000", "141859.157000", "141859.160000", "141859.163000", "141859.166000", "141859.169000", "141859.172000", "141859.176000", "141859.181000", "141859.184000", "141859.186000", "141859.190000", "141859.193000", "141859.196000", "141859.198000", "141859.202000", "141919.091000", "141919.094000", "141919.098000", "141919.100000", "141919.103000", "141919.106000", "141919.110000", "141919.113000", "141919.116000", "141919.119000", "141919.122000", "141919.125000", "141919.128000", "141919.131000", "141919.134000", "141919.137000", "141919.140000", "141919.143000", "141919.146000", "141919.149000", "141939.091000", "141939.094000", "141939.097000", "141939.100000", "141939.103000", "141939.106000", "141939.110000", "141939.113000", "141939.116000", "141939.119000", "141939.122000", "141939.125000", "141939.128000", "141939.131000", "141939.134000", "141939.137000", "141939.140000", "141939.143000", "141939.146000", "141939.149000", "141959.091000", "141959.094000", "141959.097000", "141959.100000", "141959.103000", "141959.106000", "141959.109000", "141959.112000", "141959.116000", "141959.119000", "141959.122000", "141959.125000", "141959.128000", "141959.131000", "141959.134000", "141959.137000", "141959.158000", "141959.161000", "141959.170000", "141959.173000", "142019.090000", "142019.094000", "142019.097000", "142019.100000", "142019.103000", "142019.107000", "142019.110000", "142019.113000", "142019.116000", "142019.119000", "142019.122000", "142019.125000", "142019.128000", "142019.131000", "142019.134000", "142019.137000", "142019.140000", "142019.143000", "142019.146000", "142019.149000", "142059.091000", "142059.094000", "142059.097000", "142059.100000", "142059.104000", "142059.107000", "142059.110000", "142059.113000", "142059.115000", "142059.118000", "142059.122000", "142059.125000", "142059.127000", "142059.131000", "142059.134000", "142059.137000", "142059.140000", "142059.143000", "142059.146000", "142059.149000", "142059.152000", "142059.155000", "142059.158000", "142059.161000", "142059.164000", "142059.167000", "142059.175000", "142059.178000", "142139.091000", "142139.094000", "142139.097000", "142139.100000", "142139.104000", "142139.107000", "142139.110000", "142139.113000", "142139.116000", "142139.119000", "142139.122000", "142139.125000", "142139.128000", "142139.131000", "142139.134000", "142139.137000", "142139.140000", "142139.143000", "142139.146000", "142139.149000", "142139.152000", "142139.155000", "142139.158000", "142139.161000", "142139.164000", "142139.167000", "142140.757000", "142140.760000"],
      "InstanceCreationTime": ["141859.121000", "141859.124000", "141859.134000", "141859.137000", "141859.140000", "141859.142000", "141859.146000", "141859.149000", "141859.157000", "141859.160000", "141859.163000", "141859.166000", "141859.169000", "141859.172000", "141859.176000", "141859.181000", "141859.184000", "141859.186000", "141859.190000", "141859.193000", "141859.196000", "141859.198000", "141859.202000", "141919.091000", "141919.094000", "141919.098000", "141919.100000", "141919.103000", "141919.106000", "141919.110000", "141919.113000", "141919.116000", "141919.119000", "141919.122000", "141919.125000", "141919.128000", "141919.131000", "141919.134000", "141919.137000", "141919.140000", "141919.143000", "141919.146000", "141919.149000", "141939.091000", "141939.094000", "141939.097000", "141939.100000", "141939.103000", "141939.106000", "141939.110000", "141939.113000", "141939.116000", "141939.119000", "141939.122000", "141939.125000", "141939.128000", "141939.131000", "141939.134000", "141939.137000", "141939.140000", "141939.143000", "141939.146000", "141939.149000", "141959.091000", "141959.094000", "141959.097000", "141959.100000", "141959.103000", "141959.106000", "141959.109000", "141959.112000", "141959.116000", "141959.119000", "141959.122000", "141959.125000", "141959.128000", "141959.131000", "141959.134000", "141959.137000", "141959.158000", "141959.161000", "141959.170000", "141959.173000", "142019.090000", "142019.094000", "142019.097000", "142019.100000", "142019.103000", "142019.107000", "142019.110000", "142019.113000", "142019.116000", "142019.119000", "142019.122000", "142019.125000", "142019.128000", "142019.131000", "142019.134000", "142019.137000", "142019.140000", "142019.143000", "142019.146000", "142019.149000", "142059.091000", "142059.094000", "142059.097000", "142059.100000", "142059.104000", "142059.107000", "142059.110000", "142059.113000", "142059.115000", "142059.118000", "142059.122000", "142059.125000", "142059.127000", "142059.131000", "142059.134000", "142059.137000", "142059.140000", "142059.143000", "142059.146000", "142059.149000", "142059.152000", "142059.155000", "142059.158000", "142059.161000", "142059.164000", "142059.167000", "142059.175000", "142059.178000", "142139.091000", "142139.094000", "142139.097000", "142139.100000", "142139.104000", "142139.107000", "142139.110000", "142139.113000", "142139.116000", "142139.119000", "142139.122000", "142139.125000", "142139.128000", "142139.131000", "142139.134000", "142139.137000", "142139.140000", "142139.143000", "142139.146000", "142139.149000", "142139.152000", "142139.155000", "142139.158000", "142139.161000", "142139.164000", "142139.167000", "142140.757000", "142140.760000"],
      "InstanceNumber": [1, 2, 3, 4, 5, 6, 7, 8, 9, 10, 11, 12, 13, 14, 15, 16, 17, 18, 19, 20, 21, 22, 23, 24, 25, 26, 27, 28, 29, 30, 31, 32, 33, 34, 35, 36, 37, 38, 39, 40, 41, 42, 43, 44, 45, 46, 47, 48, 49, 50, 51, 52, 53, 54, 55, 56, 57, 58, 59, 60, 61, 62, 63, 64, 65, 66, 67, 68, 69, 70, 71, 72, 73, 74, 75, 76, 77, 78, 79, 80, 81, 82, 83, 84, 85, 86, 87, 88, 89, 90, 91, 92, 93, 94, 95, 96, 97, 98, 99, 100, 101, 102, 103, 104, 105, 106, 107, 108, 109, 110, 111, 112, 113, 114, 115, 116, 117, 118, 119, 120, 121, 122, 123, 124, 125, 126, 127, 128, 129, 130, 131, 132, 133, 134, 135, 136, 137, 138, 139, 140, 141, 142, 143, 144, 145, 146, 147, 148, 149, 150, 151, 152, 153, 154, 155, 156, 157, 158, 159],
      "LargestImagePixelValue": [43654, 42175, 41916, 40970, 40815, 41312, 41079, 40790, 40895, 40675, 41024, 41020, 40814, 41239, 41069, 40538, 41289, 40830, 40787, 41133, 41331, 40566, 41375, 40493, 41211, 40904, 40755, 41795, 40518, 40657, 41622, 40869, 41914, 41383, 41139, 42013, 41572, 41256, 41983, 41893, 41629, 42053, 41082, 41911, 41212, 41570, 41753, 41374, 41912, 42115, 41443, 42594, 41589, 41909, 41710, 41158, 42153, 41776, 41295, 41766, 41824, 41675, 42124, 41600, 41774, 42550, 41558, 42069, 41840, 41263, 42469, 41736, 41556, 42655, 41891, 42386, 42038, 41495, 42397, 42188, 41986, 42859, 41423, 41909, 42994, 41897, 41730, 40986, 40873, 41214, 40924, 41401, 41682, 41411, 41941, 41306, 41019, 41634, 41393, 41648, 40779, 41035, 41879, 41849, 41320, 41450, 41189, 42228, 41734, 41071, 42397, 41791, 40972, 41750, 41500, 41452, 42281, 41642, 41597, 42053, 41483, 41334, 42185, 41470, 41484, 41896, 41621, 41920, 41949, 41634, 42555, 42119, 42046, 42605, 41440, 42285, 42397, 41667, 42766, 42601, 42219, 42613, 41677, 41781, 42081, 41633, 42184, 41895, 41564, 42297, 42121, 41802, 41944, 42020, 41833, 42515, 41404, 41452, 42153],
      "WindowCenter": [10004.0, 9957.0, 9943.0, 9936.0, 9934.0, 9941.0, 9934.0, 9925.0, 9931.0, 9924.0, 9930.0, 9937.0, 9933.0, 9935.0, 9933.0, 9934.0, 9940.0, 9939.0, 9940.0, 9955.0, 9948.0, 9926.0, 9921.0, 9906.0, 9903.0, 9901.0, 9897.0, 9923.0, 9916.0, 9916.0, 9919.0, 9914.0, 9927.0, 9930.0, 9930.0, 9936.0, 9930.0, 9928.0, 9920.0, 9920.0, 9921.0, 9936.0, 9932.0, 9942.0, 9936.0, 9933.0, 9931.0, 9923.0, 9929.0, 9936.0, 9937.0, 9951.0, 9940.0, 9938.0, 9932.0, 9932.0, 9943.0, 9930.0, 9915.0, 9919.0, 9929.0, 9937.0, 9946.0, 9940.0, 9930.0, 9931.0, 9909.0, 9915.0, 9919.0, 9920.0, 9932.0, 9928.0, 9929.0, 9942.0, 9937.0, 9936.0, 9935.0, 9923.0, 9925.0, 9919.0, 9925.0, 9947.0, 9902.0, 9911.0, 9912.0, 9891.0, 9881.0, 9883.0, 9884.0, 9902.0, 9910.0, 9901.0, 9906.0, 9899.0, 9897.0, 9891.0, 9892.0, 9905.0, 9907.0, 9913.0, 9901.0, 9894.0, 9905.0, 9912.0, 9901.0, 9906.0, 9894.0, 9897.0, 9895.0, 9891.0, 9905.0, 9907.0, 9895.0, 9899.0, 9898.0, 9897.0, 9905.0, 9899.0, 9898.0, 9898.0, 9891.0, 9892.0, 9907.0, 9900.0, 9891.0, 9889.0, 9881.0, 9887.0, 9896.0, 9904.0, 9912.0, 9907.0, 9898.0, 9896.0, 9888.0, 9887.0, 9894.0, 9883.0, 9893.0, 9886.0, 9878.0, 9891.0, 9881.0, 9880.0, 9880.0, 9880.0, 9888.0, 9897.0, 9892.0, 9889.0, 9890.0, 9888.0, 9892.0, 9899.0, 9925.0, 9905.0, 9910.0, 9908.0, 9925.0],
      "WindowWidth": [21407.0, 21275.0, 21226.0, 21201.0, 21191.0, 21200.0, 21186.0, 21164.0, 21174.0, 21160.0, 21173.0, 21190.0, 21182.0, 21187.0, 21186.0, 21185.0, 21194.0, 21193.0, 21195.0, 21228.0, 21215.0, 21168.0, 21151.0, 21119.0, 21112.0, 21108.0, 21100.0, 21153.0, 21146.0, 21145.0, 21151.0, 21140.0, 21165.0, 21174.0, 21172.0, 21183.0, 21173.0, 21167.0, 21152.0, 21150.0, 21154.0, 21185.0, 21178.0, 21194.0, 21184.0, 21177.0, 21176.0, 21161.0, 21170.0, 21184.0, 21189.0, 21215.0, 21195.0, 21186.0, 21175.0, 21176.0, 21194.0, 21169.0, 21139.0, 21146.0, 21168.0, 21188.0, 21207.0, 21194.0, 21171.0, 21164.0, 21121.0, 21134.0, 21146.0, 21149.0, 21169.0, 21166.0, 21166.0, 21191.0, 21185.0, 21181.0, 21179.0, 21155.0, 21154.0, 21143.0, 21155.0, 21202.0, 21111.0, 21130.0, 21123.0, 21082.0, 21057.0, 21066.0, 21068.0, 21110.0, 21129.0, 21109.0, 21117.0, 21103.0, 21095.0, 21083.0, 21087.0, 21113.0, 21120.0, 21132.0, 21110.0, 21095.0, 21114.0, 21129.0, 21107.0, 21117.0, 21094.0, 21095.0, 21093.0, 21084.0, 21112.0, 21116.0, 21096.0, 21102.0, 21100.0, 21097.0, 21114.0, 21106.0, 21100.0, 21097.0, 21082.0, 21087.0, 21118.0, 21106.0, 21083.0, 21077.0, 21061.0, 21071.0, 21093.0, 21108.0, 21125.0, 21115.0, 21095.0, 21090.0, 21072.0, 21072.0, 21086.0, 21066.0, 21082.0, 21067.0, 21051.0, 21073.0, 21060.0, 21055.0, 21057.0, 21059.0, 21075.0, 21094.0, 21083.0, 21076.0, 21079.0, 21075.0, 21084.0, 21100.0, 21163.0, 21119.0, 21132.0, 21122.0, 21164.0]
    },
    "slices": {}
  }
}