{
  "AcquisitionMatrixPE": 104,
  "AcquisitionNumber": 1,
  "AcquisitionTime": "14:37:46.972500",
  "BandwidthPerPixelPhaseEncode": 17.17,
  "BaseResolution": 104,
  "BodyPartExamined": "BRAIN",
  "CoilString": "HC1-7;NC1_2",
  "ConsistencyInfo": "N4_VE11C_LATEST_20160120",
  "ConversionSoftware": "dcm2niix",
  "ConversionSoftwareVersion": "v1.0.20190902",
  "DerivedVendorReportedEchoSpacing": 0.000560011,
  "DeviceSerialNumber": "167006",
  "DwellTime": 2.1e-06,
  "EchoTime": 0.037,
  "EchoTrainLength": 104,
  "EffectiveEchoSpacing": 0.000560011,
  "FlipAngle": 52,
  "ImageComments": "Unaliased_MB4_PE3_LB",
  "ImageOrientationPatientDICOM": [0.997518, 0.00451702, -0.0702692, -0.0193275, 0.977176, -0.211552],
  "ImageType": [
    "ORIGINAL",
    "PRIMARY",
    "M",
    "MB",
    "ND",
    "MOSAIC"
],
  "ImagingFrequency": 123.259,
  "InPlanePhaseEncodingDirectionDICOM": "COL",
  "InstitutionAddress": "Chemin_Queen-Mary_4565_Montreal_District_CA_H3W_1W5",
  "InstitutionName": "IUGM",
  "InstitutionalDepartmentName": "Department",
  "MRAcquisitionType": "2D",
  "MagneticFieldStrength": 3,
  "Manufacturer": "Siemens",
  "ManufacturersModelName": "Prisma_fit",
  "Modality": "MR",
  "MultibandAccelerationFactor": 4,
  "PartialFourier": 1,
  "PatientPosition": "HFS",
  "PercentPhaseFOV": 100,
  "PhaseEncodingDirection": "j",
  "PhaseEncodingSteps": 104,
  "PhaseResolution": 1,
  "PixelBandwidth": 2290,
  "ProcedureStepDescription": "hcptrt_generic",
  "ProtocolName": "func_task-motor_run-1",
  "PulseSequenceDetails": "%CustomerSeq%_cmrr_mbep2d_bold",
  "ReceiveCoilActiveElements": "HC1-7;NC1,2",
  "ReceiveCoilName": "HeadNeck_64",
  "ReconMatrixPE": 104,
  "RepetitionTime": 1.49,
  "SAR": 0.0303379,
  "ScanOptions": "FS",
  "ScanningSequence": "EP",
  "SequenceName": "epfid2d1_104",
  "SequenceVariant": "SK_SS",
  "SeriesDescription": "func_task-motor_run-1",
  "SeriesNumber": 17,
  "ShimSetting": [594, -7267, -8853, 590, -62, -358, -10, 62],
  "SliceThickness": 2,
  "SliceTiming": [0, 0.785, 0.1, 0.8825, 0.1975, 0.98, 0.295, 1.08, 0.3925, 1.1775, 0.49, 1.275, 0.59, 1.3725, 0.6875, 0, 0.785, 0.1, 0.8825, 0.1975, 0.98, 0.295, 1.08, 0.3925, 1.1775, 0.49, 1.275, 0.59, 1.3725, 0.6875, 0, 0.785, 0.1, 0.8825, 0.1975, 0.98, 0.295, 1.08, 0.3925, 1.1775, 0.49, 1.275, 0.59, 1.3725, 0.6875, 0, 0.785, 0.1, 0.8825, 0.1975, 0.98, 0.295, 1.08, 0.3925, 1.1775, 0.49, 1.275, 0.59, 1.3725, 0.6875],
  "SoftwareVersions": "syngo_MR_E11",
  "SpacingBetweenSlices": 2,
  "StationName": "MRC35049",
  "TaskName": "motor",
  "TotalReadoutTime": 0.0576811,
  "TxRefAmp": 221.262,
  "WipMemBlock": "7c2c735f-bbce-4140-84ce-1255814c9a03||Sequence: R016 ve11c/master r/e634e98; Dec 19 2017 11:00:25 by eja",
  "dcmmeta_affine": [
    [-1.9950356483459473, -0.038655009120702744, -0.13541953265666962, 108.4046859741211],
    [-0.009034045040607452, 1.9543511867523193, -0.4247704744338989, -74.20597076416016],
    [-0.14053840935230255, 0.4231044352054596, 1.9496747255325317, -49.61323165893555],
    [0.0, 0.0, 0.0, 1.0]
],
  "dcmmeta_reorient_transform": [
    [0.0, -1.0, 0.0, 103.0],
    [1.0, 0.0, 0.0, 0.0],
    [0.0, 0.0, 1.0, 0.0],
    [0.0, 0.0, 0.0, 1.0]
],
  "dcmmeta_shape": [104, 104, 60, 144],
  "dcmmeta_slice_dim": 2,
  "dcmmeta_version": 0.6,
  "global": {
    "const": {
      "AcquisitionMatrix": [104, 0, 0, 104],
      "AngioFlag": "N",
      "BitsAllocated": 16,
      "BitsStored": 16,
      "BodyPartExamined": "BRAIN",
      "Columns": 832,
      "EchoNumbers": 1,
      "EchoTime": 37.0,
      "EchoTrainLength": 104,
      "FlipAngle": 52.0,
      "HighBit": 15,
      "ImageOrientationPatient": [0.99751783699564, 0.00451702255303, -0.0702692065047, -0.0193275050859, 0.97717557470719, -0.2115522246228],
      "ImagePositionPatient": [-816.54577789615, -841.7644052424, 199.13252756084],
      "ImageType": [
        "ORIGINAL",
        "PRIMARY",
        "M",
        "MB",
        "ND",
        "MOSAIC"
],
      "ImagedNucleus": "1H",
      "ImagingFrequency": 123.2594,
      "InPlanePhaseEncodingDirection": "COL",
      "MRAcquisitionType": "2D",
      "MagneticFieldStrength": 3.0,
      "Manufacturer": "SIEMENS",
      "ManufacturerModelName": "Prisma_fit",
      "Modality": "MR",
      "NumberOfAverages": 1.0,
      "NumberOfPhaseEncodingSteps": 104,
      "PercentPhaseFieldOfView": 100.0,
      "PercentSampling": 100.0,
      "PerformedProcedureStepStartTime": "141236.510000",
      "PhotometricInterpretation": "MONOCHROME2",
      "PixelBandwidth": 2290.0,
      "PixelRepresentation": 0,
      "PixelSpacing": [2.0, 2.0],
      "ProtocolName": "func_task-motor_run-1",
      "RepetitionTime": 1490.0,
      "Rows": 832,
      "SAR": 0.03033790841678,
      "SamplesPerPixel": 1,
      "ScanOptions": "FS",
      "ScanningSequence": "EP",
      "SequenceName": "epfid2d1_104",
      "SequenceVariant": [
        "SK",
        "SS"
],
      "SeriesDescription": "func_task-motor_run-1",
      "SeriesNumber": 17,
      "SeriesTime": "143905.203000",
      "SliceLocation": -39.944634731289,
      "SliceThickness": 2.0,
      "SmallestImagePixelValue": 0,
      "SoftwareVersions": "syngo MR E11",
      "SpacingBetweenSlices": 1.9999999612374,
      "SpecificCharacterSet": "ISO_IR 100",
      "StudyID": "1",
      "StudyTime": "141236.442000",
      "TransmitCoilName": "Body",
      "VariableFlipAngleFlag": "N",
      "WindowCenterWidthExplanation": "Algo1",
      "dBdt": 0.0},
    "slices": {}
  },
  "time": {
    "samples": {
      "AcquisitionNumber": [1, 2, 3, 4, 5, 6, 7, 8, 9, 10, 11, 12, 13, 14, 15, 16, 17, 18, 19, 20, 21, 22, 23, 24, 25, 26, 27, 28, 29, 30, 31, 32, 33, 34, 35, 36, 37, 38, 39, 40, 41, 42, 43, 44, 45, 46, 47, 48, 49, 50, 51, 52, 53, 54, 55, 56, 57, 58, 59, 60, 61, 62, 63, 64, 65, 66, 67, 68, 69, 70, 71, 72, 73, 74, 75, 76, 77, 78, 79, 80, 81, 82, 83, 84, 85, 86, 87, 88, 89, 90, 91, 92, 93, 94, 95, 96, 97, 98, 99, 100, 101, 102, 103, 104, 105, 106, 107, 108, 109, 110, 111, 112, 113, 114, 115, 116, 117, 118, 119, 120, 121, 122, 123, 124, 125, 126, 127, 128, 129, 130, 131, 132, 133, 134, 135, 136, 137, 138, 139, 140, 141, 142, 143, 144],
      "AcquisitionTime": ["143746.972500", "143748.462500", "143749.952500", "143751.442500", "143752.932500", "143754.422500", "143755.912500", "143757.402500", "143758.892500", "143800.382500", "143801.872500", "143803.362500", "143804.852500", "143806.342500", "143807.832500", "143809.322500", "143810.812500", "143812.302500", "143813.792500", "143815.282500", "143816.772500", "143818.262500", "143819.752500", "143821.242500", "143822.732500", "143824.222500", "143825.712500", "143827.202500", "143828.692500", "143830.182500", "143831.672500", "143833.162500", "143834.652500", "143836.142500", "143837.632500", "143839.122500", "143840.612500", "143842.102500", "143843.592500", "143845.082500", "143846.572500", "143848.062500", "143849.552500", "143851.042500", "143852.532500", "143854.022500", "143855.512500", "143857.002500", "143858.492500", "143859.982500", "143901.472500", "143902.962500", "143904.452500", "143905.942500", "143907.432500", "143908.922500", "143910.412500", "143911.902500", "143913.392500", "143914.882500", "143916.372500", "143917.862500", "143919.352500", "143920.842500", "143922.332500", "143923.822500", "143925.312500", "143926.802500", "143928.292500", "143929.782500", "143931.272500", "143932.762500", "143934.252500", "143935.742500", "143937.232500", "143938.722500", "143940.212500", "143941.702500", "143943.192500", "143944.682500", "143946.172500", "143947.662500", "143949.152500", "143950.642500", "143952.132500", "143953.622500", "143955.112500", "143956.602500", "143958.092500", "143959.582500", "144001.072500", "144002.562500", "144004.052500", "144005.542500", "144007.032500", "144008.522500", "144010.012500", "144011.502500", "144012.992500", "144014.482500", "144015.972500", "144017.462500", "144018.952500", "144020.442500", "144021.932500", "144023.422500", "144024.912500", "144026.402500", "144027.892500", "144029.382500", "144030.872500", "144032.362500", "144033.852500", "144035.342500", "144036.832500", "144038.322500", "144039.812500", "144041.302500", "144042.792500", "144044.282500", "144045.772500", "144047.262500", "144048.752500", "144050.242500", "144051.732500", "144053.222500", "144054.712500", "144056.202500", "144057.692500", "144059.182500", "144100.672500", "144102.162500", "144103.652500", "144105.142500", "144106.632500", "144108.122500", "144109.612500", "144111.102500", "144112.592500", "144114.082500", "144115.572500", "144117.062500", "144118.552500", "144120.042500"],
      "ContentTime": ["143905.205000", "143905.210000", "143905.213000", "143905.216000", "143905.219000", "143905.222000", "143905.225000", "143905.228000", "143905.231000", "143905.234000", "143905.246000", "143905.249000", "143905.258000", "143905.261000", "143905.264000", "143905.267000", "143905.270000", "143905.273000", "143905.276000", "143905.279000", "143905.282000", "143905.285000", "143905.288000", "143905.291000", "143925.165000", "143925.168000", "143925.171000", "143925.174000", "143925.177000", "143925.180000", "143925.183000", "143925.186000", "143925.189000", "143925.192000", "143925.195000", "143925.198000", "143925.201000", "143925.204000", "143925.208000", "143925.211000", "143925.214000", "143925.217000", "143925.220000", "143925.223000", "143945.165000", "143945.168000", "143945.171000", "143945.174000", "143945.177000", "143945.180000", "143945.183000", "143945.186000", "143945.190000", "143945.193000", "143945.195000", "143945.198000", "143945.202000", "143945.205000", "143945.207000", "143945.219000", "143945.222000", "143945.225000", "143945.228000", "143945.231000", "144005.165000", "144005.168000", "144005.178000", "144005.181000", "144005.185000", "144005.188000", "144005.191000", "144005.194000", "144005.197000", "144005.200000", "144005.203000", "144005.206000", "144005.209000", "144005.212000", "144005.215000", "144005.218000", "144005.221000", "144005.224000", "144005.227000", "144005.230000", "144025.165000", "144025.168000", "144025.171000", "144025.174000", "144025.177000", "144025.180000", "144025.183000", "144025.186000", "144025.190000", "144025.193000", "144025.196000", "144025.199000", "144025.202000", "144025.205000", "144025.208000", "144025.211000", "144025.214000", "144025.217000", "144025.220000", "144025.223000", "144105.166000", "144105.245000", "144105.248000", "144105.251000", "144105.254000", "144105.257000", "144105.260000", "144105.263000", "144105.266000", "144105.269000", "144105.272000", "144105.275000", "144105.278000", "144105.281000", "144105.284000", "144105.287000", "144105.291000", "144105.294000", "144105.297000", "144105.299000", "144105.303000", "144105.306000", "144105.308000", "144105.311000", "144105.315000", "144105.318000", "144105.321000", "144105.324000", "144122.339000", "144122.342000", "144122.345000", "144122.348000", "144122.359000", "144122.363000", "144122.366000", "144122.369000", "144122.372000", "144122.375000", "144122.379000", "144122.382000"],
      "InstanceCreationTime": ["143905.205000", "143905.210000", "143905.213000", "143905.216000", "143905.219000", "143905.222000", "143905.225000", "143905.228000", "143905.231000", "143905.234000", "143905.246000", "143905.249000", "143905.258000", "143905.261000", "143905.264000", "143905.267000", "143905.270000", "143905.273000", "143905.276000", "143905.279000", "143905.282000", "143905.285000", "143905.288000", "143905.291000", "143925.165000", "143925.168000", "143925.171000", "143925.174000", "143925.177000", "143925.180000", "143925.183000", "143925.186000", "143925.189000", "143925.192000", "143925.195000", "143925.198000", "143925.201000", "143925.204000", "143925.208000", "143925.211000", "143925.214000", "143925.217000", "143925.220000", "143925.223000", "143945.165000", "143945.168000", "143945.171000", "143945.174000", "143945.177000", "143945.180000", "143945.183000", "143945.186000", "143945.190000", "143945.193000", "143945.195000", "143945.198000", "143945.202000", "143945.205000", "143945.207000", "143945.219000", "143945.222000", "143945.225000", "143945.228000", "143945.231000", "144005.165000", "144005.168000", "144005.178000", "144005.181000", "144005.185000", "144005.188000", "144005.191000", "144005.194000", "144005.197000", "144005.200000", "144005.203000", "144005.206000", "144005.209000", "144005.212000", "144005.215000", "144005.218000", "144005.221000", "144005.224000", "144005.227000", "144005.230000", "144025.165000", "144025.168000", "144025.171000", "144025.174000", "144025.177000", "144025.180000", "144025.183000", "144025.186000", "144025.190000", "144025.193000", "144025.196000", "144025.199000", "144025.202000", "144025.205000", "144025.208000", "144025.211000", "144025.214000", "144025.217000", "144025.220000", "144025.223000", "144105.166000", "144105.245000", "144105.248000", "144105.251000", "144105.254000", "144105.257000", "144105.260000", "144105.263000", "144105.266000", "144105.269000", "144105.272000", "144105.275000", "144105.278000", "144105.281000", "144105.284000", "144105.287000", "144105.291000", "144105.294000", "144105.297000", "144105.299000", "144105.303000", "144105.306000", "144105.308000", "144105.311000", "144105.315000", "144105.318000", "144105.321000", "144105.324000", "144122.339000", "144122.342000", "144122.345000", "144122.348000", "144122.359000", "144122.363000", "144122.366000", "144122.369000", "144122.372000", "144122.375000", "144122.379000", "144122.382000"],
      "InstanceNumber": [1, 2, 3, 4, 5, 6, 7, 8, 9, 10, 11, 12, 13, 14, 15, 16, 17, 18, 19, 20, 21, 22, 23, 24, 25, 26, 27, 28, 29, 30, 31, 32, 33, 34, 35, 36, 37, 38, 39, 40, 41, 42, 43, 44, 45, 46, 47, 48, 49, 50, 51, 52, 53, 54, 55, 56, 57, 58, 59, 60, 61, 62, 63, 64, 65, 66, 67, 68, 69, 70, 71, 72, 73, 74, 75, 76, 77, 78, 79, 80, 81, 82, 83, 84, 85, 86, 87, 88, 89, 90, 91, 92, 93, 94, 95, 96, 97, 98, 99, 100, 101, 102, 103, 104, 105, 106, 107, 108, 109, 110, 111, 112, 113, 114, 115, 116, 117, 118, 119, 120, 121, 122, 123, 124, 125, 126, 127, 128, 129, 130, 131, 132, 133, 134, 135, 136, 137, 138, 139, 140, 141, 142, 143, 144],
      "LargestImagePixelValue": [44124, 43858, 43839, 42471, 42605, 42036, 42292, 42272, 42576, 42743, 42258, 42359, 42274, 42064, 42140, 41192, 40353, 41080, 41108, 40529, 41593, 41357, 41848, 42414, 42548, 43163, 42023, 42132, 41856, 40472, 41590, 41718, 42791, 41728, 40620, 41360, 42301, 42158, 41579, 42119, 41995, 41834, 41980, 42487, 41823, 42207, 42114, 42040, 42706, 42087, 42515, 41709, 41328, 41716, 41866, 41751, 41380, 41104, 41170, 41319, 41496, 41420, 41955, 42093, 41834, 41427, 42213, 42621, 42948, 42571, 42900, 42870, 43304, 43005, 42724, 42600, 42203, 42215, 42706, 42590, 42124, 42489, 42678, 43055, 42908, 42627, 42427, 42560, 42373, 42432, 42090, 41689, 41741, 42115, 41925, 42365, 42281, 41682, 42398, 42391, 41846, 41785, 41887, 42346, 43478, 43421, 42861, 42961, 42814, 42267, 42498, 42570, 42371, 42173, 42688, 41684, 40862, 41266, 42260, 43107, 42948, 42482, 42469, 41968, 41632, 41505, 39224, 42006, 39414, 39534, 40221, 41009, 41207, 40604, 40281, 40844, 39583, 40266, 41043, 41752, 41139, 42825, 42417, 41494],
      "WindowCenter": [9973.0, 9930.0, 9900.0, 9860.0, 9845.0, 9829.0, 9842.0, 9831.0, 9834.0, 9859.0, 9871.0, 9892.0, 9918.0, 9903.0, 9878.0, 9827.0, 9778.0, 9768.0, 9768.0, 9761.0, 9783.0, 9792.0, 9817.0, 9824.0, 9818.0, 9814.0, 9791.0, 9803.0, 9826.0, 9827.0, 9844.0, 9838.0, 9837.0, 9803.0, 9790.0, 9767.0, 9783.0, 9757.0, 9736.0, 9728.0, 9722.0, 9757.0, 9778.0, 9782.0, 9798.0, 9804.0, 9800.0, 9803.0, 9817.0, 9808.0, 9806.0, 9808.0, 9824.0, 9849.0, 9888.0, 9883.0, 9850.0, 9821.0, 9791.0, 9780.0, 9784.0, 9786.0, 9808.0, 9848.0, 9871.0, 9851.0, 9820.0, 9799.0, 9793.0, 9791.0, 9800.0, 9809.0, 9843.0, 9855.0, 9865.0, 9865.0, 9843.0, 9816.0, 9803.0, 9801.0, 9812.0, 9840.0, 9843.0, 9832.0, 9814.0, 9788.0, 9791.0, 9803.0, 9833.0, 9860.0, 9874.0, 9869.0, 9840.0, 9812.0, 9785.0, 9765.0, 9762.0, 9771.0, 9814.0, 9834.0, 9845.0, 9838.0, 9812.0, 9791.0, 9802.0, 9813.0, 9826.0, 9860.0, 9881.0, 9878.0, 9876.0, 9864.0, 9849.0, 9849.0, 9869.0, 9863.0, 9853.0, 9851.0, 9845.0, 9817.0, 9774.0, 9738.0, 9727.0, 9733.0, 9761.0, 9800.0, 9771.0, 9834.0, 9801.0, 9794.0, 9792.0, 9805.0, 9803.0, 9816.0, 9813.0, 9816.0, 9813.0, 9821.0, 9816.0, 9803.0, 9786.0, 9785.0, 9768.0, 9760.0],
      "WindowWidth": [21319.0, 21194.0, 21108.0, 21012.0, 20970.0, 20936.0, 20961.0, 20936.0, 20936.0, 20997.0, 21026.0, 21073.0, 21131.0, 21102.0, 21046.0, 20931.0, 20824.0, 20797.0, 20796.0, 20784.0, 20830.0, 20852.0, 20906.0, 20920.0, 20907.0, 20897.0, 20849.0, 20873.0, 20925.0, 20932.0, 20968.0, 20954.0, 20952.0, 20892.0, 20865.0, 20798.0, 20834.0, 20776.0, 20732.0, 20706.0, 20695.0, 20770.0, 20823.0, 20826.0, 20867.0, 20878.0, 20868.0, 20880.0, 20908.0, 20887.0, 20880.0, 20890.0, 20929.0, 20983.0, 21074.0, 21064.0, 20992.0, 20925.0, 20855.0, 20831.0, 20838.0, 20845.0, 20888.0, 20977.0, 21031.0, 20991.0, 20918.0, 20870.0, 20853.0, 20847.0, 20868.0, 20887.0, 20964.0, 20994.0, 21013.0, 21012.0, 20966.0, 20905.0, 20875.0, 20868.0, 20895.0, 20964.0, 20970.0, 20942.0, 20900.0, 20844.0, 20845.0, 20874.0, 20946.0, 21005.0, 21041.0, 21032.0, 20970.0, 20898.0, 20838.0, 20793.0, 20785.0, 20811.0, 20905.0, 20951.0, 20975.0, 20962.0, 20903.0, 20853.0, 20871.0, 20892.0, 20925.0, 20999.0, 21048.0, 21048.0, 21040.0, 21012.0, 20980.0, 20982.0, 21024.0, 21016.0, 21001.0, 20990.0, 20969.0, 20907.0, 20809.0, 20723.0, 20695.0, 20717.0, 20784.0, 20873.0, 20825.0, 20960.0, 20892.0, 20871.0, 20863.0, 20885.0, 20880.0, 20913.0, 20912.0, 20917.0, 20921.0, 20935.0, 20919.0, 20884.0, 20840.0, 20832.0, 20791.0, 20771.0]
    },
    "slices": {}
  }
}