{
  "AcquisitionMatrixPE": 104,
  "AcquisitionNumber": 1,
  "AcquisitionTime": "14:27:7.252500",
  "BandwidthPerPixelPhaseEncode": 17.17,
  "BaseResolution": 104,
  "BodyPartExamined": "BRAIN",
  "CoilString": "HC1-7;NC1_2",
  "ConsistencyInfo": "N4_VE11C_LATEST_20160120",
  "ConversionSoftware": "dcm2niix",
  "ConversionSoftwareVersion": "v1.0.20190902",
  "DerivedVendorReportedEchoSpacing": 0.000560011,
  "DeviceSerialNumber": "167006",
  "DwellTime": 2.1e-06,
  "EchoTime": 0.037,
  "EchoTrainLength": 104,
  "EffectiveEchoSpacing": 0.000560011,
  "FlipAngle": 52,
  "ImageComments": "Unaliased_MB4_PE3_LB",
  "ImageOrientationPatientDICOM": [0.997518, 0.00451702, -0.0702692, -0.0193275, 0.977176, -0.211552],
  "ImageType": [
    "ORIGINAL",
    "PRIMARY",
    "M",
    "MB",
    "ND",
    "MOSAIC"
],
  "ImagingFrequency": 123.259,
  "InPlanePhaseEncodingDirectionDICOM": "COL",
  "InstitutionAddress": "Chemin_Queen-Mary_4565_Montreal_District_CA_H3W_1W5",
  "InstitutionName": "IUGM",
  "InstitutionalDepartmentName": "Department",
  "MRAcquisitionType": "2D",
  "MagneticFieldStrength": 3,
  "Manufacturer": "Siemens",
  "ManufacturersModelName": "Prisma_fit",
  "Modality": "MR",
  "MultibandAccelerationFactor": 4,
  "PartialFourier": 1,
  "PatientPosition": "HFS",
  "PercentPhaseFOV": 100,
  "PhaseEncodingDirection": "j",
  "PhaseEncodingSteps": 104,
  "PhaseResolution": 1,
  "PixelBandwidth": 2290,
  "ProcedureStepDescription": "hcptrt_generic",
  "ProtocolName": "func_task-wm_run-1",
  "PulseSequenceDetails": "%CustomerSeq%_cmrr_mbep2d_bold",
  "ReceiveCoilActiveElements": "HC1-7;NC1,2",
  "ReceiveCoilName": "HeadNeck_64",
  "ReconMatrixPE": 104,
  "RepetitionTime": 1.49,
  "SAR": 0.0304524,
  "ScanOptions": "FS",
  "ScanningSequence": "EP",
  "SequenceName": "epfid2d1_104",
  "SequenceVariant": "SK_SS",
  "SeriesDescription": "func_task-wm_run-1",
  "SeriesNumber": 13,
  "ShimSetting": [594, -7267, -8853, 590, -62, -358, -10, 62],
  "SliceThickness": 2,
  "SliceTiming": [0, 0.7825, 0.0975, 0.88, 0.195, 0.98, 0.2925, 1.0775, 0.39, 1.175, 0.49, 1.2725, 0.5875, 1.37, 0.685, 0, 0.7825, 0.0975, 0.88, 0.195, 0.98, 0.2925, 1.0775, 0.39, 1.175, 0.49, 1.2725, 0.5875, 1.37, 0.685, 0, 0.7825, 0.0975, 0.88, 0.195, 0.98, 0.2925, 1.0775, 0.39, 1.175, 0.49, 1.2725, 0.5875, 1.37, 0.685, 0, 0.7825, 0.0975, 0.88, 0.195, 0.98, 0.2925, 1.0775, 0.39, 1.175, 0.49, 1.2725, 0.5875, 1.37, 0.685],
  "SoftwareVersions": "syngo_MR_E11",
  "SpacingBetweenSlices": 2,
  "StationName": "MRC35049",
  "TaskName": "wm",
  "TotalReadoutTime": 0.0576811,
  "TxRefAmp": 221.262,
  "WipMemBlock": "f1610254-c96f-4187-ad17-e503e56abc0c||Sequence: R016 ve11c/master r/e634e98; Dec 19 2017 11:00:25 by eja",
  "dcmmeta_affine": [
    [-1.9950356483459473, -0.038655009120702744, -0.13541953265666962, 108.4046859741211],
    [-0.009034045040607452, 1.9543511867523193, -0.4247704744338989, -74.20597076416016],
    [-0.14053840935230255, 0.4231044352054596, 1.9496747255325317, -49.61323165893555],
    [0.0, 0.0, 0.0, 1.0]
],
  "dcmmeta_reorient_transform": [
    [0.0, -1.0, 0.0, 103.0],
    [1.0, 0.0, 0.0, 0.0],
    [0.0, 0.0, 1.0, 0.0],
    [0.0, 0.0, 0.0, 1.0]
],
  "dcmmeta_shape": [104, 104, 60, 202],
  "dcmmeta_slice_dim": 2,
  "dcmmeta_version": 0.6,
  "global": {
    "const": {
      "AcquisitionMatrix": [104, 0, 0, 104],
      "AngioFlag": "N",
      "BitsAllocated": 16,
      "BitsStored": 16,
      "BodyPartExamined": "BRAIN",
      "Columns": 832,
      "EchoNumbers": 1,
      "EchoTime": 37.0,
      "EchoTrainLength": 104,
      "FlipAngle": 52.0,
      "HighBit": 15,
      "ImageOrientationPatient": [0.99751783699564, 0.00451702255303, -0.0702692065047, -0.0193275050859, 0.97717557470719, -0.2115522246228],
      "ImagePositionPatient": [-816.54577789615, -841.7644052424, 199.13252756084],
      "ImageType": [
        "ORIGINAL",
        "PRIMARY",
        "M",
        "MB",
        "ND",
        "MOSAIC"
],
      "ImagedNucleus": "1H",
      "ImagingFrequency": 123.259397,
      "InPlanePhaseEncodingDirection": "COL",
      "MRAcquisitionType": "2D",
      "MagneticFieldStrength": 3.0,
      "Manufacturer": "SIEMENS",
      "ManufacturerModelName": "Prisma_fit",
      "Modality": "MR",
      "NumberOfAverages": 1.0,
      "NumberOfPhaseEncodingSteps": 104,
      "PercentPhaseFieldOfView": 100.0,
      "PercentSampling": 100.0,
      "PerformedProcedureStepStartTime": "141236.510000",
      "PhotometricInterpretation": "MONOCHROME2",
      "PixelBandwidth": 2290.0,
      "PixelRepresentation": 0,
      "PixelSpacing": [2.0, 2.0],
      "ProtocolName": "func_task-wm_run-1",
      "RepetitionTime": 1490.0,
      "Rows": 832,
      "SAR": 0.03045241424966,
      "SamplesPerPixel": 1,
      "ScanOptions": "FS",
      "ScanningSequence": "EP",
      "SequenceName": "epfid2d1_104",
      "SequenceVariant": [
        "SK",
        "SS"
],
      "SeriesDescription": "func_task-wm_run-1",
      "SeriesNumber": 13,
      "SeriesTime": "142840.908000",
      "SliceLocation": -39.944634731289,
      "SliceThickness": 2.0,
      "SmallestImagePixelValue": 0,
      "SoftwareVersions": "syngo MR E11",
      "SpacingBetweenSlices": 1.9999999612374,
      "SpecificCharacterSet": "ISO_IR 100",
      "StudyID": "1",
      "StudyTime": "141236.442000",
      "TransmitCoilName": "Body",
      "VariableFlipAngleFlag": "N",
      "WindowCenterWidthExplanation": "Algo1",
      "dBdt": 0.0},
    "slices": {}
  },
  "time": {
    "samples": {
      "AcquisitionNumber": [1, 2, 3, 4, 5, 6, 7, 8, 9, 10, 11, 12, 13, 14, 15, 16, 17, 18, 19, 20, 21, 22, 23, 24, 25, 26, 27, 28, 29, 30, 31, 32, 33, 34, 35, 36, 37, 38, 39, 40, 41, 42, 43, 44, 45, 46, 47, 48, 49, 50, 51, 52, 53, 54, 55, 56, 57, 58, 59, 60, 61, 62, 63, 64, 65, 66, 67, 68, 69, 70, 71, 72, 73, 74, 75, 76, 77, 78, 79, 80, 81, 82, 83, 84, 85, 86, 87, 88, 89, 90, 91, 92, 93, 94, 95, 96, 97, 98, 99, 100, 101, 102, 103, 104, 105, 106, 107, 108, 109, 110, 111, 112, 113, 114, 115, 116, 117, 118, 119, 120, 121, 122, 123, 124, 125, 126, 127, 128, 129, 130, 131, 132, 133, 134, 135, 136, 137, 138, 139, 140, 141, 142, 143, 144, 145, 146, 147, 148, 149, 150, 151, 152, 153, 154, 155, 156, 157, 158, 159, 160, 161, 162, 163, 164, 165, 166, 167, 168, 169, 170, 171, 172, 173, 174, 175, 176, 177, 178, 179, 180, 181, 182, 183, 184, 185, 186, 187, 188, 189, 190, 191, 192, 193, 194, 195, 196, 197, 198, 199, 200, 201, 202],
      "AcquisitionTime": ["142707.252500", "142708.742500", "142710.232500", "142711.722500", "142713.212500", "142714.702500", "142716.192500", "142717.682500", "142719.172500", "142720.662500", "142722.152500", "142723.642500", "142725.132500", "142726.622500", "142728.112500", "142729.602500", "142731.092500", "142732.582500", "142734.072500", "142735.562500", "142737.052500", "142738.542500", "142740.032500", "142741.522500", "142743.012500", "142744.502500", "142745.992500", "142747.482500", "142748.972500", "142750.462500", "142751.952500", "142753.442500", "142754.932500", "142756.422500", "142757.912500", "142759.402500", "142800.892500", "142802.382500", "142803.872500", "142805.362500", "142806.852500", "142808.342500", "142809.832500", "142811.322500", "142812.812500", "142814.302500", "142815.792500", "142817.282500", "142818.772500", "142820.262500", "142821.752500", "142823.242500", "142824.732500", "142826.222500", "142827.712500", "142829.202500", "142830.692500", "142832.182500", "142833.672500", "142835.162500", "142836.652500", "142838.142500", "142839.632500", "142841.122500", "142842.612500", "142844.102500", "142845.592500", "142847.082500", "142848.572500", "142850.062500", "142851.552500", "142853.042500", "142854.532500", "142856.022500", "142857.512500", "142859.002500", "142900.492500", "142901.982500", "142903.472500", "142904.962500", "142906.452500", "142907.942500", "142909.432500", "142910.922500", "142912.412500", "142913.902500", "142915.392500", "142916.882500", "142918.372500", "142919.862500", "142921.352500", "142922.842500", "142924.332500", "142925.822500", "142927.312500", "142928.802500", "142930.292500", "142931.782500", "142933.272500", "142934.762500", "142936.252500", "142937.742500", "142939.232500", "142940.722500", "142942.212500", "142943.702500", "142945.192500", "142946.682500", "142948.172500", "142949.662500", "142951.152500", "142952.642500", "142954.132500", "142955.622500", "142957.112500", "142958.602500", "143000.092500", "143001.582500", "143003.072500", "143004.562500", "143006.052500", "143007.542500", "143009.032500", "143010.522500", "143012.012500", "143013.502500", "143014.992500", "143016.482500", "143017.972500", "143019.462500", "143020.952500", "143022.442500", "143023.932500", "143025.422500", "143026.912500", "143028.402500", "143029.892500", "143031.382500", "143032.872500", "143034.362500", "143035.852500", "143037.342500", "143038.832500", "143040.322500", "143041.812500", "143043.302500", "143044.792500", "143046.282500", "143047.772500", "143049.262500", "143050.752500", "143052.242500", "143053.732500", "143055.222500", "143056.712500", "143058.202500", "143059.692500", "143101.182500", "143102.672500", "143104.162500", "143105.652500", "143107.142500", "143108.632500", "143110.122500", "143111.612500", "143113.102500", "143114.592500", "143116.082500", "143117.572500", "143119.062500", "143120.552500", "143122.042500", "143123.532500", "143125.022500", "143126.512500", "143128.002500", "143129.492500", "143130.982500", "143132.472500", "143133.962500", "143135.452500", "143136.942500", "143138.432500", "143139.922500", "143141.412500", "143142.902500", "143144.392500", "143145.882500", "143147.372500", "143148.862500", "143150.352500", "143151.842500", "143153.332500", "143154.822500", "143156.312500", "143157.802500", "143159.292500", "143200.782500", "143202.272500", "143203.762500", "143205.252500", "143206.742500"],
      "ContentTime": ["142840.911000", "142840.915000", "142840.921000", "142840.924000", "142840.927000", "142840.930000", "142840.933000", "142840.936000", "142840.939000", "142840.942000", "142840.945000", "142840.948000", "142840.952000", "142840.955000", "142840.958000", "142840.961000", "142840.964000", "142840.967000", "142840.970000", "142840.973000", "142840.976000", "142840.979000", "142840.982000", "142840.985000", "142840.988000", "142840.991000", "142840.994000", "142840.997000", "142841.001000", "142841.004000", "142841.007000", "142841.010000", "142841.013000", "142841.021000", "142841.024000", "142841.027000", "142841.030000", "142841.033000", "142841.036000", "142900.879000", "142900.882000", "142900.885000", "142900.888000", "142900.891000", "142900.894000", "142900.897000", "142900.900000", "142900.903000", "142900.906000", "142900.909000", "142900.912000", "142900.924000", "142900.927000", "142900.930000", "142900.933000", "142900.936000", "142900.939000", "142900.942000", "142900.945000", "142920.879000", "142920.882000", "142920.885000", "142920.888000", "142920.891000", "142920.895000", "142920.897000", "142920.900000", "142920.904000", "142920.907000", "142920.910000", "142920.912000", "142920.916000", "142920.919000", "142920.922000", "142920.924000", "142920.928000", "142920.931000", "142920.934000", "142920.937000", "142940.880000", "142940.883000", "142940.886000", "142940.889000", "142940.892000", "142940.895000", "142940.898000", "142940.901000", "142940.904000", "142940.907000", "142940.910000", "142940.913000", "142940.917000", "142940.919000", "142940.922000", "142940.925000", "142940.929000", "142940.932000", "142940.935000", "142940.937000", "143020.880000", "143020.883000", "143020.886000", "143020.889000", "143020.892000", "143020.895000", "143020.898000", "143020.901000", "143020.905000", "143020.908000", "143020.910000", "143020.914000", "143020.917000", "143020.920000", "143020.923000", "143020.926000", "143020.929000", "143020.932000", "143020.935000", "143020.938000", "143020.941000", "143020.944000", "143020.947000", "143020.950000", "143020.953000", "143020.956000", "143020.959000", "143020.962000", "143020.965000", "143020.968000", "143100.879000", "143100.882000", "143100.885000", "143100.888000", "143100.892000", "143100.895000", "143100.898000", "143100.901000", "143100.904000", "143100.907000", "143100.910000", "143100.913000", "143100.916000", "143100.938000", "143100.941000", "143100.944000", "143100.947000", "143100.950000", "143100.953000", "143100.956000", "143100.959000", "143100.962000", "143100.965000", "143100.968000", "143100.971000", "143100.974000", "143100.977000", "143140.879000", "143140.883000", "143140.886000", "143140.889000", "143140.892000", "143140.895000", "143140.898000", "143140.901000", "143140.904000", "143140.907000", "143140.910000", "143140.913000", "143140.916000", "143140.919000", "143140.922000", "143140.925000", "143140.928000", "143140.931000", "143140.935000", "143140.938000", "143140.941000", "143140.944000", "143140.947000", "143140.952000", "143140.955000", "143140.958000", "143209.306000", "143209.310000", "143209.313000", "143209.316000", "143209.319000", "143209.322000", "143209.325000", "143209.328000", "143209.331000", "143209.334000", "143209.337000", "143209.340000", "143209.343000", "143209.347000", "143209.350000", "143209.353000", "143209.356000", "143209.359000", "143209.362000", "143209.365000"],
      "InstanceCreationTime": ["142840.911000", "142840.915000", "142840.921000", "142840.924000", "142840.927000", "142840.930000", "142840.933000", "142840.936000", "142840.939000", "142840.942000", "142840.945000", "142840.948000", "142840.952000", "142840.955000", "142840.958000", "142840.961000", "142840.964000", "142840.967000", "142840.970000", "142840.973000", "142840.976000", "142840.979000", "142840.982000", "142840.985000", "142840.988000", "142840.991000", "142840.994000", "142840.997000", "142841.001000", "142841.004000", "142841.007000", "142841.010000", "142841.013000", "142841.021000", "142841.024000", "142841.027000", "142841.030000", "142841.033000", "142841.036000", "142900.879000", "142900.882000", "142900.885000", "142900.888000", "142900.891000", "142900.894000", "142900.897000", "142900.900000", "142900.903000", "142900.906000", "142900.909000", "142900.912000", "142900.924000", "142900.927000", "142900.930000", "142900.933000", "142900.936000", "142900.939000", "142900.942000", "142900.945000", "142920.879000", "142920.882000", "142920.885000", "142920.888000", "142920.891000", "142920.895000", "142920.897000", "142920.900000", "142920.904000", "142920.907000", "142920.910000", "142920.912000", "142920.916000", "142920.919000", "142920.922000", "142920.924000", "142920.928000", "142920.931000", "142920.934000", "142920.937000", "142940.880000", "142940.883000", "142940.886000", "142940.889000", "142940.892000", "142940.895000", "142940.898000", "142940.901000", "142940.904000", "142940.907000", "142940.910000", "142940.913000", "142940.917000", "142940.919000", "142940.922000", "142940.925000", "142940.929000", "142940.932000", "142940.935000", "142940.937000", "143020.880000", "143020.883000", "143020.886000", "143020.889000", "143020.892000", "143020.895000", "143020.898000", "143020.901000", "143020.905000", "143020.908000", "143020.910000", "143020.914000", "143020.917000", "143020.920000", "143020.923000", "143020.926000", "143020.929000", "143020.932000", "143020.935000", "143020.938000", "143020.941000", "143020.944000", "143020.947000", "143020.950000", "143020.953000", "143020.956000", "143020.959000", "143020.962000", "143020.965000", "143020.968000", "143100.879000", "143100.882000", "143100.885000", "143100.888000", "143100.892000", "143100.895000", "143100.898000", "143100.901000", "143100.904000", "143100.907000", "143100.910000", "143100.913000", "143100.916000", "143100.938000", "143100.941000", "143100.944000", "143100.947000", "143100.950000", "143100.953000", "143100.956000", "143100.959000", "143100.962000", "143100.965000", "143100.968000", "143100.971000", "143100.974000", "143100.977000", "143140.879000", "143140.883000", "143140.886000", "143140.889000", "143140.892000", "143140.895000", "143140.898000", "143140.901000", "143140.904000", "143140.907000", "143140.910000", "143140.913000", "143140.916000", "143140.919000", "143140.922000", "143140.925000", "143140.928000", "143140.931000", "143140.935000", "143140.938000", "143140.941000", "143140.944000", "143140.947000", "143140.952000", "143140.955000", "143140.958000", "143209.306000", "143209.310000", "143209.313000", "143209.316000", "143209.319000", "143209.322000", "143209.325000", "143209.328000", "143209.331000", "143209.334000", "143209.337000", "143209.340000", "143209.343000", "143209.347000", "143209.350000", "143209.353000", "143209.356000", "143209.359000", "143209.362000", "143209.365000"],
      "InstanceNumber": [1, 2, 3, 4, 5, 6, 7, 8, 9, 10, 11, 12, 13, 14, 15, 16, 17, 18, 19, 20, 21, 22, 23, 24, 25, 26, 27, 28, 29, 30, 31, 32, 33, 34, 35, 36, 37, 38, 39, 40, 41, 42, 43, 44, 45, 46, 47, 48, 49, 50, 51, 52, 53, 54, 55, 56, 57, 58, 59, 60, 61, 62, 63, 64, 65, 66, 67, 68, 69, 70, 71, 72, 73, 74, 75, 76, 77, 78, 79, 80, 81, 82, 83, 84, 85, 86, 87, 88, 89, 90, 91, 92, 93, 94, 95, 96, 97, 98, 99, 100, 101, 102, 103, 104, 105, 106, 107, 108, 109, 110, 111, 112, 113, 114, 115, 116, 117, 118, 119, 120, 121, 122, 123, 124, 125, 126, 127, 128, 129, 130, 131, 132, 133, 134, 135, 136, 137, 138, 139, 140, 141, 142, 143, 144, 145, 146, 147, 148, 149, 150, 151, 152, 153, 154, 155, 156, 157, 158, 159, 160, 161, 162, 163, 164, 165, 166, 167, 168, 169, 170, 171, 172, 173, 174, 175, 176, 177, 178, 179, 180, 181, 182, 183, 184, 185, 186, 187, 188, 189, 190, 191, 192, 193, 194, 195, 196, 197, 198, 199, 200, 201, 202],
      "LargestImagePixelValue": [44580, 43484, 42941, 42365, 42181, 41171, 40937, 41469, 41854, 41085, 41437, 41404, 41216, 41151, 41424, 41192, 41229, 41518, 41877, 41555, 41829, 41317, 41825, 41714, 41804, 41500, 41657, 41840, 41819, 42043, 41776, 42497, 42819, 42593, 41705, 41813, 41690, 41831, 42300, 42320, 42508, 41857, 41387, 40960, 41076, 41147, 41286, 40779, 40673, 40718, 41642, 42445, 41027, 43094, 42242, 42311, 42031, 41790, 42282, 42876, 43152, 43377, 42917, 42660, 42985, 42619, 42860, 42950, 42941, 42841, 42518, 42708, 42881, 42438, 42680, 42996, 42523, 41990, 41308, 42383, 41981, 43194, 42870, 43443, 43013, 43553, 43575, 42742, 41852, 42504, 42744, 42744, 42880, 43210, 42828, 43037, 43156, 43530, 43414, 43678, 44016, 43899, 44294, 43445, 43350, 43313, 42751, 43078, 42067, 42146, 42428, 42251, 42596, 43143, 42443, 42726, 42287, 41258, 42280, 43263, 43427, 44048, 43104, 42726, 42417, 42387, 42384, 43267, 43915, 44143, 44294, 43881, 43881, 43887, 44005, 44059, 43692, 43562, 43584, 43952, 43983, 44154, 43549, 43581, 44098, 43121, 43464, 43227, 43431, 43590, 43328, 43544, 43413, 43487, 43647, 43064, 43531, 43132, 43351, 43188, 43553, 43759, 43242, 43080, 43695, 42949, 42405, 44366, 43498, 42988, 43256, 43415, 43515, 41720, 40958, 41170, 41810, 41187, 41467, 41071, 40904, 41679, 41567, 41848, 42034, 42793, 42555, 41943, 42779, 43433, 43042, 42080, 42764, 43958, 42352, 41852, 43305, 43371, 43667, 43226, 42563, 43192],
      "WindowCenter": [9977.0, 9926.0, 9894.0, 9884.0, 9872.0, 9866.0, 9863.0, 9896.0, 9914.0, 9888.0, 9883.0, 9865.0, 9853.0, 9845.0, 9842.0, 9851.0, 9867.0, 9877.0, 9885.0, 9887.0, 9887.0, 9891.0, 9906.0, 9910.0, 9902.0, 9894.0, 9891.0, 9899.0, 9907.0, 9909.0, 9915.0, 9914.0, 9915.0, 9915.0, 9907.0, 9899.0, 9890.0, 9888.0, 9895.0, 9911.0, 9915.0, 9909.0, 9893.0, 9881.0, 9864.0, 9879.0, 9882.0, 9857.0, 9832.0, 9823.0, 9830.0, 9843.0, 9825.0, 9831.0, 9783.0, 9764.0, 9745.0, 9752.0, 9783.0, 9834.0, 9857.0, 9874.0, 9879.0, 9886.0, 9890.0, 9890.0, 9887.0, 9894.0, 9895.0, 9903.0, 9904.0, 9913.0, 9927.0, 9923.0, 9922.0, 9929.0, 9912.0, 9890.0, 9876.0, 9870.0, 9853.0, 9861.0, 9870.0, 9882.0, 9870.0, 9882.0, 9884.0, 9871.0, 9850.0, 9850.0, 9839.0, 9841.0, 9858.0, 9858.0, 9851.0, 9850.0, 9853.0, 9869.0, 9888.0, 9905.0, 9906.0, 9891.0, 9887.0, 9888.0, 9880.0, 9887.0, 9892.0, 9883.0, 9862.0, 9843.0, 9807.0, 9794.0, 9775.0, 9789.0, 9817.0, 9850.0, 9862.0, 9852.0, 9855.0, 9871.0, 9888.0, 9901.0, 9869.0, 9822.0, 9779.0, 9752.0, 9752.0, 9779.0, 9835.0, 9863.0, 9881.0, 9877.0, 9885.0, 9886.0, 9893.0, 9893.0, 9886.0, 9877.0, 9866.0, 9873.0, 9867.0, 9864.0, 9873.0, 9873.0, 9888.0, 9881.0, 9884.0, 9868.0, 9856.0, 9853.0, 9838.0, 9852.0, 9859.0, 9860.0, 9855.0, 9839.0, 9820.0, 9803.0, 9806.0, 9817.0, 9841.0, 9866.0, 9863.0, 9865.0, 9869.0, 9864.0, 9872.0, 9908.0, 9896.0, 9889.0, 9883.0, 9873.0, 9870.0, 9849.0, 9821.0, 9801.0, 9784.0, 9760.0, 9744.0, 9737.0, 9765.0, 9817.0, 9848.0, 9860.0, 9879.0, 9895.0, 9915.0, 9900.0, 9878.0, 9870.0, 9852.0, 9851.0, 9859.0, 9881.0, 9877.0, 9881.0, 9886.0, 9876.0, 9860.0, 9842.0, 9809.0, 9802.0],
      "WindowWidth": [21344.0, 21199.0, 21109.0, 21076.0, 21044.0, 21033.0, 21024.0, 21093.0, 21131.0, 21079.0, 21064.0, 21024.0, 20997.0, 20978.0, 20972.0, 20992.0, 21027.0, 21049.0, 21065.0, 21073.0, 21072.0, 21084.0, 21113.0, 21123.0, 21104.0, 21088.0, 21079.0, 21098.0, 21115.0, 21121.0, 21134.0, 21128.0, 21133.0, 21132.0, 21115.0, 21096.0, 21078.0, 21073.0, 21088.0, 21122.0, 21133.0, 21121.0, 21087.0, 21061.0, 21023.0, 21055.0, 21064.0, 21009.0, 20954.0, 20936.0, 20950.0, 20974.0, 20935.0, 20941.0, 20835.0, 20792.0, 20750.0, 20768.0, 20836.0, 20949.0, 21002.0, 21039.0, 21055.0, 21071.0, 21079.0, 21080.0, 21071.0, 21084.0, 21088.0, 21108.0, 21112.0, 21130.0, 21161.0, 21158.0, 21153.0, 21165.0, 21128.0, 21078.0, 21048.0, 21028.0, 20996.0, 21006.0, 21031.0, 21054.0, 21031.0, 21056.0, 21062.0, 21034.0, 20991.0, 20982.0, 20955.0, 20960.0, 21002.0, 21004.0, 20990.0, 20984.0, 20989.0, 21023.0, 21068.0, 21108.0, 21107.0, 21073.0, 21060.0, 21067.0, 21048.0, 21064.0, 21081.0, 21056.0, 21016.0, 20972.0, 20889.0, 20857.0, 20818.0, 20841.0, 20909.0, 20983.0, 21016.0, 20997.0, 20993.0, 21031.0, 21070.0, 21102.0, 21033.0, 20920.0, 20822.0, 20765.0, 20767.0, 20824.0, 20947.0, 21010.0, 21051.0, 21045.0, 21061.0, 21062.0, 21075.0, 21075.0, 21064.0, 21044.0, 21018.0, 21032.0, 21020.0, 21010.0, 21030.0, 21034.0, 21064.0, 21048.0, 21058.0, 21025.0, 20992.0, 20984.0, 20953.0, 20983.0, 20995.0, 20995.0, 20988.0, 20954.0, 20908.0, 20870.0, 20873.0, 20904.0, 20958.0, 21011.0, 21010.0, 21013.0, 21024.0, 21015.0, 21034.0, 21107.0, 21086.0, 21073.0, 21057.0, 21032.0, 21027.0, 20992.0, 20937.0, 20886.0, 20838.0, 20789.0, 20752.0, 20741.0, 20801.0, 20918.0, 20986.0, 21012.0, 21060.0, 21093.0, 21141.0, 21107.0, 21051.0, 21025.0, 20982.0, 20997.0, 21001.0, 21049.0, 21047.0, 21059.0, 21066.0, 21039.0, 21002.0, 20963.0, 20891.0, 20868.0]
    },
    "slices": {}
  }
}