{
  "AcquisitionMatrixPE": 104,
  "AcquisitionNumber": 1,
  "AcquisitionTime": "14:22:37.202500",
  "BandwidthPerPixelPhaseEncode": 17.17,
  "BaseResolution": 104,
  "BodyPartExamined": "BRAIN",
  "CoilString": "HC1-7;NC1_2",
  "ConsistencyInfo": "N4_VE11C_LATEST_20160120",
  "ConversionSoftware": "dcm2niix",
  "ConversionSoftwareVersion": "v1.0.20190902",
  "DerivedVendorReportedEchoSpacing": 0.000560011,
  "DeviceSerialNumber": "167006",
  "DwellTime": 2.1e-06,
  "EchoTime": 0.037,
  "EchoTrainLength": 104,
  "EffectiveEchoSpacing": 0.000560011,
  "FlipAngle": 52,
  "ImageComments": "Unaliased_MB4_PE3_LB",
  "ImageOrientationPatientDICOM": [0.997518, 0.00451702, -0.0702692, -0.0193275, 0.977176, -0.211552],
  "ImageType": [
    "ORIGINAL",
    "PRIMARY",
    "M",
    "MB",
    "ND",
    "MOSAIC"
],
  "ImagingFrequency": 123.259,
  "InPlanePhaseEncodingDirectionDICOM": "COL",
  "InstitutionAddress": "Chemin_Queen-Mary_4565_Montreal_District_CA_H3W_1W5",
  "InstitutionName": "IUGM",
  "InstitutionalDepartmentName": "Department",
  "MRAcquisitionType": "2D",
  "MagneticFieldStrength": 3,
  "Manufacturer": "Siemens",
  "ManufacturersModelName": "Prisma_fit",
  "Modality": "MR",
  "MultibandAccelerationFactor": 4,
  "PartialFourier": 1,
  "PatientPosition": "HFS",
  "PercentPhaseFOV": 100,
  "PhaseEncodingDirection": "j",
  "PhaseEncodingSteps": 104,
  "PhaseResolution": 1,
  "PixelBandwidth": 2290,
  "ProcedureStepDescription": "hcptrt_generic",
  "ProtocolName": "func_task-social_run-1",
  "PulseSequenceDetails": "%CustomerSeq%_cmrr_mbep2d_bold",
  "ReceiveCoilActiveElements": "HC1-7;NC1,2",
  "ReceiveCoilName": "HeadNeck_64",
  "ReconMatrixPE": 104,
  "RepetitionTime": 1.49,
  "SAR": 0.0303238,
  "ScanOptions": "FS",
  "ScanningSequence": "EP",
  "SequenceName": "epfid2d1_104",
  "SequenceVariant": "SK_SS",
  "SeriesDescription": "func_task-social_run-1",
  "SeriesNumber": 11,
  "ShimSetting": [594, -7267, -8853, 590, -62, -358, -10, 62],
  "SliceThickness": 2,
  "SliceTiming": [0, 0.785, 0.1, 0.8825, 0.1975, 0.98, 0.295, 1.08, 0.3925, 1.1775, 0.49, 1.275, 0.59, 1.3725, 0.6875, 0, 0.785, 0.1, 0.8825, 0.1975, 0.98, 0.295, 1.08, 0.3925, 1.1775, 0.49, 1.275, 0.59, 1.3725, 0.6875, 0, 0.785, 0.1, 0.8825, 0.1975, 0.98, 0.295, 1.08, 0.3925, 1.1775, 0.49, 1.275, 0.59, 1.3725, 0.6875, 0, 0.785, 0.1, 0.8825, 0.1975, 0.98, 0.295, 1.08, 0.3925, 1.1775, 0.49, 1.275, 0.59, 1.3725, 0.6875],
  "SoftwareVersions": "syngo_MR_E11",
  "SpacingBetweenSlices": 2,
  "StationName": "MRC35049",
  "TaskName": "social",
  "TotalReadoutTime": 0.0576811,
  "TxRefAmp": 221.262,
  "WipMemBlock": "6f1202c9-b747-42d3-b730-c4c63c825450||Sequence: R016 ve11c/master r/e634e98; Dec 19 2017 11:00:25 by eja",
  "dcmmeta_affine": [
    [-1.9950356483459473, -0.038655009120702744, -0.13541953265666962, 108.4046859741211],
    [-0.009034045040607452, 1.9543511867523193, -0.4247704744338989, -74.20597076416016],
    [-0.14053840935230255, 0.4231044352054596, 1.9496747255325317, -49.61323165893555],
    [0.0, 0.0, 0.0, 1.0]
],
  "dcmmeta_reorient_transform": [
    [0.0, -1.0, 0.0, 103.0],
    [1.0, 0.0, 0.0, 0.0],
    [0.0, 0.0, 1.0, 0.0],
    [0.0, 0.0, 0.0, 1.0]
],
  "dcmmeta_shape": [104, 104, 60, 139],
  "dcmmeta_slice_dim": 2,
  "dcmmeta_version": 0.6,
  "global": {
    "const": {
      "AcquisitionMatrix": [104, 0, 0, 104],
      "AngioFlag": "N",
      "BitsAllocated": 16,
      "BitsStored": 16,
      "BodyPartExamined": "BRAIN",
      "Columns": 832,
      "EchoNumbers": 1,
      "EchoTime": 37.0,
      "EchoTrainLength": 104,
      "FlipAngle": 52.0,
      "HighBit": 15,
      "ImageOrientationPatient": [0.99751783699564, 0.00451702255303, -0.0702692065047, -0.0193275050859, 0.97717557470719, -0.2115522246228],
      "ImagePositionPatient": [-816.54577789615, -841.7644052424, 199.13252756084],
      "ImageType": [
        "ORIGINAL",
        "PRIMARY",
        "M",
        "MB",
        "ND",
        "MOSAIC"
],
      "ImagedNucleus": "1H",
      "ImagingFrequency": 123.259393,
      "InPlanePhaseEncodingDirection": "COL",
      "MRAcquisitionType": "2D",
      "MagneticFieldStrength": 3.0,
      "Manufacturer": "SIEMENS",
      "ManufacturerModelName": "Prisma_fit",
      "Modality": "MR",
      "NumberOfAverages": 1.0,
      "NumberOfPhaseEncodingSteps": 104,
      "PercentPhaseFieldOfView": 100.0,
      "PercentSampling": 100.0,
      "PerformedProcedureStepStartTime": "141236.510000",
      "PhotometricInterpretation": "MONOCHROME2",
      "PixelBandwidth": 2290.0,
      "PixelRepresentation": 0,
      "PixelSpacing": [2.0, 2.0],
      "ProtocolName": "func_task-social_run-1",
      "RepetitionTime": 1490.0,
      "Rows": 832,
      "SAR": 0.03032377534231,
      "SamplesPerPixel": 1,
      "ScanOptions": "FS",
      "ScanningSequence": "EP",
      "SequenceName": "epfid2d1_104",
      "SequenceVariant": [
        "SK",
        "SS"
],
      "SeriesDescription": "func_task-social_run-1",
      "SeriesNumber": 11,
      "SeriesTime": "142405.244000",
      "SliceLocation": -39.944634731289,
      "SliceThickness": 2.0,
      "SmallestImagePixelValue": 0,
      "SoftwareVersions": "syngo MR E11",
      "SpacingBetweenSlices": 1.9999999612374,
      "SpecificCharacterSet": "ISO_IR 100",
      "StudyID": "1",
      "StudyTime": "141236.442000",
      "TransmitCoilName": "Body",
      "VariableFlipAngleFlag": "N",
      "WindowCenterWidthExplanation": "Algo1",
      "dBdt": 0.0},
    "slices": {}
  },
  "time": {
    "samples": {
      "AcquisitionNumber": [1, 2, 3, 4, 5, 6, 7, 8, 9, 10, 11, 12, 13, 14, 15, 16, 17, 18, 19, 20, 21, 22, 23, 24, 25, 26, 27, 28, 29, 30, 31, 32, 33, 34, 35, 36, 37, 38, 39, 40, 41, 42, 43, 44, 45, 46, 47, 48, 49, 50, 51, 52, 53, 54, 55, 56, 57, 58, 59, 60, 61, 62, 63, 64, 65, 66, 67, 68, 69, 70, 71, 72, 73, 74, 75, 76, 77, 78, 79, 80, 81, 82, 83, 84, 85, 86, 87, 88, 89, 90, 91, 92, 93, 94, 95, 96, 97, 98, 99, 100, 101, 102, 103, 104, 105, 106, 107, 108, 109, 110, 111, 112, 113, 114, 115, 116, 117, 118, 119, 120, 121, 122, 123, 124, 125, 126, 127, 128, 129, 130, 131, 132, 133, 134, 135, 136, 137, 138, 139],
      "AcquisitionTime": ["142237.202500", "142238.692500", "142240.182500", "142241.672500", "142243.162500", "142244.652500", "142246.142500", "142247.632500", "142249.122500", "142250.612500", "142252.102500", "142253.592500", "142255.082500", "142256.572500", "142258.062500", "142259.552500", "142301.042500", "142302.532500", "142304.022500", "142305.512500", "142307.002500", "142308.492500", "142309.982500", "142311.472500", "142312.962500", "142314.452500", "142315.942500", "142317.432500", "142318.922500", "142320.412500", "142321.902500", "142323.392500", "142324.882500", "142326.372500", "142327.862500", "142329.352500", "142330.842500", "142332.332500", "142333.822500", "142335.312500", "142336.802500", "142338.292500", "142339.782500", "142341.272500", "142342.762500", "142344.252500", "142345.742500", "142347.232500", "142348.722500", "142350.212500", "142351.702500", "142353.192500", "142354.682500", "142356.172500", "142357.662500", "142359.152500", "142400.642500", "142402.132500", "142403.622500", "142405.112500", "142406.602500", "142408.092500", "142409.582500", "142411.072500", "142412.562500", "142414.052500", "142415.542500", "142417.032500", "142418.522500", "142420.012500", "142421.502500", "142422.992500", "142424.482500", "142425.972500", "142427.462500", "142428.952500", "142430.442500", "142431.932500", "142433.422500", "142434.912500", "142436.402500", "142437.892500", "142439.382500", "142440.872500", "142442.362500", "142443.852500", "142445.342500", "142446.832500", "142448.322500", "142449.812500", "142451.302500", "142452.792500", "142454.282500", "142455.772500", "142457.262500", "142458.752500", "142500.242500", "142501.732500", "142503.222500", "142504.712500", "142506.202500", "142507.692500", "142509.182500", "142510.672500", "142512.162500", "142513.652500", "142515.142500", "142516.632500", "142518.122500", "142519.612500", "142521.102500", "142522.592500", "142524.082500", "142525.572500", "142527.062500", "142528.552500", "142530.042500", "142531.532500", "142533.022500", "142534.512500", "142536.002500", "142537.492500", "142538.982500", "142540.472500", "142541.962500", "142543.452500", "142544.942500", "142546.432500", "142547.922500", "142549.412500", "142550.902500", "142552.392500", "142553.882500", "142555.372500", "142556.862500", "142558.352500", "142559.842500", "142601.332500", "142602.822500"],
      "ContentTime": ["142405.247000", "142405.253000", "142405.256000", "142405.259000", "142405.262000", "142405.265000", "142405.268000", "142405.271000", "142405.274000", "142405.277000", "142405.280000", "142405.283000", "142405.286000", "142405.289000", "142405.292000", "142405.295000", "142405.298000", "142405.301000", "142405.304000", "142405.307000", "142405.310000", "142405.318000", "142405.321000", "142405.324000", "142405.327000", "142405.330000", "142405.334000", "142405.337000", "142405.340000", "142405.343000", "142405.371000", "142405.374000", "142405.377000", "142405.380000", "142425.166000", "142425.169000", "142425.172000", "142425.175000", "142425.179000", "142425.182000", "142425.185000", "142425.188000", "142425.192000", "142425.195000", "142425.198000", "142425.202000", "142425.205000", "142425.208000", "142425.211000", "142425.214000", "142425.217000", "142425.220000", "142425.223000", "142425.226000", "142445.166000", "142445.169000", "142445.172000", "142445.175000", "142445.178000", "142445.181000", "142445.184000", "142445.187000", "142445.190000", "142445.194000", "142445.197000", "142445.200000", "142445.203000", "142445.206000", "142445.209000", "142445.212000", "142445.216000", "142445.219000", "142445.222000", "142445.225000", "142445.228000", "142505.166000", "142505.169000", "142505.172000", "142505.175000", "142505.178000", "142505.181000", "142505.184000", "142505.187000", "142505.190000", "142505.193000", "142505.196000", "142505.200000", "142505.203000", "142505.206000", "142505.209000", "142505.223000", "142505.226000", "142505.229000", "142505.232000", "142505.235000", "142545.165000", "142545.168000", "142545.171000", "142545.174000", "142545.177000", "142545.180000", "142545.183000", "142545.186000", "142545.189000", "142545.192000", "142545.195000", "142545.199000", "142545.202000", "142545.205000", "142545.208000", "142545.211000", "142545.214000", "142545.225000", "142545.228000", "142545.231000", "142545.235000", "142545.238000", "142545.241000", "142545.244000", "142545.247000", "142545.250000", "142545.253000", "142545.256000", "142545.259000", "142545.262000", "142605.142000", "142605.146000", "142605.149000", "142605.152000", "142605.155000", "142605.158000", "142605.245000", "142605.248000", "142605.251000", "142605.255000", "142605.258000", "142605.261000", "142605.264000", "142605.267000"],
      "InstanceCreationTime": ["142405.247000", "142405.253000", "142405.256000", "142405.259000", "142405.262000", "142405.265000", "142405.268000", "142405.271000", "142405.274000", "142405.277000", "142405.280000", "142405.283000", "142405.286000", "142405.289000", "142405.292000", "142405.295000", "142405.298000", "142405.301000", "142405.304000", "142405.307000", "142405.310000", "142405.318000", "142405.321000", "142405.324000", "142405.327000", "142405.330000", "142405.334000", "142405.337000", "142405.340000", "142405.343000", "142405.371000", "142405.374000", "142405.377000", "142405.380000", "142425.166000", "142425.169000", "142425.172000", "142425.175000", "142425.179000", "142425.182000", "142425.185000", "142425.188000", "142425.192000", "142425.195000", "142425.198000", "142425.202000", "142425.205000", "142425.208000", "142425.211000", "142425.214000", "142425.217000", "142425.220000", "142425.223000", "142425.226000", "142445.166000", "142445.169000", "142445.172000", "142445.175000", "142445.178000", "142445.181000", "142445.184000", "142445.187000", "142445.190000", "142445.194000", "142445.197000", "142445.200000", "142445.203000", "142445.206000", "142445.209000", "142445.212000", "142445.216000", "142445.219000", "142445.222000", "142445.225000", "142445.228000", "142505.166000", "142505.169000", "142505.172000", "142505.175000", "142505.178000", "142505.181000", "142505.184000", "142505.187000", "142505.190000", "142505.193000", "142505.196000", "142505.200000", "142505.203000", "142505.206000", "142505.209000", "142505.223000", "142505.226000", "142505.229000", "142505.232000", "142505.235000", "142545.165000", "142545.168000", "142545.171000", "142545.174000", "142545.177000", "142545.180000", "142545.183000", "142545.186000", "142545.189000", "142545.192000", "142545.195000", "142545.199000", "142545.202000", "142545.205000", "142545.208000", "142545.211000", "142545.214000", "142545.225000", "142545.228000", "142545.231000", "142545.235000", "142545.238000", "142545.241000", "142545.244000", "142545.247000", "142545.250000", "142545.253000", "142545.256000", "142545.259000", "142545.262000", "142605.142000", "142605.146000", "142605.149000", "142605.152000", "142605.155000", "142605.158000", "142605.245000", "142605.248000", "142605.251000", "142605.255000", "142605.258000", "142605.261000", "142605.264000", "142605.267000"],
      "InstanceNumber": [1, 2, 3, 4, 5, 6, 7, 8, 9, 10, 11, 12, 13, 14, 15, 16, 17, 18, 19, 20, 21, 22, 23, 24, 25, 26, 27, 28, 29, 30, 31, 32, 33, 34, 35, 36, 37, 38, 39, 40, 41, 42, 43, 44, 45, 46, 47, 48, 49, 50, 51, 52, 53, 54, 55, 56, 57, 58, 59, 60, 61, 62, 63, 64, 65, 66, 67, 68, 69, 70, 71, 72, 73, 74, 75, 76, 77, 78, 79, 80, 81, 82, 83, 84, 85, 86, 87, 88, 89, 90, 91, 92, 93, 94, 95, 96, 97, 98, 99, 100, 101, 102, 103, 104, 105, 106, 107, 108, 109, 110, 111, 112, 113, 114, 115, 116, 117, 118, 119, 120, 121, 122, 123, 124, 125, 126, 127, 128, 129, 130, 131, 132, 133, 134, 135, 136, 137, 138, 139],
      "LargestImagePixelValue": [43978, 42629, 42323, 41988, 41759, 41806, 41752, 41795, 41057, 41608, 41521, 41240, 41325, 41685, 42501, 41930, 42229, 41948, 42224, 42160, 41602, 42561, 42120, 42320, 42722, 42081, 41944, 42092, 42381, 42295, 42248, 42285, 41910, 42653, 42857, 43043, 43551, 42992, 43167, 42009, 42524, 42241, 42828, 42623, 43085, 43416, 43252, 42994, 42494, 42442, 41879, 42366, 43170, 42821, 42693, 43163, 42977, 43416, 42432, 42901, 42699, 42925, 41143, 41382, 41549, 42527, 43295, 43047, 42682, 41846, 41524, 41746, 41126, 41745, 41873, 42148, 42388, 42470, 42265, 42436, 42083, 41738, 41629, 41290, 41421, 41257, 41646, 42648, 41839, 42357, 41518, 41800, 41268, 41677, 41914, 41282, 41269, 41381, 42183, 41218, 41571, 41616, 41506, 41081, 41528, 41484, 41216, 41502, 41428, 41473, 41251, 40824, 40881, 41679, 41286, 41447, 41581, 42012, 41303, 40949, 40614, 40858, 40216, 40568, 41468, 41518, 41451, 41208, 40731, 42126, 41509, 40886, 41667, 40553, 40985, 42036, 41711, 41014, 41175],
      "WindowCenter": [10003.0, 9958.0, 9937.0, 9925.0, 9924.0, 9923.0, 9917.0, 9925.0, 9933.0, 9940.0, 9939.0, 9934.0, 9933.0, 9938.0, 9950.0, 9941.0, 9945.0, 9938.0, 9937.0, 9937.0, 9929.0, 9943.0, 9937.0, 9937.0, 9940.0, 9926.0, 9911.0, 9908.0, 9916.0, 9924.0, 9938.0, 9941.0, 9934.0, 9934.0, 9932.0, 9939.0, 9953.0, 9957.0, 9964.0, 9950.0, 9949.0, 9927.0, 9922.0, 9913.0, 9911.0, 9918.0, 9917.0, 9910.0, 9909.0, 9910.0, 9900.0, 9905.0, 9910.0, 9904.0, 9906.0, 9924.0, 9921.0, 9935.0, 9931.0, 9936.0, 9938.0, 9938.0, 9935.0, 9930.0, 9918.0, 9917.0, 9905.0, 9876.0, 9851.0, 9843.0, 9854.0, 9882.0, 9900.0, 9910.0, 9909.0, 9909.0, 9902.0, 9914.0, 9909.0, 9925.0, 9933.0, 9938.0, 9946.0, 9938.0, 9931.0, 9922.0, 9914.0, 9921.0, 9915.0, 9925.0, 9920.0, 9918.0, 9910.0, 9908.0, 9907.0, 9902.0, 9910.0, 9909.0, 9921.0, 9910.0, 9908.0, 9914.0, 9910.0, 9911.0, 9923.0, 9907.0, 9902.0, 9893.0, 9885.0, 9901.0, 9892.0, 9881.0, 9857.0, 9852.0, 9844.0, 9851.0, 9844.0, 9843.0, 9846.0, 9845.0, 9853.0, 9878.0, 9891.0, 9899.0, 9906.0, 9898.0, 9900.0, 9889.0, 9880.0, 9889.0, 9892.0, 9878.0, 9874.0, 9851.0, 9860.0, 9894.0, 9932.0, 9945.0, 9958.0],
      "WindowWidth": [21403.0, 21275.0, 21210.0, 21174.0, 21165.0, 21162.0, 21147.0, 21165.0, 21182.0, 21193.0, 21192.0, 21182.0, 21180.0, 21190.0, 21213.0, 21196.0, 21200.0, 21188.0, 21183.0, 21183.0, 21169.0, 21196.0, 21186.0, 21184.0, 21186.0, 21156.0, 21125.0, 21120.0, 21136.0, 21157.0, 21183.0, 21193.0, 21176.0, 21177.0, 21172.0, 21183.0, 21215.0, 21226.0, 21241.0, 21213.0, 21209.0, 21163.0, 21148.0, 21128.0, 21123.0, 21137.0, 21133.0, 21118.0, 21118.0, 21119.0, 21105.0, 21111.0, 21118.0, 21110.0, 21116.0, 21149.0, 21148.0, 21173.0, 21169.0, 21178.0, 21181.0, 21184.0, 21182.0, 21172.0, 21142.0, 21137.0, 21107.0, 21042.0, 20986.0, 20970.0, 20995.0, 21060.0, 21101.0, 21124.0, 21118.0, 21119.0, 21104.0, 21127.0, 21120.0, 21153.0, 21174.0, 21189.0, 21205.0, 21190.0, 21172.0, 21154.0, 21135.0, 21145.0, 21135.0, 21158.0, 21148.0, 21142.0, 21126.0, 21118.0, 21116.0, 21107.0, 21126.0, 21121.0, 21144.0, 21124.0, 21118.0, 21131.0, 21125.0, 21132.0, 21154.0, 21118.0, 21109.0, 21087.0, 21070.0, 21105.0, 21088.0, 21060.0, 21007.0, 20992.0, 20975.0, 20990.0, 20972.0, 20968.0, 20976.0, 20976.0, 20995.0, 21052.0, 21085.0, 21099.0, 21111.0, 21092.0, 21098.0, 21079.0, 21062.0, 21075.0, 21083.0, 21053.0, 21042.0, 20994.0, 21011.0, 21082.0, 21177.0, 21212.0, 21237.0]
    },
    "slices": {}
  }
}