{
  "AcquisitionMatrixPE": 104,
  "AcquisitionNumber": 1,
  "AcquisitionTime": "15:08:15.477500",
  "BandwidthPerPixelPhaseEncode": 17.17,
  "BaseResolution": 104,
  "BodyPartExamined": "BRAIN",
  "CoilString": "HC1-7;NC1_2",
  "ConsistencyInfo": "N4_VE11C_LATEST_20160120",
  "ConversionSoftware": "dcm2niix",
  "ConversionSoftwareVersion": "v1.0.20200427",
  "DerivedVendorReportedEchoSpacing": 0.000560011,
  "DeviceSerialNumber": "167006",
  "DwellTime": 2.1e-06,
  "EchoTime": 0.037,
  "EchoTrainLength": 104,
  "EffectiveEchoSpacing": 0.000560011,
  "FlipAngle": 52,
  "ImageComments": "Unaliased_MB4_PE3_LB",
  "ImageOrientationPatientDICOM": [0.999555, -0.0279989, 0.0103213, 0.0298407, 0.937447, -0.346848],
  "ImageType": [
    "ORIGINAL",
    "PRIMARY",
    "M",
    "MB",
    "ND",
    "MOSAIC"
],
  "ImagingFrequency": 123.259,
  "InPlanePhaseEncodingDirectionDICOM": "COL",
  "InstitutionAddress": "Chemin_Queen-Mary_4565_Montreal_District_CA_H3W_1W5",
  "InstitutionName": "IUGM",
  "InstitutionalDepartmentName": "Department",
  "MRAcquisitionType": "2D",
  "MagneticFieldStrength": 3,
  "Manufacturer": "Siemens",
  "ManufacturersModelName": "Prisma_fit",
  "Modality": "MR",
  "MultibandAccelerationFactor": 4,
  "PartialFourier": 1,
  "PatientPosition": "HFS",
  "PercentPhaseFOV": 100,
  "PercentSampling": 100,
  "PhaseEncodingDirection": "j",
  "PhaseEncodingSteps": 104,
  "PhaseResolution": 1,
  "PixelBandwidth": 2290,
  "ProcedureStepDescription": "hcptrt_generic",
  "ProtocolName": "func_task-language_run-1",
  "PulseSequenceDetails": "%CustomerSeq%_cmrr_mbep2d_bold",
  "ReceiveCoilActiveElements": "HC1-7;NC1,2",
  "ReceiveCoilName": "HeadNeck_64",
  "ReconMatrixPE": 104,
  "RepetitionTime": 1.49,
  "SAR": 0.0291936,
  "ScanOptions": "FS",
  "ScanningSequence": "EP",
  "SequenceName": "epfid2d1_104",
  "SequenceVariant": "SK_SS",
  "SeriesDescription": "func_task-language_run-1",
  "SeriesNumber": 21,
  "ShimSetting": [632, -7251, -8849, 616, 11, -208, -122, -10],
  "SliceThickness": 2,
  "SliceTiming": [0, 0.785, 0.0975, 0.8825, 0.1975, 0.98, 0.295, 1.0775, 0.3925, 1.1775, 0.49, 1.275, 0.5875, 1.3725, 0.6875, 0, 0.785, 0.0975, 0.8825, 0.1975, 0.98, 0.295, 1.0775, 0.3925, 1.1775, 0.49, 1.275, 0.5875, 1.3725, 0.6875, 0, 0.785, 0.0975, 0.8825, 0.1975, 0.98, 0.295, 1.0775, 0.3925, 1.1775, 0.49, 1.275, 0.5875, 1.3725, 0.6875, 0, 0.785, 0.0975, 0.8825, 0.1975, 0.98, 0.295, 1.0775, 0.3925, 1.1775, 0.49, 1.275, 0.5875, 1.3725, 0.6875],
  "SoftwareVersions": "syngo_MR_E11",
  "SpacingBetweenSlices": 2,
  "StationName": "MRC35049",
  "TaskName": "language",
  "TotalReadoutTime": 0.0576811,
  "TxRefAmp": 218.043,
  "WipMemBlock": "26e0bcc7-387d-41d5-969f-199749859f6f||Sequence: R016 ve11c/master r/e634e98; Dec 19 2017 11:00:25 by eja",
  "dcmmeta_affine": [
    [-1.9991093873977661, 0.05968131870031357, -7.125393312890083e-05, 103.35945129394531],
    [0.05599771812558174, 1.874893307685852, -0.6940022110939026, -67.03411102294922],
    [0.020642688497900963, 0.6936951875686646, 1.8757294416427612, -70.92921447753906],
    [0.0, 0.0, 0.0, 1.0]
],
  "dcmmeta_reorient_transform": [
    [0.0, -1.0, 0.0, 103.0],
    [1.0, 0.0, 0.0, 0.0],
    [0.0, 0.0, 1.0, 0.0],
    [0.0, 0.0, 0.0, 1.0]
],
  "dcmmeta_shape": [104, 104, 60, 159],
  "dcmmeta_slice_dim": 2,
  "dcmmeta_version": 0.6,
  "global": {
    "const": {
      "AcquisitionMatrix": [104, 0, 0, 104],
      "AngioFlag": "N",
      "BitsAllocated": 16,
      "BitsStored": 16,
      "BodyPartExamined": "BRAIN",
      "Columns": 832,
      "EchoNumbers": 1,
      "EchoTime": 37.0,
      "EchoTrainLength": 104,
      "FlipAngle": 52.0,
      "HighBit": 15,
      "ImageOrientationPatient": [0.99955466772895, -0.0279988585376, 0.01032134399501, 0.02984065937595, 0.93744668281497, -0.3468475917852],
      "ImagePositionPatient": [-858.90642153353, -788.15792332537, 245.51250127794],
      "ImageType": [
        "ORIGINAL",
        "PRIMARY",
        "M",
        "MB",
        "ND",
        "MOSAIC"
],
      "ImagedNucleus": "1H",
      "ImagingFrequency": 123.259391,
      "InPlanePhaseEncodingDirection": "COL",
      "MRAcquisitionType": "2D",
      "MagneticFieldStrength": 3.0,
      "Manufacturer": "SIEMENS",
      "ManufacturerModelName": "Prisma_fit",
      "Modality": "MR",
      "NumberOfAverages": 1.0,
      "NumberOfPhaseEncodingSteps": 104,
      "PercentPhaseFieldOfView": 100.0,
      "PercentSampling": 100.0,
      "PerformedProcedureStepStartTime": "142210.086000",
      "PhotometricInterpretation": "MONOCHROME2",
      "PixelBandwidth": 2290.0,
      "PixelRepresentation": 0,
      "PixelSpacing": [2.0, 2.0],
      "ProtocolName": "func_task-language_run-1",
      "RepetitionTime": 1490.0,
      "Rows": 832,
      "SAR": 0.02919360261053,
      "SamplesPerPixel": 1,
      "ScanOptions": "FS",
      "ScanningSequence": "EP",
      "SequenceName": "epfid2d1_104",
      "SequenceVariant": [
        "SK",
        "SS"
],
      "SeriesDescription": "func_task-language_run-1",
      "SeriesNumber": 21,
      "SeriesTime": "150943.460000",
      "SliceLocation": -43.264775064295,
      "SliceThickness": 2.0,
      "SmallestImagePixelValue": 0,
      "SoftwareVersions": "syngo MR E11",
      "SpacingBetweenSlices": 1.9999999610996,
      "SpecificCharacterSet": "ISO_IR 100",
      "StudyID": "1",
      "StudyTime": "142209.924000",
      "TransmitCoilName": "Body",
      "VariableFlipAngleFlag": "N",
      "WindowCenterWidthExplanation": "Algo1",
      "dBdt": 0.0},
    "slices": {}
  },
  "time": {
    "samples": {
      "AcquisitionNumber": [1, 2, 3, 4, 5, 6, 7, 8, 9, 10, 11, 12, 13, 14, 15, 16, 17, 18, 19, 20, 21, 22, 23, 24, 25, 26, 27, 28, 29, 30, 31, 32, 33, 34, 35, 36, 37, 38, 39, 40, 41, 42, 43, 44, 45, 46, 47, 48, 49, 50, 51, 52, 53, 54, 55, 56, 57, 58, 59, 60, 61, 62, 63, 64, 65, 66, 67, 68, 69, 70, 71, 72, 73, 74, 75, 76, 77, 78, 79, 80, 81, 82, 83, 84, 85, 86, 87, 88, 89, 90, 91, 92, 93, 94, 95, 96, 97, 98, 99, 100, 101, 102, 103, 104, 105, 106, 107, 108, 109, 110, 111, 112, 113, 114, 115, 116, 117, 118, 119, 120, 121, 122, 123, 124, 125, 126, 127, 128, 129, 130, 131, 132, 133, 134, 135, 136, 137, 138, 139, 140, 141, 142, 143, 144, 145, 146, 147, 148, 149, 150, 151, 152, 153, 154, 155, 156, 157, 158, 159],
      "AcquisitionTime": ["150815.477500", "150816.967500", "150818.457500", "150819.947500", "150821.437500", "150822.927500", "150824.417500", "150825.907500", "150827.397500", "150828.887500", "150830.377500", "150831.867500", "150833.357500", "150834.847500", "150836.337500", "150837.827500", "150839.317500", "150840.807500", "150842.297500", "150843.787500", "150845.277500", "150846.767500", "150848.257500", "150849.747500", "150851.237500", "150852.727500", "150854.217500", "150855.707500", "150857.197500", "150858.687500", "150900.177500", "150901.667500", "150903.157500", "150904.647500", "150906.137500", "150907.627500", "150909.117500", "150910.607500", "150912.097500", "150913.587500", "150915.077500", "150916.567500", "150918.057500", "150919.547500", "150921.037500", "150922.527500", "150924.017500", "150925.507500", "150926.997500", "150928.487500", "150929.977500", "150931.467500", "150932.957500", "150934.447500", "150935.937500", "150937.427500", "150938.917500", "150940.407500", "150941.897500", "150943.387500", "150944.877500", "150946.367500", "150947.857500", "150949.347500", "150950.837500", "150952.327500", "150953.817500", "150955.307500", "150956.797500", "150958.287500", "150959.777500", "151001.267500", "151002.757500", "151004.247500", "151005.737500", "151007.227500", "151008.717500", "151010.207500", "151011.697500", "151013.187500", "151014.677500", "151016.167500", "151017.657500", "151019.147500", "151020.637500", "151022.127500", "151023.617500", "151025.107500", "151026.597500", "151028.087500", "151029.577500", "151031.067500", "151032.557500", "151034.047500", "151035.537500", "151037.027500", "151038.517500", "151040.007500", "151041.497500", "151042.987500", "151044.477500", "151045.967500", "151047.457500", "151048.947500", "151050.437500", "151051.927500", "151053.417500", "151054.907500", "151056.397500", "151057.887500", "151059.377500", "151100.867500", "151102.357500", "151103.847500", "151105.337500", "151106.827500", "151108.317500", "151109.807500", "151111.297500", "151112.787500", "151114.277500", "151115.767500", "151117.257500", "151118.747500", "151120.237500", "151121.727500", "151123.217500", "151124.707500", "151126.197500", "151127.687500", "151129.177500", "151130.667500", "151132.157500", "151133.647500", "151135.137500", "151136.627500", "151138.117500", "151139.607500", "151141.097500", "151142.587500", "151144.077500", "151145.567500", "151147.057500", "151148.547500", "151150.037500", "151151.527500", "151153.017500", "151154.507500", "151155.997500", "151157.487500", "151158.977500", "151200.467500", "151201.957500", "151203.447500", "151204.937500", "151206.427500", "151207.917500", "151209.407500", "151210.897500"],
      "ContentTime": ["150943.463000", "150943.474000", "150943.477000", "150943.480000", "150943.483000", "150943.486000", "150943.489000", "150943.491000", "150943.494000", "150943.497000", "150943.500000", "150943.503000", "150943.506000", "150943.509000", "150943.511000", "150943.514000", "150943.517000", "150943.520000", "150943.523000", "150943.526000", "150943.538000", "150943.541000", "150943.544000", "150943.547000", "150943.549000", "150943.552000", "150943.555000", "150943.558000", "150943.561000", "150943.564000", "150943.566000", "150943.569000", "150943.572000", "150943.575000", "151003.435000", "151003.438000", "151003.441000", "151003.444000", "151003.446000", "151003.450000", "151003.453000", "151003.455000", "151003.458000", "151003.461000", "151003.464000", "151003.467000", "151003.470000", "151003.473000", "151003.475000", "151003.478000", "151003.481000", "151003.484000", "151003.487000", "151003.490000", "151023.434000", "151023.437000", "151023.439000", "151023.447000", "151023.450000", "151023.453000", "151023.455000", "151023.458000", "151023.461000", "151023.464000", "151023.467000", "151023.469000", "151023.473000", "151023.475000", "151023.478000", "151023.481000", "151023.484000", "151023.487000", "151023.490000", "151023.492000", "151023.495000", "151043.434000", "151043.437000", "151043.440000", "151043.443000", "151043.445000", "151043.448000", "151043.451000", "151043.454000", "151043.457000", "151043.460000", "151043.462000", "151043.465000", "151043.468000", "151043.471000", "151043.474000", "151043.477000", "151043.479000", "151043.482000", "151043.485000", "151043.488000", "151123.434000", "151123.437000", "151123.440000", "151123.443000", "151123.445000", "151123.448000", "151123.451000", "151123.454000", "151123.457000", "151123.460000", "151123.463000", "151123.465000", "151123.468000", "151123.471000", "151123.474000", "151123.477000", "151123.480000", "151123.483000", "151123.485000", "151123.488000", "151123.491000", "151123.494000", "151123.497000", "151123.499000", "151123.502000", "151123.505000", "151123.508000", "151123.511000", "151123.514000", "151123.516000", "151123.519000", "151203.435000", "151203.438000", "151203.441000", "151203.444000", "151203.446000", "151203.449000", "151203.452000", "151203.455000", "151203.458000", "151203.461000", "151203.464000", "151203.466000", "151203.469000", "151203.472000", "151203.475000", "151203.478000", "151203.481000", "151203.483000", "151203.486000", "151203.489000", "151203.507000", "151203.510000", "151203.513000", "151203.515000", "151203.518000", "151203.521000", "151212.643000", "151212.646000", "151212.649000", "151212.652000", "151212.655000", "151212.658000", "151212.661000"],
      "InstanceCreationTime": ["150943.463000", "150943.474000", "150943.477000", "150943.480000", "150943.483000", "150943.486000", "150943.489000", "150943.491000", "150943.494000", "150943.497000", "150943.500000", "150943.503000", "150943.506000", "150943.509000", "150943.511000", "150943.514000", "150943.517000", "150943.520000", "150943.523000", "150943.526000", "150943.538000", "150943.541000", "150943.544000", "150943.547000", "150943.549000", "150943.552000", "150943.555000", "150943.558000", "150943.561000", "150943.564000", "150943.566000", "150943.569000", "150943.572000", "150943.575000", "151003.435000", "151003.438000", "151003.441000", "151003.444000", "151003.446000", "151003.450000", "151003.453000", "151003.455000", "151003.458000", "151003.461000", "151003.464000", "151003.467000", "151003.470000", "151003.473000", "151003.475000", "151003.478000", "151003.481000", "151003.484000", "151003.487000", "151003.490000", "151023.434000", "151023.437000", "151023.439000", "151023.447000", "151023.450000", "151023.453000", "151023.455000", "151023.458000", "151023.461000", "151023.464000", "151023.467000", "151023.469000", "151023.473000", "151023.475000", "151023.478000", "151023.481000", "151023.484000", "151023.487000", "151023.490000", "151023.492000", "151023.495000", "151043.434000", "151043.437000", "151043.440000", "151043.443000", "151043.445000", "151043.448000", "151043.451000", "151043.454000", "151043.457000", "151043.460000", "151043.462000", "151043.465000", "151043.468000", "151043.471000", "151043.474000", "151043.477000", "151043.479000", "151043.482000", "151043.485000", "151043.488000", "151123.434000", "151123.437000", "151123.440000", "151123.443000", "151123.445000", "151123.448000", "151123.451000", "151123.454000", "151123.457000", "151123.460000", "151123.463000", "151123.465000", "151123.468000", "151123.471000", "151123.474000", "151123.477000", "151123.480000", "151123.483000", "151123.485000", "151123.488000", "151123.491000", "151123.494000", "151123.497000", "151123.499000", "151123.502000", "151123.505000", "151123.508000", "151123.511000", "151123.514000", "151123.516000", "151123.519000", "151203.435000", "151203.438000", "151203.441000", "151203.444000", "151203.446000", "151203.449000", "151203.452000", "151203.455000", "151203.458000", "151203.461000", "151203.464000", "151203.466000", "151203.469000", "151203.472000", "151203.475000", "151203.478000", "151203.481000", "151203.483000", "151203.486000", "151203.489000", "151203.507000", "151203.510000", "151203.513000", "151203.515000", "151203.518000", "151203.521000", "151212.643000", "151212.646000", "151212.649000", "151212.652000", "151212.655000", "151212.658000", "151212.661000"],
      "InstanceNumber": [1, 2, 3, 4, 5, 6, 7, 8, 9, 10, 11, 12, 13, 14, 15, 16, 17, 18, 19, 20, 21, 22, 23, 24, 25, 26, 27, 28, 29, 30, 31, 32, 33, 34, 35, 36, 37, 38, 39, 40, 41, 42, 43, 44, 45, 46, 47, 48, 49, 50, 51, 52, 53, 54, 55, 56, 57, 58, 59, 60, 61, 62, 63, 64, 65, 66, 67, 68, 69, 70, 71, 72, 73, 74, 75, 76, 77, 78, 79, 80, 81, 82, 83, 84, 85, 86, 87, 88, 89, 90, 91, 92, 93, 94, 95, 96, 97, 98, 99, 100, 101, 102, 103, 104, 105, 106, 107, 108, 109, 110, 111, 112, 113, 114, 115, 116, 117, 118, 119, 120, 121, 122, 123, 124, 125, 126, 127, 128, 129, 130, 131, 132, 133, 134, 135, 136, 137, 138, 139, 140, 141, 142, 143, 144, 145, 146, 147, 148, 149, 150, 151, 152, 153, 154, 155, 156, 157, 158, 159],
      "LargestImagePixelValue": [43118, 41718, 40945, 40588, 39655, 40562, 40026, 40069, 40014, 39896, 39421, 39852, 39804, 39929, 39846, 39941, 40173, 39934, 39448, 40397, 39926, 39390, 38953, 39159, 39493, 39275, 38970, 39063, 39492, 39881, 40254, 40300, 39919, 39824, 39051, 39060, 39032, 39515, 39694, 39662, 39481, 39387, 40051, 39774, 40132, 39985, 39382, 39506, 39274, 38976, 39611, 39470, 39462, 39911, 39959, 40069, 40085, 40391, 39511, 39737, 38915, 39536, 39611, 39947, 39488, 39647, 40009, 39740, 39407, 39331, 39746, 39344, 39549, 39196, 39277, 39448, 39593, 39799, 39477, 39442, 38923, 39571, 39629, 39180, 39431, 39363, 39506, 39334, 38908, 39216, 39499, 39426, 39792, 39736, 39188, 39237, 39198, 39078, 39373, 39362, 39574, 39017, 39424, 40192, 39515, 39669, 38848, 39271, 39626, 39294, 39492, 39285, 39386, 40139, 39975, 39720, 39956, 39737, 39416, 38791, 39236, 39391, 39620, 40135, 40391, 40150, 40375, 39672, 39870, 39741, 39927, 39008, 38802, 39843, 39838, 39623, 39440, 39691, 39093, 39740, 39426, 39505, 39621, 39103, 39743, 39770, 39511, 39057, 39319, 39217, 38845, 39355, 39138, 39853, 39609, 39340, 39586, 39498, 39388],
      "WindowCenter": [10149.0, 10095.0, 10086.0, 10102.0, 10091.0, 10085.0, 10057.0, 10036.0, 10031.0, 10024.0, 10027.0, 10047.0, 10058.0, 10058.0, 10059.0, 10052.0, 10059.0, 10066.0, 10073.0, 10113.0, 10119.0, 10115.0, 10094.0, 10067.0, 10048.0, 10032.0, 10032.0, 10040.0, 10048.0, 10059.0, 10067.0, 10086.0, 10065.0, 10050.0, 10043.0, 10037.0, 10035.0, 10034.0, 10025.0, 10010.0, 10002.0, 10016.0, 10048.0, 10052.0, 10041.0, 10025.0, 10020.0, 10019.0, 10019.0, 10012.0, 10027.0, 10036.0, 10039.0, 10051.0, 10066.0, 10076.0, 10089.0, 10091.0, 10071.0, 10084.0, 10093.0, 10112.0, 10099.0, 10080.0, 10050.0, 10050.0, 10057.0, 10060.0, 10038.0, 10020.0, 10024.0, 10023.0, 10039.0, 10034.0, 10042.0, 10045.0, 10045.0, 10044.0, 10034.0, 10052.0, 10053.0, 10074.0, 10055.0, 10021.0, 10001.0, 9997.0, 10013.0, 10033.0, 10036.0, 10021.0, 10012.0, 10023.0, 10040.0, 10058.0, 10054.0, 10046.0, 10047.0, 10039.0, 10043.0, 10053.0, 10060.0, 10055.0, 10066.0, 10075.0, 10054.0, 10043.0, 10020.0, 10024.0, 10032.0, 10032.0, 10018.0, 10009.0, 10021.0, 10050.0, 10052.0, 10025.0, 10018.0, 10005.0, 10006.0, 10009.0, 10017.0, 10009.0, 9998.0, 9996.0, 10010.0, 10026.0, 10045.0, 10055.0, 10048.0, 10043.0, 10053.0, 10058.0, 10077.0, 10092.0, 10077.0, 10057.0, 10041.0, 10033.0, 10033.0, 10032.0, 10023.0, 10023.0, 10024.0, 10033.0, 10055.0, 10049.0, 10041.0, 10030.0, 10031.0, 10054.0, 10051.0, 10056.0, 10043.0, 10046.0, 10041.0, 10024.0, 10020.0, 10020.0, 10027.0],
      "WindowWidth": [21844.0, 21688.0, 21642.0, 21666.0, 21638.0, 21614.0, 21553.0, 21502.0, 21486.0, 21473.0, 21481.0, 21523.0, 21550.0, 21548.0, 21551.0, 21536.0, 21552.0, 21566.0, 21582.0, 21671.0, 21687.0, 21678.0, 21635.0, 21569.0, 21527.0, 21494.0, 21494.0, 21511.0, 21530.0, 21551.0, 21565.0, 21609.0, 21564.0, 21530.0, 21514.0, 21499.0, 21494.0, 21490.0, 21468.0, 21439.0, 21425.0, 21453.0, 21525.0, 21537.0, 21507.0, 21472.0, 21464.0, 21460.0, 21458.0, 21447.0, 21478.0, 21500.0, 21507.0, 21533.0, 21565.0, 21590.0, 21620.0, 21623.0, 21581.0, 21606.0, 21625.0, 21671.0, 21643.0, 21598.0, 21535.0, 21527.0, 21541.0, 21551.0, 21506.0, 21463.0, 21469.0, 21469.0, 21503.0, 21496.0, 21511.0, 21522.0, 21522.0, 21521.0, 21497.0, 21538.0, 21541.0, 21584.0, 21548.0, 21468.0, 21422.0, 21411.0, 21447.0, 21492.0, 21503.0, 21468.0, 21449.0, 21469.0, 21510.0, 21551.0, 21546.0, 21528.0, 21531.0, 21511.0, 21520.0, 21542.0, 21557.0, 21552.0, 21571.0, 21592.0, 21549.0, 21517.0, 21470.0, 21471.0, 21490.0, 21489.0, 21459.0, 21441.0, 21470.0, 21534.0, 21539.0, 21480.0, 21454.0, 21427.0, 21429.0, 21439.0, 21455.0, 21436.0, 21411.0, 21406.0, 21438.0, 21474.0, 21517.0, 21539.0, 21523.0, 21514.0, 21532.0, 21548.0, 21592.0, 21626.0, 21592.0, 21543.0, 21507.0, 21490.0, 21489.0, 21485.0, 21467.0, 21465.0, 21471.0, 21494.0, 21538.0, 21530.0, 21511.0, 21484.0, 21486.0, 21532.0, 21531.0, 21538.0, 21509.0, 21514.0, 21505.0, 21471.0, 21459.0, 21458.0, 21472.0]
    },
    "slices": {}
  }
}