{
  "AcquisitionMatrixPE": 104,
  "AcquisitionNumber": 1,
  "AcquisitionTime": "14:46:17.467500",
  "BandwidthPerPixelPhaseEncode": 17.17,
  "BaseResolution": 104,
  "BodyPartExamined": "BRAIN",
  "CoilString": "HC1-7;NC1_2",
  "ConsistencyInfo": "N4_VE11C_LATEST_20160120",
  "ConversionSoftware": "dcm2niix",
  "ConversionSoftwareVersion": "v1.0.20200427",
  "DerivedVendorReportedEchoSpacing": 0.000560011,
  "DeviceSerialNumber": "167006",
  "DwellTime": 2.1e-06,
  "EchoTime": 0.037,
  "EchoTrainLength": 104,
  "EffectiveEchoSpacing": 0.000560011,
  "FlipAngle": 52,
  "ImageComments": "Unaliased_MB4_PE3_LB",
  "ImageOrientationPatientDICOM": [0.999555, -0.0279989, 0.0103213, 0.0298407, 0.937447, -0.346848],
  "ImageType": [
    "ORIGINAL",
    "PRIMARY",
    "M",
    "MB",
    "ND",
    "MOSAIC"
],
  "ImagingFrequency": 123.259,
  "InPlanePhaseEncodingDirectionDICOM": "COL",
  "InstitutionAddress": "Chemin_Queen-Mary_4565_Montreal_District_CA_H3W_1W5",
  "InstitutionName": "IUGM",
  "InstitutionalDepartmentName": "Department",
  "MRAcquisitionType": "2D",
  "MagneticFieldStrength": 3,
  "Manufacturer": "Siemens",
  "ManufacturersModelName": "Prisma_fit",
  "Modality": "MR",
  "MultibandAccelerationFactor": 4,
  "PartialFourier": 1,
  "PatientPosition": "HFS",
  "PercentPhaseFOV": 100,
  "PercentSampling": 100,
  "PhaseEncodingDirection": "j",
  "PhaseEncodingSteps": 104,
  "PhaseResolution": 1,
  "PixelBandwidth": 2290,
  "ProcedureStepDescription": "hcptrt_generic",
  "ProtocolName": "func_task-relational_run-1",
  "PulseSequenceDetails": "%CustomerSeq%_cmrr_mbep2d_bold",
  "ReceiveCoilActiveElements": "HC1-7;NC1,2",
  "ReceiveCoilName": "HeadNeck_64",
  "ReconMatrixPE": 104,
  "RepetitionTime": 1.49,
  "SAR": 0.0290791,
  "ScanOptions": "FS",
  "ScanningSequence": "EP",
  "SequenceName": "epfid2d1_104",
  "SequenceVariant": "SK_SS",
  "SeriesDescription": "func_task-relational_run-1",
  "SeriesNumber": 11,
  "ShimSetting": [632, -7251, -8849, 616, 11, -208, -122, -10],
  "SliceThickness": 2,
  "SliceTiming": [0, 0.785, 0.0975, 0.8825, 0.1975, 0.98, 0.295, 1.0775, 0.3925, 1.1775, 0.49, 1.275, 0.5875, 1.3725, 0.6875, 0, 0.785, 0.0975, 0.8825, 0.1975, 0.98, 0.295, 1.0775, 0.3925, 1.1775, 0.49, 1.275, 0.5875, 1.3725, 0.6875, 0, 0.785, 0.0975, 0.8825, 0.1975, 0.98, 0.295, 1.0775, 0.3925, 1.1775, 0.49, 1.275, 0.5875, 1.3725, 0.6875, 0, 0.785, 0.0975, 0.8825, 0.1975, 0.98, 0.295, 1.0775, 0.3925, 1.1775, 0.49, 1.275, 0.5875, 1.3725, 0.6875],
  "SoftwareVersions": "syngo_MR_E11",
  "SpacingBetweenSlices": 2,
  "StationName": "MRC35049",
  "TaskName": "relational",
  "TotalReadoutTime": 0.0576811,
  "TxRefAmp": 218.043,
  "WipMemBlock": "8a8922de-f4b9-4a39-8e3c-85d9b33c3bc2||Sequence: R016 ve11c/master r/e634e98; Dec 19 2017 11:00:25 by eja",
  "dcmmeta_affine": [
    [-1.9991093873977661, 0.05968131870031357, -7.125393312890083e-05, 103.35945129394531],
    [0.05599771812558174, 1.874893307685852, -0.6940022110939026, -67.03411102294922],
    [0.020642688497900963, 0.6936951875686646, 1.8757294416427612, -70.92921447753906],
    [0.0, 0.0, 0.0, 1.0]
],
  "dcmmeta_reorient_transform": [
    [0.0, -1.0, 0.0, 103.0],
    [1.0, 0.0, 0.0, 0.0],
    [0.0, 0.0, 1.0, 0.0],
    [0.0, 0.0, 0.0, 1.0]
],
  "dcmmeta_shape": [104, 104, 60, 119],
  "dcmmeta_slice_dim": 2,
  "dcmmeta_version": 0.6,
  "global": {
    "const": {
      "AcquisitionMatrix": [104, 0, 0, 104],
      "AngioFlag": "N",
      "BitsAllocated": 16,
      "BitsStored": 16,
      "BodyPartExamined": "BRAIN",
      "Columns": 832,
      "EchoNumbers": 1,
      "EchoTime": 37.0,
      "EchoTrainLength": 104,
      "FlipAngle": 52.0,
      "HighBit": 15,
      "ImageOrientationPatient": [0.99955466772895, -0.0279988585376, 0.01032134399501, 0.02984065937595, 0.93744668281497, -0.3468475917852],
      "ImagePositionPatient": [-858.90642153353, -788.15792332537, 245.51250127794],
      "ImageType": [
        "ORIGINAL",
        "PRIMARY",
        "M",
        "MB",
        "ND",
        "MOSAIC"
],
      "ImagedNucleus": "1H",
      "ImagingFrequency": 123.259379,
      "InPlanePhaseEncodingDirection": "COL",
      "MRAcquisitionType": "2D",
      "MagneticFieldStrength": 3.0,
      "Manufacturer": "SIEMENS",
      "ManufacturerModelName": "Prisma_fit",
      "Modality": "MR",
      "NumberOfAverages": 1.0,
      "NumberOfPhaseEncodingSteps": 104,
      "PercentPhaseFieldOfView": 100.0,
      "PercentSampling": 100.0,
      "PerformedProcedureStepStartTime": "142210.086000",
      "PhotometricInterpretation": "MONOCHROME2",
      "PixelBandwidth": 2290.0,
      "PixelRepresentation": 0,
      "PixelSpacing": [2.0, 2.0],
      "ProtocolName": "func_task-relational_run-1",
      "RepetitionTime": 1490.0,
      "Rows": 832,
      "SAR": 0.02907908430395,
      "SamplesPerPixel": 1,
      "ScanOptions": "FS",
      "ScanningSequence": "EP",
      "SequenceName": "epfid2d1_104",
      "SequenceVariant": [
        "SK",
        "SS"
],
      "SeriesDescription": "func_task-relational_run-1",
      "SeriesNumber": 11,
      "SeriesTime": "144742.617000",
      "SliceLocation": -43.264775064295,
      "SliceThickness": 2.0,
      "SmallestImagePixelValue": 0,
      "SoftwareVersions": "syngo MR E11",
      "SpacingBetweenSlices": 1.9999999610996,
      "SpecificCharacterSet": "ISO_IR 100",
      "StudyID": "1",
      "StudyTime": "142209.924000",
      "TransmitCoilName": "Body",
      "VariableFlipAngleFlag": "N",
      "WindowCenterWidthExplanation": "Algo1",
      "dBdt": 0.0},
    "slices": {}
  },
  "time": {
    "samples": {
      "AcquisitionNumber": [1, 2, 3, 4, 5, 6, 7, 8, 9, 10, 11, 12, 13, 14, 15, 16, 17, 18, 19, 20, 21, 22, 23, 24, 25, 26, 27, 28, 29, 30, 31, 32, 33, 34, 35, 36, 37, 38, 39, 40, 41, 42, 43, 44, 45, 46, 47, 48, 49, 50, 51, 52, 53, 54, 55, 56, 57, 58, 59, 60, 61, 62, 63, 64, 65, 66, 67, 68, 69, 70, 71, 72, 73, 74, 75, 76, 77, 78, 79, 80, 81, 82, 83, 84, 85, 86, 87, 88, 89, 90, 91, 92, 93, 94, 95, 96, 97, 98, 99, 100, 101, 102, 103, 104, 105, 106, 107, 108, 109, 110, 111, 112, 113, 114, 115, 116, 117, 118, 119],
      "AcquisitionTime": ["144617.467500", "144618.957500", "144620.447500", "144621.937500", "144623.427500", "144624.917500", "144626.407500", "144627.897500", "144629.387500", "144630.877500", "144632.367500", "144633.857500", "144635.347500", "144636.837500", "144638.327500", "144639.817500", "144641.307500", "144642.797500", "144644.287500", "144645.777500", "144647.267500", "144648.757500", "144650.247500", "144651.737500", "144653.227500", "144654.717500", "144656.207500", "144657.697500", "144659.187500", "144700.677500", "144702.167500", "144703.657500", "144705.147500", "144706.637500", "144708.127500", "144709.617500", "144711.107500", "144712.597500", "144714.087500", "144715.577500", "144717.067500", "144718.557500", "144720.047500", "144721.537500", "144723.027500", "144724.517500", "144726.007500", "144727.497500", "144728.987500", "144730.477500", "144731.967500", "144733.457500", "144734.947500", "144736.437500", "144737.927500", "144739.417500", "144740.907500", "144742.397500", "144743.887500", "144745.377500", "144746.867500", "144748.357500", "144749.847500", "144751.337500", "144752.827500", "144754.317500", "144755.807500", "144757.297500", "144758.787500", "144800.277500", "144801.767500", "144803.257500", "144804.747500", "144806.237500", "144807.727500", "144809.217500", "144810.707500", "144812.197500", "144813.687500", "144815.177500", "144816.667500", "144818.157500", "144819.647500", "144821.137500", "144822.627500", "144824.117500", "144825.607500", "144827.097500", "144828.587500", "144830.077500", "144831.567500", "144833.057500", "144834.547500", "144836.037500", "144837.527500", "144839.017500", "144840.507500", "144841.997500", "144843.487500", "144844.977500", "144846.467500", "144847.957500", "144849.447500", "144850.937500", "144852.427500", "144853.917500", "144855.407500", "144856.897500", "144858.387500", "144859.877500", "144901.367500", "144902.857500", "144904.347500", "144905.837500", "144907.327500", "144908.817500", "144910.307500", "144911.797500", "144913.287500"],
      "ContentTime": ["144742.620000", "144742.623000", "144742.626000", "144742.629000", "144742.632000", "144742.635000", "144742.637000", "144742.640000", "144742.643000", "144742.646000", "144742.649000", "144742.652000", "144742.655000", "144742.658000", "144742.660000", "144742.663000", "144742.670000", "144742.673000", "144742.676000", "144742.679000", "144742.682000", "144742.685000", "144742.687000", "144742.690000", "144742.693000", "144742.696000", "144742.699000", "144742.702000", "144742.705000", "144742.708000", "144742.710000", "144742.713000", "144802.583000", "144802.586000", "144802.589000", "144802.592000", "144802.594000", "144802.597000", "144802.600000", "144802.603000", "144802.606000", "144802.609000", "144802.612000", "144802.615000", "144802.617000", "144802.620000", "144802.623000", "144802.626000", "144802.629000", "144802.631000", "144802.634000", "144802.637000", "144822.583000", "144822.596000", "144822.599000", "144822.602000", "144822.605000", "144822.608000", "144822.611000", "144822.614000", "144822.616000", "144822.619000", "144822.622000", "144822.625000", "144822.628000", "144822.631000", "144822.650000", "144822.653000", "144822.656000", "144822.658000", "144822.662000", "144822.664000", "144842.583000", "144842.586000", "144842.589000", "144842.592000", "144842.594000", "144842.597000", "144842.600000", "144842.603000", "144842.606000", "144842.610000", "144842.613000", "144842.615000", "144842.618000", "144842.621000", "144842.624000", "144842.627000", "144842.630000", "144842.632000", "144842.635000", "144842.638000", "144915.565000", "144915.568000", "144915.571000", "144915.574000", "144915.580000", "144915.583000", "144915.586000", "144915.589000", "144915.592000", "144915.595000", "144915.613000", "144915.616000", "144915.619000", "144915.621000", "144915.625000", "144915.627000", "144915.630000", "144915.633000", "144915.636000", "144915.639000", "144915.642000", "144915.645000", "144915.647000", "144915.650000", "144915.653000", "144915.656000", "144915.659000"],
      "InstanceCreationTime": ["144742.620000", "144742.623000", "144742.626000", "144742.629000", "144742.632000", "144742.635000", "144742.637000", "144742.640000", "144742.643000", "144742.646000", "144742.649000", "144742.652000", "144742.655000", "144742.658000", "144742.660000", "144742.663000", "144742.670000", "144742.673000", "144742.676000", "144742.679000", "144742.682000", "144742.685000", "144742.687000", "144742.690000", "144742.693000", "144742.696000", "144742.699000", "144742.702000", "144742.705000", "144742.708000", "144742.710000", "144742.713000", "144802.583000", "144802.586000", "144802.589000", "144802.592000", "144802.594000", "144802.597000", "144802.600000", "144802.603000", "144802.606000", "144802.609000", "144802.612000", "144802.615000", "144802.617000", "144802.620000", "144802.623000", "144802.626000", "144802.629000", "144802.631000", "144802.634000", "144802.637000", "144822.583000", "144822.596000", "144822.599000", "144822.602000", "144822.605000", "144822.608000", "144822.611000", "144822.614000", "144822.616000", "144822.619000", "144822.622000", "144822.625000", "144822.628000", "144822.631000", "144822.650000", "144822.653000", "144822.656000", "144822.658000", "144822.662000", "144822.664000", "144842.583000", "144842.586000", "144842.589000", "144842.592000", "144842.594000", "144842.597000", "144842.600000", "144842.603000", "144842.606000", "144842.610000", "144842.613000", "144842.615000", "144842.618000", "144842.621000", "144842.624000", "144842.627000", "144842.630000", "144842.632000", "144842.635000", "144842.638000", "144915.565000", "144915.568000", "144915.571000", "144915.574000", "144915.580000", "144915.583000", "144915.586000", "144915.589000", "144915.592000", "144915.595000", "144915.613000", "144915.616000", "144915.619000", "144915.621000", "144915.625000", "144915.627000", "144915.630000", "144915.633000", "144915.636000", "144915.639000", "144915.642000", "144915.645000", "144915.647000", "144915.650000", "144915.653000", "144915.656000", "144915.659000"],
      "InstanceNumber": [1, 2, 3, 4, 5, 6, 7, 8, 9, 10, 11, 12, 13, 14, 15, 16, 17, 18, 19, 20, 21, 22, 23, 24, 25, 26, 27, 28, 29, 30, 31, 32, 33, 34, 35, 36, 37, 38, 39, 40, 41, 42, 43, 44, 45, 46, 47, 48, 49, 50, 51, 52, 53, 54, 55, 56, 57, 58, 59, 60, 61, 62, 63, 64, 65, 66, 67, 68, 69, 70, 71, 72, 73, 74, 75, 76, 77, 78, 79, 80, 81, 82, 83, 84, 85, 86, 87, 88, 89, 90, 91, 92, 93, 94, 95, 96, 97, 98, 99, 100, 101, 102, 103, 104, 105, 106, 107, 108, 109, 110, 111, 112, 113, 114, 115, 116, 117, 118, 119],
      "LargestImagePixelValue": [43890, 42456, 42001, 41813, 40771, 40861, 41358, 40199, 40950, 41624, 41160, 40834, 40975, 40494, 41027, 40229, 40865, 40955, 40545, 40768, 41455, 40701, 41647, 41025, 40504, 41105, 40105, 41009, 40038, 40191, 41084, 40416, 39936, 41333, 40844, 40082, 40845, 40614, 39782, 40503, 41027, 40364, 40195, 41387, 41162, 40452, 41112, 40063, 39854, 40145, 39665, 40113, 40326, 39899, 40826, 39593, 40703, 39764, 39735, 40906, 39772, 39805, 40479, 39253, 41067, 40900, 39513, 40626, 40027, 39230, 40519, 41740, 40804, 40227, 39415, 39798, 39915, 39048, 40748, 41447, 40248, 40555, 40700, 38982, 40170, 41010, 39571, 40354, 40199, 39393, 40142, 39888, 40001, 40276, 40390, 39637, 40572, 39940, 39184, 40360, 40302, 39465, 40590, 41096, 39973, 39952, 38849, 40387, 39645, 39087, 39845, 40058, 40130, 40079, 40114, 39753, 40000, 40575, 39590],
      "WindowCenter": [10259.0, 10205.0, 10189.0, 10180.0, 10158.0, 10147.0, 10137.0, 10137.0, 10164.0, 10195.0, 10185.0, 10177.0, 10170.0, 10160.0, 10153.0, 10146.0, 10146.0, 10137.0, 10130.0, 10120.0, 10133.0, 10144.0, 10166.0, 10160.0, 10156.0, 10152.0, 10155.0, 10161.0, 10157.0, 10156.0, 10162.0, 10157.0, 10150.0, 10161.0, 10148.0, 10136.0, 10144.0, 10140.0, 10134.0, 10146.0, 10155.0, 10154.0, 10155.0, 10170.0, 10163.0, 10154.0, 10159.0, 10154.0, 10162.0, 10172.0, 10158.0, 10158.0, 10147.0, 10142.0, 10144.0, 10128.0, 10140.0, 10135.0, 10149.0, 10169.0, 10160.0, 10158.0, 10152.0, 10144.0, 10155.0, 10161.0, 10146.0, 10141.0, 10120.0, 10111.0, 10145.0, 10152.0, 10130.0, 10103.0, 10093.0, 10116.0, 10123.0, 10113.0, 10130.0, 10135.0, 10136.0, 10140.0, 10170.0, 10179.0, 10192.0, 10158.0, 10129.0, 10130.0, 10138.0, 10143.0, 10167.0, 10176.0, 10177.0, 10175.0, 10159.0, 10158.0, 10173.0, 10171.0, 10158.0, 10160.0, 10144.0, 10136.0, 10157.0, 10150.0, 10122.0, 10104.0, 10084.0, 10114.0, 10113.0, 10109.0, 10111.0, 10110.0, 10122.0, 10119.0, 10142.0, 10144.0, 10151.0, 10149.0, 10139.0],
      "WindowWidth": [22120.0, 21960.0, 21897.0, 21867.0, 21815.0, 21781.0, 21753.0, 21753.0, 21811.0, 21877.0, 21860.0, 21842.0, 21828.0, 21803.0, 21788.0, 21773.0, 21771.0, 21752.0, 21737.0, 21716.0, 21741.0, 21770.0, 21816.0, 21805.0, 21797.0, 21785.0, 21795.0, 21806.0, 21800.0, 21798.0, 21810.0, 21799.0, 21786.0, 21808.0, 21782.0, 21756.0, 21770.0, 21761.0, 21750.0, 21773.0, 21794.0, 21791.0, 21794.0, 21828.0, 21811.0, 21793.0, 21798.0, 21792.0, 21809.0, 21833.0, 21803.0, 21802.0, 21779.0, 21768.0, 21768.0, 21740.0, 21763.0, 21757.0, 21782.0, 21824.0, 21809.0, 21803.0, 21792.0, 21775.0, 21795.0, 21808.0, 21779.0, 21765.0, 21722.0, 21703.0, 21773.0, 21791.0, 21742.0, 21683.0, 21660.0, 21707.0, 21725.0, 21708.0, 21738.0, 21746.0, 21750.0, 21761.0, 21827.0, 21853.0, 21877.0, 21803.0, 21740.0, 21740.0, 21757.0, 21772.0, 21824.0, 21846.0, 21846.0, 21842.0, 21805.0, 21801.0, 21835.0, 21835.0, 21810.0, 21806.0, 21771.0, 21755.0, 21799.0, 21786.0, 21725.0, 21683.0, 21644.0, 21701.0, 21705.0, 21700.0, 21698.0, 21696.0, 21721.0, 21718.0, 21766.0, 21774.0, 21785.0, 21783.0, 21762.0]
    },
    "slices": {}
  }
}