{
  "AcquisitionMatrixPE": 104,
  "AcquisitionNumber": 1,
  "AcquisitionTime": "15:31:56.437500",
  "BandwidthPerPixelPhaseEncode": 17.17,
  "BaseResolution": 104,
  "BodyPartExamined": "BRAIN",
  "CoilString": "HC1-7;NC1_2",
  "ConsistencyInfo": "N4_VE11C_LATEST_20160120",
  "ConversionSoftware": "dcm2niix",
  "ConversionSoftwareVersion": "v1.0.20200427",
  "DerivedVendorReportedEchoSpacing": 0.000560011,
  "DeviceSerialNumber": "167006",
  "DwellTime": 2.1e-06,
  "EchoTime": 0.037,
  "EchoTrainLength": 104,
  "EffectiveEchoSpacing": 0.000560011,
  "FlipAngle": 52,
  "ImageComments": "Unaliased_MB4_PE3_LB",
  "ImageOrientationPatientDICOM": [0.999555, -0.0279989, 0.0103213, 0.0298407, 0.937447, -0.346848],
  "ImageType": [
    "ORIGINAL",
    "PRIMARY",
    "M",
    "MB",
    "ND",
    "MOSAIC"
],
  "ImagingFrequency": 123.259,
  "InPlanePhaseEncodingDirectionDICOM": "COL",
  "InstitutionAddress": "Chemin_Queen-Mary_4565_Montreal_District_CA_H3W_1W5",
  "InstitutionName": "IUGM",
  "InstitutionalDepartmentName": "Department",
  "MRAcquisitionType": "2D",
  "MagneticFieldStrength": 3,
  "Manufacturer": "Siemens",
  "ManufacturersModelName": "Prisma_fit",
  "Modality": "MR",
  "MultibandAccelerationFactor": 4,
  "PartialFourier": 1,
  "PatientPosition": "HFS",
  "PercentPhaseFOV": 100,
  "PercentSampling": 100,
  "PhaseEncodingDirection": "j",
  "PhaseEncodingSteps": 104,
  "PhaseResolution": 1,
  "PixelBandwidth": 2290,
  "ProcedureStepDescription": "hcptrt_generic",
  "ProtocolName": "func_task-social_run-2",
  "PulseSequenceDetails": "%CustomerSeq%_cmrr_mbep2d_bold",
  "ReceiveCoilActiveElements": "HC1-7;NC1,2",
  "ReceiveCoilName": "HeadNeck_64",
  "ReconMatrixPE": 104,
  "RepetitionTime": 1.49,
  "SAR": 0.0291442,
  "ScanOptions": "FS",
  "ScanningSequence": "EP",
  "SequenceName": "epfid2d1_104",
  "SequenceVariant": "SK_SS",
  "SeriesDescription": "func_task-social_run-2",
  "SeriesNumber": 33,
  "ShimSetting": [632, -7251, -8849, 616, 11, -208, -122, -10],
  "SliceThickness": 2,
  "SliceTiming": [0, 0.7825, 0.0975, 0.8825, 0.195, 0.98, 0.2925, 1.0775, 0.3925, 1.175, 0.49, 1.2725, 0.5875, 1.3725, 0.685, 0, 0.7825, 0.0975, 0.8825, 0.195, 0.98, 0.2925, 1.0775, 0.3925, 1.175, 0.49, 1.2725, 0.5875, 1.3725, 0.685, 0, 0.7825, 0.0975, 0.8825, 0.195, 0.98, 0.2925, 1.0775, 0.3925, 1.175, 0.49, 1.2725, 0.5875, 1.3725, 0.685, 0, 0.7825, 0.0975, 0.8825, 0.195, 0.98, 0.2925, 1.0775, 0.3925, 1.175, 0.49, 1.2725, 0.5875, 1.3725, 0.685],
  "SoftwareVersions": "syngo_MR_E11",
  "SpacingBetweenSlices": 2,
  "StationName": "MRC35049",
  "TaskName": "social",
  "TotalReadoutTime": 0.0576811,
  "TxRefAmp": 218.043,
  "WipMemBlock": "844192f8-b4ba-4748-89c1-c2bab9b42e1e||Sequence: R016 ve11c/master r/e634e98; Dec 19 2017 11:00:25 by eja",
  "dcmmeta_affine": [
    [-1.9991093873977661, 0.05968131870031357, -7.125393312890083e-05, 103.35945129394531],
    [0.05599771812558174, 1.874893307685852, -0.6940022110939026, -67.03411102294922],
    [0.020642688497900963, 0.6936951875686646, 1.8757294416427612, -70.92921447753906],
    [0.0, 0.0, 0.0, 1.0]
],
  "dcmmeta_reorient_transform": [
    [0.0, -1.0, 0.0, 103.0],
    [1.0, 0.0, 0.0, 0.0],
    [0.0, 0.0, 1.0, 0.0],
    [0.0, 0.0, 0.0, 1.0]
],
  "dcmmeta_shape": [104, 104, 60, 139],
  "dcmmeta_slice_dim": 2,
  "dcmmeta_version": 0.6,
  "global": {
    "const": {
      "AcquisitionMatrix": [104, 0, 0, 104],
      "AngioFlag": "N",
      "BitsAllocated": 16,
      "BitsStored": 16,
      "BodyPartExamined": "BRAIN",
      "Columns": 832,
      "EchoNumbers": 1,
      "EchoTime": 37.0,
      "EchoTrainLength": 104,
      "FlipAngle": 52.0,
      "HighBit": 15,
      "ImageOrientationPatient": [0.99955466772895, -0.0279988585376, 0.01032134399501, 0.02984065937595, 0.93744668281497, -0.3468475917852],
      "ImagePositionPatient": [-858.90642153353, -788.15792332537, 245.51250127794],
      "ImageType": [
        "ORIGINAL",
        "PRIMARY",
        "M",
        "MB",
        "ND",
        "MOSAIC"
],
      "ImagedNucleus": "1H",
      "ImagingFrequency": 123.259402,
      "InPlanePhaseEncodingDirection": "COL",
      "MRAcquisitionType": "2D",
      "MagneticFieldStrength": 3.0,
      "Manufacturer": "SIEMENS",
      "ManufacturerModelName": "Prisma_fit",
      "Modality": "MR",
      "NumberOfAverages": 1.0,
      "NumberOfPhaseEncodingSteps": 104,
      "PercentPhaseFieldOfView": 100.0,
      "PercentSampling": 100.0,
      "PerformedProcedureStepStartTime": "142210.086000",
      "PhotometricInterpretation": "MONOCHROME2",
      "PixelBandwidth": 2290.0,
      "PixelRepresentation": 0,
      "PixelSpacing": [2.0, 2.0],
      "ProtocolName": "func_task-social_run-2",
      "RepetitionTime": 1490.0,
      "Rows": 832,
      "SAR": 0.02914418593363,
      "SamplesPerPixel": 1,
      "ScanOptions": "FS",
      "ScanningSequence": "EP",
      "SequenceName": "epfid2d1_104",
      "SequenceVariant": [
        "SK",
        "SS"
],
      "SeriesDescription": "func_task-social_run-2",
      "SeriesNumber": 33,
      "SeriesTime": "153323.471000",
      "SliceLocation": -43.264775064295,
      "SliceThickness": 2.0,
      "SmallestImagePixelValue": 0,
      "SoftwareVersions": "syngo MR E11",
      "SpacingBetweenSlices": 1.9999999610996,
      "SpecificCharacterSet": "ISO_IR 100",
      "StudyID": "1",
      "StudyTime": "142209.924000",
      "TransmitCoilName": "Body",
      "VariableFlipAngleFlag": "N",
      "WindowCenterWidthExplanation": "Algo1",
      "dBdt": 0.0},
    "slices": {}
  },
  "time": {
    "samples": {
      "AcquisitionNumber": [1, 2, 3, 4, 5, 6, 7, 8, 9, 10, 11, 12, 13, 14, 15, 16, 17, 18, 19, 20, 21, 22, 23, 24, 25, 26, 27, 28, 29, 30, 31, 32, 33, 34, 35, 36, 37, 38, 39, 40, 41, 42, 43, 44, 45, 46, 47, 48, 49, 50, 51, 52, 53, 54, 55, 56, 57, 58, 59, 60, 61, 62, 63, 64, 65, 66, 67, 68, 69, 70, 71, 72, 73, 74, 75, 76, 77, 78, 79, 80, 81, 82, 83, 84, 85, 86, 87, 88, 89, 90, 91, 92, 93, 94, 95, 96, 97, 98, 99, 100, 101, 102, 103, 104, 105, 106, 107, 108, 109, 110, 111, 112, 113, 114, 115, 116, 117, 118, 119, 120, 121, 122, 123, 124, 125, 126, 127, 128, 129, 130, 131, 132, 133, 134, 135, 136, 137, 138, 139],
      "AcquisitionTime": ["153156.437500", "153157.927500", "153159.417500", "153200.907500", "153202.397500", "153203.887500", "153205.377500", "153206.867500", "153208.357500", "153209.847500", "153211.337500", "153212.827500", "153214.317500", "153215.807500", "153217.297500", "153218.787500", "153220.277500", "153221.767500", "153223.257500", "153224.747500", "153226.237500", "153227.727500", "153229.217500", "153230.707500", "153232.197500", "153233.687500", "153235.177500", "153236.667500", "153238.157500", "153239.647500", "153241.137500", "153242.627500", "153244.117500", "153245.607500", "153247.097500", "153248.587500", "153250.077500", "153251.567500", "153253.057500", "153254.547500", "153256.037500", "153257.527500", "153259.017500", "153300.507500", "153301.997500", "153303.487500", "153304.977500", "153306.467500", "153307.957500", "153309.447500", "153310.937500", "153312.427500", "153313.917500", "153315.407500", "153316.897500", "153318.387500", "153319.877500", "153321.367500", "153322.857500", "153324.347500", "153325.837500", "153327.327500", "153328.817500", "153330.307500", "153331.797500", "153333.287500", "153334.777500", "153336.267500", "153337.757500", "153339.247500", "153340.737500", "153342.227500", "153343.717500", "153345.207500", "153346.697500", "153348.187500", "153349.677500", "153351.167500", "153352.657500", "153354.147500", "153355.637500", "153357.127500", "153358.617500", "153400.107500", "153401.597500", "153403.087500", "153404.577500", "153406.067500", "153407.557500", "153409.047500", "153410.537500", "153412.027500", "153413.517500", "153415.007500", "153416.497500", "153417.987500", "153419.477500", "153420.967500", "153422.457500", "153423.947500", "153425.437500", "153426.927500", "153428.417500", "153429.907500", "153431.397500", "153432.887500", "153434.377500", "153435.867500", "153437.357500", "153438.847500", "153440.337500", "153441.827500", "153443.317500", "153444.807500", "153446.297500", "153447.787500", "153449.277500", "153450.767500", "153452.257500", "153453.747500", "153455.237500", "153456.727500", "153458.217500", "153459.707500", "153501.197500", "153502.687500", "153504.177500", "153505.667500", "153507.157500", "153508.647500", "153510.137500", "153511.627500", "153513.117500", "153514.607500", "153516.097500", "153517.587500", "153519.077500", "153520.567500", "153522.057500"],
      "ContentTime": ["153323.473000", "153323.477000", "153323.479000", "153323.482000", "153323.485000", "153323.488000", "153323.491000", "153323.494000", "153323.497000", "153323.499000", "153323.502000", "153323.505000", "153323.508000", "153323.511000", "153323.514000", "153323.516000", "153323.519000", "153323.522000", "153323.525000", "153323.528000", "153323.531000", "153323.533000", "153323.536000", "153323.539000", "153323.542000", "153323.545000", "153323.548000", "153323.550000", "153323.553000", "153323.556000", "153323.559000", "153323.570000", "153343.434000", "153343.437000", "153343.440000", "153343.453000", "153343.455000", "153343.458000", "153343.461000", "153343.464000", "153343.467000", "153343.470000", "153343.472000", "153343.475000", "153343.478000", "153343.481000", "153343.484000", "153343.492000", "153343.495000", "153343.497000", "153343.500000", "153343.503000", "153403.434000", "153403.437000", "153403.440000", "153403.443000", "153403.445000", "153403.448000", "153403.451000", "153403.458000", "153403.461000", "153403.464000", "153403.467000", "153403.469000", "153403.472000", "153403.475000", "153403.478000", "153403.481000", "153403.484000", "153403.487000", "153403.489000", "153403.492000", "153403.495000", "153423.434000", "153423.437000", "153423.439000", "153423.442000", "153423.450000", "153423.453000", "153423.456000", "153423.459000", "153423.462000", "153423.465000", "153423.468000", "153423.470000", "153423.473000", "153423.476000", "153423.479000", "153423.482000", "153423.485000", "153423.487000", "153423.490000", "153423.493000", "153503.434000", "153503.437000", "153503.440000", "153503.443000", "153503.446000", "153503.448000", "153503.451000", "153503.454000", "153503.457000", "153503.460000", "153503.463000", "153503.465000", "153503.468000", "153503.471000", "153503.474000", "153503.477000", "153503.480000", "153503.482000", "153503.485000", "153503.488000", "153503.491000", "153503.494000", "153503.497000", "153503.499000", "153503.502000", "153503.505000", "153503.508000", "153503.511000", "153503.514000", "153503.517000", "153503.519000", "153503.522000", "153524.133000", "153524.136000", "153524.142000", "153524.144000", "153524.148000", "153524.150000", "153524.153000", "153524.156000", "153524.159000", "153524.162000", "153524.165000", "153524.167000", "153524.170000", "153524.173000"],
      "InstanceCreationTime": ["153323.473000", "153323.477000", "153323.479000", "153323.482000", "153323.485000", "153323.488000", "153323.491000", "153323.494000", "153323.497000", "153323.499000", "153323.502000", "153323.505000", "153323.508000", "153323.511000", "153323.514000", "153323.516000", "153323.519000", "153323.522000", "153323.525000", "153323.528000", "153323.531000", "153323.533000", "153323.536000", "153323.539000", "153323.542000", "153323.545000", "153323.548000", "153323.550000", "153323.553000", "153323.556000", "153323.559000", "153323.570000", "153343.434000", "153343.437000", "153343.440000", "153343.453000", "153343.455000", "153343.458000", "153343.461000", "153343.464000", "153343.467000", "153343.470000", "153343.472000", "153343.475000", "153343.478000", "153343.481000", "153343.484000", "153343.492000", "153343.495000", "153343.497000", "153343.500000", "153343.503000", "153403.434000", "153403.437000", "153403.440000", "153403.443000", "153403.445000", "153403.448000", "153403.451000", "153403.458000", "153403.461000", "153403.464000", "153403.467000", "153403.469000", "153403.472000", "153403.475000", "153403.478000", "153403.481000", "153403.484000", "153403.487000", "153403.489000", "153403.492000", "153403.495000", "153423.434000", "153423.437000", "153423.439000", "153423.442000", "153423.450000", "153423.453000", "153423.456000", "153423.459000", "153423.462000", "153423.465000", "153423.468000", "153423.470000", "153423.473000", "153423.476000", "153423.479000", "153423.482000", "153423.485000", "153423.487000", "153423.490000", "153423.493000", "153503.434000", "153503.437000", "153503.440000", "153503.443000", "153503.446000", "153503.448000", "153503.451000", "153503.454000", "153503.457000", "153503.460000", "153503.463000", "153503.465000", "153503.468000", "153503.471000", "153503.474000", "153503.477000", "153503.480000", "153503.482000", "153503.485000", "153503.488000", "153503.491000", "153503.494000", "153503.497000", "153503.499000", "153503.502000", "153503.505000", "153503.508000", "153503.511000", "153503.514000", "153503.517000", "153503.519000", "153503.522000", "153524.133000", "153524.136000", "153524.142000", "153524.144000", "153524.148000", "153524.150000", "153524.153000", "153524.156000", "153524.159000", "153524.162000", "153524.165000", "153524.167000", "153524.170000", "153524.173000"],
      "InstanceNumber": [1, 2, 3, 4, 5, 6, 7, 8, 9, 10, 11, 12, 13, 14, 15, 16, 17, 18, 19, 20, 21, 22, 23, 24, 25, 26, 27, 28, 29, 30, 31, 32, 33, 34, 35, 36, 37, 38, 39, 40, 41, 42, 43, 44, 45, 46, 47, 48, 49, 50, 51, 52, 53, 54, 55, 56, 57, 58, 59, 60, 61, 62, 63, 64, 65, 66, 67, 68, 69, 70, 71, 72, 73, 74, 75, 76, 77, 78, 79, 80, 81, 82, 83, 84, 85, 86, 87, 88, 89, 90, 91, 92, 93, 94, 95, 96, 97, 98, 99, 100, 101, 102, 103, 104, 105, 106, 107, 108, 109, 110, 111, 112, 113, 114, 115, 116, 117, 118, 119, 120, 121, 122, 123, 124, 125, 126, 127, 128, 129, 130, 131, 132, 133, 134, 135, 136, 137, 138, 139],
      "LargestImagePixelValue": [42293, 40893, 39968, 39959, 40134, 39589, 38825, 38783, 39844, 38762, 37153, 37833, 38501, 38295, 39089, 38971, 39098, 39707, 38599, 38475, 38467, 38249, 39218, 37935, 37717, 38338, 38164, 38035, 39247, 38170, 38349, 38843, 38463, 38386, 38042, 39071, 37719, 38531, 38943, 37605, 39166, 38376, 38313, 38523, 37672, 38442, 39100, 37346, 38033, 38636, 37579, 38459, 38107, 38189, 38519, 38553, 38878, 38918, 38437, 37917, 38512, 39248, 38422, 38993, 39465, 38595, 39275, 39029, 39077, 39024, 38696, 39864, 39310, 37520, 37755, 38130, 37869, 39092, 39015, 39719, 39414, 38857, 39533, 39450, 37548, 38143, 38298, 38341, 39083, 38592, 39671, 38551, 39384, 39536, 38377, 39050, 39215, 37966, 38251, 39750, 38601, 38387, 39309, 39673, 37835, 38223, 39350, 38559, 39107, 39148, 39095, 38877, 40071, 39547, 39311, 39165, 39478, 39238, 39171, 39494, 39268, 39577, 39824, 38322, 39281, 39095, 38930, 39814, 38983, 39248, 39587, 38981, 39063, 39085, 39075, 39691, 38593, 38281, 38774],
      "WindowCenter": [10074.0, 10021.0, 9960.0, 9920.0, 9912.0, 9918.0, 9942.0, 9961.0, 9972.0, 9947.0, 9922.0, 9923.0, 9917.0, 9917.0, 9937.0, 9942.0, 9956.0, 9947.0, 9933.0, 9927.0, 9933.0, 9934.0, 9957.0, 9944.0, 9929.0, 9918.0, 9903.0, 9911.0, 9926.0, 9927.0, 9936.0, 9919.0, 9909.0, 9907.0, 9917.0, 9932.0, 9929.0, 9925.0, 9922.0, 9917.0, 9938.0, 9939.0, 9933.0, 9924.0, 9896.0, 9898.0, 9903.0, 9909.0, 9918.0, 9906.0, 9878.0, 9873.0, 9873.0, 9884.0, 9907.0, 9901.0, 9898.0, 9881.0, 9880.0, 9876.0, 9895.0, 9917.0, 9922.0, 9930.0, 9926.0, 9916.0, 9927.0, 9929.0, 9920.0, 9912.0, 9911.0, 9925.0, 9934.0, 9921.0, 9903.0, 9879.0, 9860.0, 9862.0, 9869.0, 9892.0, 9904.0, 9900.0, 9904.0, 9895.0, 9887.0, 9899.0, 9892.0, 9875.0, 9878.0, 9885.0, 9907.0, 9906.0, 9918.0, 9918.0, 9914.0, 9914.0, 9909.0, 9900.0, 9908.0, 9913.0, 9892.0, 9886.0, 9889.0, 9902.0, 9915.0, 9913.0, 9906.0, 9877.0, 9870.0, 9863.0, 9877.0, 9897.0, 9910.0, 9919.0, 9930.0, 9928.0, 9925.0, 9924.0, 9932.0, 9958.0, 9959.0, 9943.0, 9925.0, 9912.0, 9923.0, 9918.0, 9912.0, 9923.0, 9935.0, 9944.0, 9935.0, 9912.0, 9903.0, 9901.0, 9907.0, 9947.0, 9970.0, 9952.0, 9926.0],
      "WindowWidth": [21621.0, 21471.0, 21316.0, 21214.0, 21194.0, 21200.0, 21249.0, 21292.0, 21310.0, 21262.0, 21215.0, 21210.0, 21193.0, 21193.0, 21234.0, 21247.0, 21274.0, 21254.0, 21226.0, 21215.0, 21227.0, 21233.0, 21277.0, 21252.0, 21221.0, 21195.0, 21161.0, 21182.0, 21206.0, 21216.0, 21235.0, 21198.0, 21175.0, 21171.0, 21193.0, 21223.0, 21222.0, 21212.0, 21201.0, 21196.0, 21235.0, 21239.0, 21227.0, 21206.0, 21151.0, 21151.0, 21155.0, 21176.0, 21193.0, 21167.0, 21107.0, 21094.0, 21095.0, 21121.0, 21169.0, 21157.0, 21146.0, 21110.0, 21109.0, 21103.0, 21142.0, 21187.0, 21204.0, 21220.0, 21207.0, 21190.0, 21211.0, 21215.0, 21196.0, 21178.0, 21177.0, 21203.0, 21224.0, 21207.0, 21166.0, 21113.0, 21069.0, 21068.0, 21084.0, 21133.0, 21160.0, 21155.0, 21159.0, 21140.0, 21130.0, 21154.0, 21136.0, 21102.0, 21101.0, 21117.0, 21161.0, 21165.0, 21187.0, 21186.0, 21182.0, 21181.0, 21166.0, 21155.0, 21171.0, 21179.0, 21136.0, 21121.0, 21125.0, 21152.0, 21192.0, 21189.0, 21166.0, 21106.0, 21085.0, 21070.0, 21097.0, 21143.0, 21169.0, 21189.0, 21215.0, 21212.0, 21200.0, 21198.0, 21219.0, 21273.0, 21275.0, 21241.0, 21200.0, 21175.0, 21196.0, 21188.0, 21176.0, 21196.0, 21224.0, 21246.0, 21221.0, 21175.0, 21159.0, 21152.0, 21167.0, 21250.0, 21307.0, 21270.0, 21213.0]
    },
    "slices": {}
  }
}