{
  "AcquisitionMatrixPE": 104,
  "AcquisitionNumber": 1,
  "AcquisitionTime": "15:00:44.730000",
  "BandwidthPerPixelPhaseEncode": 17.17,
  "BaseResolution": 104,
  "BodyPartExamined": "BRAIN",
  "CoilString": "HC1-7;NC1_2",
  "ConsistencyInfo": "N4_VE11C_LATEST_20160120",
  "ConversionSoftware": "dcm2niix",
  "ConversionSoftwareVersion": "v1.0.20200427",
  "DerivedVendorReportedEchoSpacing": 0.000560011,
  "DeviceSerialNumber": "167006",
  "DwellTime": 2.1e-06,
  "EchoTime": 0.037,
  "EchoTrainLength": 104,
  "EffectiveEchoSpacing": 0.000560011,
  "FlipAngle": 52,
  "ImageComments": "Unaliased_MB4_PE3_LB",
  "ImageOrientationPatientDICOM": [0.999555, -0.0279989, 0.0103213, 0.0298407, 0.937447, -0.346848],
  "ImageType": [
    "ORIGINAL",
    "PRIMARY",
    "M",
    "MB",
    "ND",
    "MOSAIC"
],
  "ImagingFrequency": 123.259,
  "InPlanePhaseEncodingDirectionDICOM": "COL",
  "InstitutionAddress": "Chemin_Queen-Mary_4565_Montreal_District_CA_H3W_1W5",
  "InstitutionName": "IUGM",
  "InstitutionalDepartmentName": "Department",
  "MRAcquisitionType": "2D",
  "MagneticFieldStrength": 3,
  "Manufacturer": "Siemens",
  "ManufacturersModelName": "Prisma_fit",
  "Modality": "MR",
  "MultibandAccelerationFactor": 4,
  "PartialFourier": 1,
  "PatientPosition": "HFS",
  "PercentPhaseFOV": 100,
  "PercentSampling": 100,
  "PhaseEncodingDirection": "j",
  "PhaseEncodingSteps": 104,
  "PhaseResolution": 1,
  "PixelBandwidth": 2290,
  "ProcedureStepDescription": "hcptrt_generic",
  "ProtocolName": "func_task-social_run-1",
  "PulseSequenceDetails": "%CustomerSeq%_cmrr_mbep2d_bold",
  "ReceiveCoilActiveElements": "HC1-7;NC1,2",
  "ReceiveCoilName": "HeadNeck_64",
  "ReconMatrixPE": 104,
  "RepetitionTime": 1.49,
  "SAR": 0.0291442,
  "ScanOptions": "FS",
  "ScanningSequence": "EP",
  "SequenceName": "epfid2d1_104",
  "SequenceVariant": "SK_SS",
  "SeriesDescription": "func_task-social_run-1",
  "SeriesNumber": 17,
  "ShimSetting": [632, -7251, -8849, 616, 11, -208, -122, -10],
  "SliceThickness": 2,
  "SliceTiming": [0, 0.7825, 0.0975, 0.8825, 0.195, 0.98, 0.2925, 1.0775, 0.3925, 1.175, 0.49, 1.2725, 0.5875, 1.3725, 0.685, 0, 0.7825, 0.0975, 0.8825, 0.195, 0.98, 0.2925, 1.0775, 0.3925, 1.175, 0.49, 1.2725, 0.5875, 1.3725, 0.685, 0, 0.7825, 0.0975, 0.8825, 0.195, 0.98, 0.2925, 1.0775, 0.3925, 1.175, 0.49, 1.2725, 0.5875, 1.3725, 0.685, 0, 0.7825, 0.0975, 0.8825, 0.195, 0.98, 0.2925, 1.0775, 0.3925, 1.175, 0.49, 1.2725, 0.5875, 1.3725, 0.685],
  "SoftwareVersions": "syngo_MR_E11",
  "SpacingBetweenSlices": 2,
  "StationName": "MRC35049",
  "TaskName": "social",
  "TotalReadoutTime": 0.0576811,
  "TxRefAmp": 218.043,
  "WipMemBlock": "88562d28-4ab8-405f-9276-a6dcb13deec0||Sequence: R016 ve11c/master r/e634e98; Dec 19 2017 11:00:25 by eja",
  "dcmmeta_affine": [
    [-1.9991093873977661, 0.05968131870031357, -7.125393312890083e-05, 103.35945129394531],
    [0.05599771812558174, 1.874893307685852, -0.6940022110939026, -67.03411102294922],
    [0.020642688497900963, 0.6936951875686646, 1.8757294416427612, -70.92921447753906],
    [0.0, 0.0, 0.0, 1.0]
],
  "dcmmeta_reorient_transform": [
    [0.0, -1.0, 0.0, 103.0],
    [1.0, 0.0, 0.0, 0.0],
    [0.0, 0.0, 1.0, 0.0],
    [0.0, 0.0, 0.0, 1.0]
],
  "dcmmeta_shape": [104, 104, 60, 139],
  "dcmmeta_slice_dim": 2,
  "dcmmeta_version": 0.6,
  "global": {
    "const": {
      "AcquisitionMatrix": [104, 0, 0, 104],
      "AngioFlag": "N",
      "BitsAllocated": 16,
      "BitsStored": 16,
      "BodyPartExamined": "BRAIN",
      "Columns": 832,
      "EchoNumbers": 1,
      "EchoTime": 37.0,
      "EchoTrainLength": 104,
      "FlipAngle": 52.0,
      "HighBit": 15,
      "ImageOrientationPatient": [0.99955466772895, -0.0279988585376, 0.01032134399501, 0.02984065937595, 0.93744668281497, -0.3468475917852],
      "ImagePositionPatient": [-858.90642153353, -788.15792332537, 245.51250127794],
      "ImageType": [
        "ORIGINAL",
        "PRIMARY",
        "M",
        "MB",
        "ND",
        "MOSAIC"
],
      "ImagedNucleus": "1H",
      "ImagingFrequency": 123.259387,
      "InPlanePhaseEncodingDirection": "COL",
      "MRAcquisitionType": "2D",
      "MagneticFieldStrength": 3.0,
      "Manufacturer": "SIEMENS",
      "ManufacturerModelName": "Prisma_fit",
      "Modality": "MR",
      "NumberOfAverages": 1.0,
      "NumberOfPhaseEncodingSteps": 104,
      "PercentPhaseFieldOfView": 100.0,
      "PercentSampling": 100.0,
      "PerformedProcedureStepStartTime": "142210.086000",
      "PhotometricInterpretation": "MONOCHROME2",
      "PixelBandwidth": 2290.0,
      "PixelRepresentation": 0,
      "PixelSpacing": [2.0, 2.0],
      "ProtocolName": "func_task-social_run-1",
      "RepetitionTime": 1490.0,
      "Rows": 832,
      "SAR": 0.02914418593363,
      "SamplesPerPixel": 1,
      "ScanOptions": "FS",
      "ScanningSequence": "EP",
      "SequenceName": "epfid2d1_104",
      "SequenceVariant": [
        "SK",
        "SS"
],
      "SeriesDescription": "func_task-social_run-1",
      "SeriesNumber": 17,
      "SeriesTime": "150202.611000",
      "SliceLocation": -43.264775064295,
      "SliceThickness": 2.0,
      "SmallestImagePixelValue": 0,
      "SoftwareVersions": "syngo MR E11",
      "SpacingBetweenSlices": 1.9999999610996,
      "SpecificCharacterSet": "ISO_IR 100",
      "StudyID": "1",
      "StudyTime": "142209.924000",
      "TransmitCoilName": "Body",
      "VariableFlipAngleFlag": "N",
      "WindowCenterWidthExplanation": "Algo1",
      "dBdt": 0.0},
    "slices": {}
  },
  "time": {
    "samples": {
      "AcquisitionNumber": [1, 2, 3, 4, 5, 6, 7, 8, 9, 10, 11, 12, 13, 14, 15, 16, 17, 18, 19, 20, 21, 22, 23, 24, 25, 26, 27, 28, 29, 30, 31, 32, 33, 34, 35, 36, 37, 38, 39, 40, 41, 42, 43, 44, 45, 46, 47, 48, 49, 50, 51, 52, 53, 54, 55, 56, 57, 58, 59, 60, 61, 62, 63, 64, 65, 66, 67, 68, 69, 70, 71, 72, 73, 74, 75, 76, 77, 78, 79, 80, 81, 82, 83, 84, 85, 86, 87, 88, 89, 90, 91, 92, 93, 94, 95, 96, 97, 98, 99, 100, 101, 102, 103, 104, 105, 106, 107, 108, 109, 110, 111, 112, 113, 114, 115, 116, 117, 118, 119, 120, 121, 122, 123, 124, 125, 126, 127, 128, 129, 130, 131, 132, 133, 134, 135, 136, 137, 138, 139],
      "AcquisitionTime": ["150044.730000", "150046.220000", "150047.710000", "150049.200000", "150050.690000", "150052.180000", "150053.670000", "150055.160000", "150056.650000", "150058.140000", "150059.630000", "150101.120000", "150102.610000", "150104.100000", "150105.590000", "150107.080000", "150108.570000", "150110.060000", "150111.550000", "150113.040000", "150114.530000", "150116.020000", "150117.510000", "150119.000000", "150120.490000", "150121.980000", "150123.470000", "150124.960000", "150126.450000", "150127.940000", "150129.430000", "150130.920000", "150132.410000", "150133.900000", "150135.390000", "150136.880000", "150138.370000", "150139.860000", "150141.350000", "150142.840000", "150144.330000", "150145.820000", "150147.310000", "150148.800000", "150150.290000", "150151.780000", "150153.270000", "150154.760000", "150156.250000", "150157.740000", "150159.230000", "150200.720000", "150202.210000", "150203.700000", "150205.190000", "150206.680000", "150208.170000", "150209.660000", "150211.150000", "150212.640000", "150214.130000", "150215.620000", "150217.110000", "150218.600000", "150220.090000", "150221.580000", "150223.070000", "150224.560000", "150226.050000", "150227.540000", "150229.030000", "150230.520000", "150232.010000", "150233.500000", "150234.990000", "150236.480000", "150237.970000", "150239.460000", "150240.950000", "150242.440000", "150243.930000", "150245.420000", "150246.910000", "150248.400000", "150249.890000", "150251.380000", "150252.870000", "150254.360000", "150255.850000", "150257.340000", "150258.830000", "150300.320000", "150301.810000", "150303.300000", "150304.790000", "150306.280000", "150307.770000", "150309.260000", "150310.750000", "150312.240000", "150313.730000", "150315.220000", "150316.710000", "150318.200000", "150319.690000", "150321.180000", "150322.670000", "150324.160000", "150325.650000", "150327.140000", "150328.630000", "150330.120000", "150331.610000", "150333.100000", "150334.590000", "150336.080000", "150337.570000", "150339.060000", "150340.550000", "150342.040000", "150343.530000", "150345.020000", "150346.510000", "150348.000000", "150349.490000", "150350.980000", "150352.470000", "150353.960000", "150355.450000", "150356.940000", "150358.430000", "150359.920000", "150401.410000", "150402.900000", "150404.390000", "150405.880000", "150407.370000", "150408.860000", "150410.350000"],
      "ContentTime": ["150202.614000", "150202.618000", "150202.621000", "150202.623000", "150202.626000", "150202.629000", "150202.632000", "150202.635000", "150202.638000", "150202.640000", "150202.643000", "150202.646000", "150202.649000", "150202.652000", "150202.655000", "150202.657000", "150202.660000", "150202.663000", "150202.666000", "150202.669000", "150202.672000", "150202.674000", "150202.677000", "150202.680000", "150222.583000", "150222.586000", "150222.589000", "150222.592000", "150222.595000", "150222.597000", "150222.600000", "150222.603000", "150222.606000", "150222.609000", "150222.611000", "150222.614000", "150222.617000", "150222.620000", "150222.623000", "150222.626000", "150222.629000", "150222.633000", "150222.636000", "150222.639000", "150242.583000", "150242.586000", "150242.589000", "150242.592000", "150242.594000", "150242.597000", "150242.600000", "150242.603000", "150242.606000", "150242.609000", "150242.611000", "150242.614000", "150242.617000", "150242.620000", "150242.623000", "150242.626000", "150242.628000", "150242.631000", "150242.634000", "150242.637000", "150302.583000", "150302.586000", "150302.589000", "150302.592000", "150302.594000", "150302.597000", "150302.600000", "150302.603000", "150302.606000", "150302.609000", "150302.612000", "150302.614000", "150302.617000", "150302.620000", "150302.623000", "150302.626000", "150302.629000", "150302.632000", "150302.634000", "150302.637000", "150322.583000", "150322.586000", "150322.589000", "150322.592000", "150322.594000", "150322.597000", "150322.600000", "150322.603000", "150322.606000", "150322.609000", "150322.612000", "150322.615000", "150322.618000", "150322.621000", "150322.624000", "150322.627000", "150322.629000", "150322.632000", "150322.635000", "150322.638000", "150402.583000", "150402.586000", "150402.589000", "150402.592000", "150402.594000", "150402.597000", "150402.600000", "150402.603000", "150402.606000", "150402.609000", "150402.612000", "150402.614000", "150402.617000", "150402.620000", "150402.623000", "150402.626000", "150402.629000", "150402.632000", "150402.634000", "150402.637000", "150402.640000", "150402.643000", "150402.646000", "150402.648000", "150402.651000", "150402.654000", "150402.657000", "150402.660000", "150412.258000", "150412.261000", "150412.264000", "150412.267000", "150412.270000", "150412.273000", "150412.276000"],
      "InstanceCreationTime": ["150202.614000", "150202.618000", "150202.621000", "150202.623000", "150202.626000", "150202.629000", "150202.632000", "150202.635000", "150202.638000", "150202.640000", "150202.643000", "150202.646000", "150202.649000", "150202.652000", "150202.655000", "150202.657000", "150202.660000", "150202.663000", "150202.666000", "150202.669000", "150202.672000", "150202.674000", "150202.677000", "150202.680000", "150222.583000", "150222.586000", "150222.589000", "150222.592000", "150222.595000", "150222.597000", "150222.600000", "150222.603000", "150222.606000", "150222.609000", "150222.611000", "150222.614000", "150222.617000", "150222.620000", "150222.623000", "150222.626000", "150222.629000", "150222.633000", "150222.636000", "150222.639000", "150242.583000", "150242.586000", "150242.589000", "150242.592000", "150242.594000", "150242.597000", "150242.600000", "150242.603000", "150242.606000", "150242.609000", "150242.611000", "150242.614000", "150242.617000", "150242.620000", "150242.623000", "150242.626000", "150242.628000", "150242.631000", "150242.634000", "150242.637000", "150302.583000", "150302.586000", "150302.589000", "150302.592000", "150302.594000", "150302.597000", "150302.600000", "150302.603000", "150302.606000", "150302.609000", "150302.612000", "150302.614000", "150302.617000", "150302.620000", "150302.623000", "150302.626000", "150302.629000", "150302.632000", "150302.634000", "150302.637000", "150322.583000", "150322.586000", "150322.589000", "150322.592000", "150322.594000", "150322.597000", "150322.600000", "150322.603000", "150322.606000", "150322.609000", "150322.612000", "150322.615000", "150322.618000", "150322.621000", "150322.624000", "150322.627000", "150322.629000", "150322.632000", "150322.635000", "150322.638000", "150402.583000", "150402.586000", "150402.589000", "150402.592000", "150402.594000", "150402.597000", "150402.600000", "150402.603000", "150402.606000", "150402.609000", "150402.612000", "150402.614000", "150402.617000", "150402.620000", "150402.623000", "150402.626000", "150402.629000", "150402.632000", "150402.634000", "150402.637000", "150402.640000", "150402.643000", "150402.646000", "150402.648000", "150402.651000", "150402.654000", "150402.657000", "150402.660000", "150412.258000", "150412.261000", "150412.264000", "150412.267000", "150412.270000", "150412.273000", "150412.276000"],
      "InstanceNumber": [1, 2, 3, 4, 5, 6, 7, 8, 9, 10, 11, 12, 13, 14, 15, 16, 17, 18, 19, 20, 21, 22, 23, 24, 25, 26, 27, 28, 29, 30, 31, 32, 33, 34, 35, 36, 37, 38, 39, 40, 41, 42, 43, 44, 45, 46, 47, 48, 49, 50, 51, 52, 53, 54, 55, 56, 57, 58, 59, 60, 61, 62, 63, 64, 65, 66, 67, 68, 69, 70, 71, 72, 73, 74, 75, 76, 77, 78, 79, 80, 81, 82, 83, 84, 85, 86, 87, 88, 89, 90, 91, 92, 93, 94, 95, 96, 97, 98, 99, 100, 101, 102, 103, 104, 105, 106, 107, 108, 109, 110, 111, 112, 113, 114, 115, 116, 117, 118, 119, 120, 121, 122, 123, 124, 125, 126, 127, 128, 129, 130, 131, 132, 133, 134, 135, 136, 137, 138, 139],
      "LargestImagePixelValue": [43029, 41381, 40895, 41312, 39833, 40860, 41213, 40225, 40961, 39859, 40964, 40142, 40234, 41249, 39813, 40896, 40155, 39857, 40284, 39633, 41041, 40096, 40270, 40909, 39857, 39903, 41212, 41428, 40473, 40494, 39556, 40110, 39685, 39722, 40442, 39936, 41042, 40032, 40503, 40436, 39563, 40069, 39577, 39696, 39968, 39286, 39773, 39931, 39343, 40191, 39883, 40050, 40367, 39114, 39973, 40279, 39707, 40258, 39984, 39744, 39862, 39357, 40452, 39813, 39437, 39897, 39242, 39518, 39782, 39292, 39430, 39093, 39437, 40430, 39462, 40248, 39368, 39609, 39420, 40031, 39581, 39373, 39905, 40159, 39407, 39392, 39162, 38815, 39287, 39233, 39562, 39427, 39669, 39437, 39757, 39778, 39623, 39591, 39380, 39878, 39776, 39892, 39698, 39537, 39665, 39550, 39289, 39339, 39424, 39314, 38949, 39661, 39232, 39440, 39072, 39412, 39588, 39126, 39546, 39748, 39224, 39314, 39390, 39663, 38936, 39664, 39473, 39475, 39798, 39840, 39388, 39672, 39188, 39777, 39063, 39150, 39450, 38715, 38758],
      "WindowCenter": [10229.0, 10175.0, 10146.0, 10131.0, 10108.0, 10109.0, 10120.0, 10118.0, 10140.0, 10153.0, 10159.0, 10140.0, 10134.0, 10138.0, 10127.0, 10146.0, 10146.0, 10147.0, 10138.0, 10126.0, 10130.0, 10134.0, 10149.0, 10156.0, 10146.0, 10144.0, 10158.0, 10128.0, 10096.0, 10077.0, 10068.0, 10090.0, 10095.0, 10098.0, 10094.0, 10087.0, 10088.0, 10084.0, 10096.0, 10109.0, 10112.0, 10112.0, 10112.0, 10113.0, 10120.0, 10125.0, 10130.0, 10146.0, 10141.0, 10139.0, 10125.0, 10114.0, 10118.0, 10109.0, 10121.0, 10120.0, 10106.0, 10103.0, 10105.0, 10105.0, 10105.0, 10104.0, 10102.0, 10104.0, 10105.0, 10105.0, 10098.0, 10091.0, 10089.0, 10098.0, 10116.0, 10133.0, 10148.0, 10154.0, 10121.0, 10106.0, 10090.0, 10088.0, 10100.0, 10122.0, 10117.0, 10097.0, 10097.0, 10095.0, 10105.0, 10115.0, 10109.0, 10102.0, 10099.0, 10105.0, 10112.0, 10117.0, 10128.0, 10118.0, 10121.0, 10106.0, 10105.0, 10105.0, 10122.0, 10127.0, 10129.0, 10133.0, 10116.0, 10092.0, 10081.0, 10080.0, 10098.0, 10115.0, 10116.0, 10103.0, 10102.0, 10097.0, 10083.0, 10080.0, 10090.0, 10112.0, 10127.0, 10125.0, 10116.0, 10100.0, 10083.0, 10073.0, 10088.0, 10125.0, 10128.0, 10131.0, 10102.0, 10084.0, 10086.0, 10097.0, 10116.0, 10117.0, 10104.0, 10100.0, 10093.0, 10111.0, 10126.0, 10113.0, 10099.0],
      "WindowWidth": [22048.0, 21891.0, 21802.0, 21752.0, 21695.0, 21690.0, 21708.0, 21710.0, 21754.0, 21787.0, 21796.0, 21760.0, 21743.0, 21748.0, 21729.0, 21767.0, 21774.0, 21773.0, 21752.0, 21723.0, 21730.0, 21743.0, 21774.0, 21790.0, 21773.0, 21768.0, 21798.0, 21732.0, 21661.0, 21617.0, 21597.0, 21643.0, 21660.0, 21666.0, 21655.0, 21638.0, 21636.0, 21633.0, 21657.0, 21687.0, 21695.0, 21695.0, 21695.0, 21697.0, 21714.0, 21726.0, 21736.0, 21769.0, 21762.0, 21757.0, 21727.0, 21700.0, 21705.0, 21691.0, 21715.0, 21711.0, 21684.0, 21671.0, 21677.0, 21679.0, 21681.0, 21678.0, 21671.0, 21676.0, 21678.0, 21680.0, 21667.0, 21652.0, 21649.0, 21669.0, 21710.0, 21748.0, 21776.0, 21789.0, 21723.0, 21680.0, 21650.0, 21647.0, 21675.0, 21720.0, 21709.0, 21670.0, 21666.0, 21659.0, 21682.0, 21703.0, 21692.0, 21677.0, 21668.0, 21680.0, 21696.0, 21710.0, 21728.0, 21712.0, 21715.0, 21682.0, 21679.0, 21680.0, 21718.0, 21726.0, 21734.0, 21746.0, 21706.0, 21654.0, 21628.0, 21625.0, 21666.0, 21704.0, 21707.0, 21680.0, 21673.0, 21658.0, 21632.0, 21623.0, 21648.0, 21695.0, 21724.0, 21726.0, 21703.0, 21668.0, 21631.0, 21608.0, 21642.0, 21720.0, 21734.0, 21736.0, 21673.0, 21636.0, 21637.0, 21662.0, 21706.0, 21708.0, 21683.0, 21673.0, 21657.0, 21699.0, 21728.0, 21702.0, 21674.0]
    },
    "slices": {}
  }
}