{
  "AcquisitionMatrixPE": 104,
  "AcquisitionNumber": 1,
  "AcquisitionTime": "15:13:42.697500",
  "BandwidthPerPixelPhaseEncode": 17.17,
  "BaseResolution": 104,
  "BodyPartExamined": "BRAIN",
  "CoilString": "HC1-7;NC1_2",
  "ConsistencyInfo": "N4_VE11C_LATEST_20160120",
  "ConversionSoftware": "dcm2niix",
  "ConversionSoftwareVersion": "v1.0.20200427",
  "DerivedVendorReportedEchoSpacing": 0.000560011,
  "DeviceSerialNumber": "167006",
  "DwellTime": 2.1e-06,
  "EchoTime": 0.037,
  "EchoTrainLength": 104,
  "EffectiveEchoSpacing": 0.000560011,
  "FlipAngle": 52,
  "ImageComments": "Unaliased_MB4_PE3_LB",
  "ImageOrientationPatientDICOM": [0.999555, -0.0279989, 0.0103213, 0.0298407, 0.937447, -0.346848],
  "ImageType": [
    "ORIGINAL",
    "PRIMARY",
    "M",
    "MB",
    "ND",
    "MOSAIC"
],
  "ImagingFrequency": 123.259,
  "InPlanePhaseEncodingDirectionDICOM": "COL",
  "InstitutionAddress": "Chemin_Queen-Mary_4565_Montreal_District_CA_H3W_1W5",
  "InstitutionName": "IUGM",
  "InstitutionalDepartmentName": "Department",
  "MRAcquisitionType": "2D",
  "MagneticFieldStrength": 3,
  "Manufacturer": "Siemens",
  "ManufacturersModelName": "Prisma_fit",
  "Modality": "MR",
  "MultibandAccelerationFactor": 4,
  "PartialFourier": 1,
  "PatientPosition": "HFS",
  "PercentPhaseFOV": 100,
  "PercentSampling": 100,
  "PhaseEncodingDirection": "j",
  "PhaseEncodingSteps": 104,
  "PhaseResolution": 1,
  "PixelBandwidth": 2290,
  "ProcedureStepDescription": "hcptrt_generic",
  "ProtocolName": "func_task-wm_run-2",
  "PulseSequenceDetails": "%CustomerSeq%_cmrr_mbep2d_bold",
  "ReceiveCoilActiveElements": "HC1-7;NC1,2",
  "ReceiveCoilName": "HeadNeck_64",
  "ReconMatrixPE": 104,
  "RepetitionTime": 1.49,
  "SAR": 0.0292678,
  "ScanOptions": "FS",
  "ScanningSequence": "EP",
  "SequenceName": "epfid2d1_104",
  "SequenceVariant": "SK_SS",
  "SeriesDescription": "func_task-wm_run-2",
  "SeriesNumber": 25,
  "ShimSetting": [632, -7251, -8849, 616, 9, -208, -122, -9],
  "SliceThickness": 2,
  "SliceTiming": [0, 0.785, 0.0975, 0.8825, 0.195, 0.98, 0.295, 1.0775, 0.3925, 1.175, 0.49, 1.275, 0.5875, 1.3725, 0.685, 0, 0.785, 0.0975, 0.8825, 0.195, 0.98, 0.295, 1.0775, 0.3925, 1.175, 0.49, 1.275, 0.5875, 1.3725, 0.685, 0, 0.785, 0.0975, 0.8825, 0.195, 0.98, 0.295, 1.0775, 0.3925, 1.175, 0.49, 1.275, 0.5875, 1.3725, 0.685, 0, 0.785, 0.0975, 0.8825, 0.195, 0.98, 0.295, 1.0775, 0.3925, 1.175, 0.49, 1.275, 0.5875, 1.3725, 0.685],
  "SoftwareVersions": "syngo_MR_E11",
  "SpacingBetweenSlices": 2,
  "StationName": "MRC35049",
  "TaskName": "wm",
  "TotalReadoutTime": 0.0576811,
  "TxRefAmp": 218.043,
  "WipMemBlock": "e7f9a6e7-3b33-4fc1-b2fb-3b3b1fe3217e||Sequence: R016 ve11c/master r/e634e98; Dec 19 2017 11:00:25 by eja",
  "dcmmeta_affine": [
    [-1.9991093873977661, 0.05968131870031357, -7.125393312890083e-05, 103.35945129394531],
    [0.05599771812558174, 1.874893307685852, -0.6940022110939026, -67.03411102294922],
    [0.020642688497900963, 0.6936951875686646, 1.8757294416427612, -70.92921447753906],
    [0.0, 0.0, 0.0, 1.0]
],
  "dcmmeta_reorient_transform": [
    [0.0, -1.0, 0.0, 103.0],
    [1.0, 0.0, 0.0, 0.0],
    [0.0, 0.0, 1.0, 0.0],
    [0.0, 0.0, 0.0, 1.0]
],
  "dcmmeta_shape": [104, 104, 60, 202],
  "dcmmeta_slice_dim": 2,
  "dcmmeta_version": 0.6,
  "global": {
    "const": {
      "AcquisitionMatrix": [104, 0, 0, 104],
      "AngioFlag": "N",
      "BitsAllocated": 16,
      "BitsStored": 16,
      "BodyPartExamined": "BRAIN",
      "Columns": 832,
      "EchoNumbers": 1,
      "EchoTime": 37.0,
      "EchoTrainLength": 104,
      "FlipAngle": 52.0,
      "HighBit": 15,
      "ImageOrientationPatient": [0.99955466772895, -0.0279988585376, 0.01032134399501, 0.02984065937595, 0.93744668281497, -0.3468475917852],
      "ImagePositionPatient": [-858.90642153353, -788.15792332537, 245.51250127794],
      "ImageType": [
        "ORIGINAL",
        "PRIMARY",
        "M",
        "MB",
        "ND",
        "MOSAIC"
],
      "ImagedNucleus": "1H",
      "ImagingFrequency": 123.259395,
      "InPlanePhaseEncodingDirection": "COL",
      "MRAcquisitionType": "2D",
      "MagneticFieldStrength": 3.0,
      "Manufacturer": "SIEMENS",
      "ManufacturerModelName": "Prisma_fit",
      "Modality": "MR",
      "NumberOfAverages": 1.0,
      "NumberOfPhaseEncodingSteps": 104,
      "PercentPhaseFieldOfView": 100.0,
      "PercentSampling": 100.0,
      "PerformedProcedureStepStartTime": "142210.086000",
      "PhotometricInterpretation": "MONOCHROME2",
      "PixelBandwidth": 2290.0,
      "PixelRepresentation": 0,
      "PixelSpacing": [2.0, 2.0],
      "ProtocolName": "func_task-wm_run-2",
      "RepetitionTime": 1490.0,
      "Rows": 832,
      "SAR": 0.02926782022343,
      "SamplesPerPixel": 1,
      "ScanOptions": "FS",
      "ScanningSequence": "EP",
      "SequenceName": "epfid2d1_104",
      "SequenceVariant": [
        "SK",
        "SS"
],
      "SeriesDescription": "func_task-wm_run-2",
      "SeriesNumber": 25,
      "SeriesTime": "151504.560000",
      "SliceLocation": -43.264775064295,
      "SliceThickness": 2.0,
      "SmallestImagePixelValue": 0,
      "SoftwareVersions": "syngo MR E11",
      "SpacingBetweenSlices": 1.9999999610996,
      "SpecificCharacterSet": "ISO_IR 100",
      "StudyID": "1",
      "StudyTime": "142209.924000",
      "TransmitCoilName": "Body",
      "VariableFlipAngleFlag": "N",
      "WindowCenterWidthExplanation": "Algo1",
      "dBdt": 0.0},
    "slices": {}
  },
  "time": {
    "samples": {
      "AcquisitionNumber": [1, 2, 3, 4, 5, 6, 7, 8, 9, 10, 11, 12, 13, 14, 15, 16, 17, 18, 19, 20, 21, 22, 23, 24, 25, 26, 27, 28, 29, 30, 31, 32, 33, 34, 35, 36, 37, 38, 39, 40, 41, 42, 43, 44, 45, 46, 47, 48, 49, 50, 51, 52, 53, 54, 55, 56, 57, 58, 59, 60, 61, 62, 63, 64, 65, 66, 67, 68, 69, 70, 71, 72, 73, 74, 75, 76, 77, 78, 79, 80, 81, 82, 83, 84, 85, 86, 87, 88, 89, 90, 91, 92, 93, 94, 95, 96, 97, 98, 99, 100, 101, 102, 103, 104, 105, 106, 107, 108, 109, 110, 111, 112, 113, 114, 115, 116, 117, 118, 119, 120, 121, 122, 123, 124, 125, 126, 127, 128, 129, 130, 131, 132, 133, 134, 135, 136, 137, 138, 139, 140, 141, 142, 143, 144, 145, 146, 147, 148, 149, 150, 151, 152, 153, 154, 155, 156, 157, 158, 159, 160, 161, 162, 163, 164, 165, 166, 167, 168, 169, 170, 171, 172, 173, 174, 175, 176, 177, 178, 179, 180, 181, 182, 183, 184, 185, 186, 187, 188, 189, 190, 191, 192, 193, 194, 195, 196, 197, 198, 199, 200, 201, 202],
      "AcquisitionTime": ["151342.697500", "151344.187500", "151345.677500", "151347.167500", "151348.657500", "151350.147500", "151351.637500", "151353.127500", "151354.617500", "151356.107500", "151357.597500", "151359.087500", "151400.577500", "151402.067500", "151403.557500", "151405.047500", "151406.537500", "151408.027500", "151409.517500", "151411.007500", "151412.497500", "151413.987500", "151415.477500", "151416.967500", "151418.457500", "151419.947500", "151421.437500", "151422.927500", "151424.417500", "151425.907500", "151427.397500", "151428.887500", "151430.377500", "151431.867500", "151433.357500", "151434.847500", "151436.337500", "151437.827500", "151439.317500", "151440.807500", "151442.297500", "151443.787500", "151445.277500", "151446.767500", "151448.257500", "151449.747500", "151451.237500", "151452.727500", "151454.217500", "151455.707500", "151457.197500", "151458.687500", "151500.177500", "151501.667500", "151503.157500", "151504.647500", "151506.137500", "151507.627500", "151509.117500", "151510.607500", "151512.097500", "151513.587500", "151515.077500", "151516.567500", "151518.057500", "151519.547500", "151521.037500", "151522.527500", "151524.017500", "151525.507500", "151526.997500", "151528.487500", "151529.977500", "151531.467500", "151532.957500", "151534.447500", "151535.937500", "151537.427500", "151538.917500", "151540.407500", "151541.897500", "151543.387500", "151544.877500", "151546.367500", "151547.857500", "151549.347500", "151550.837500", "151552.327500", "151553.817500", "151555.307500", "151556.797500", "151558.287500", "151559.777500", "151601.267500", "151602.757500", "151604.247500", "151605.737500", "151607.227500", "151608.717500", "151610.207500", "151611.697500", "151613.187500", "151614.677500", "151616.167500", "151617.657500", "151619.147500", "151620.637500", "151622.127500", "151623.617500", "151625.107500", "151626.597500", "151628.087500", "151629.577500", "151631.067500", "151632.557500", "151634.047500", "151635.537500", "151637.027500", "151638.517500", "151640.007500", "151641.497500", "151642.987500", "151644.477500", "151645.967500", "151647.457500", "151648.947500", "151650.437500", "151651.927500", "151653.417500", "151654.907500", "151656.397500", "151657.887500", "151659.377500", "151700.867500", "151702.357500", "151703.847500", "151705.337500", "151706.827500", "151708.317500", "151709.807500", "151711.297500", "151712.787500", "151714.277500", "151715.767500", "151717.257500", "151718.747500", "151720.237500", "151721.727500", "151723.217500", "151724.707500", "151726.197500", "151727.687500", "151729.177500", "151730.667500", "151732.157500", "151733.647500", "151735.137500", "151736.627500", "151738.117500", "151739.607500", "151741.097500", "151742.587500", "151744.077500", "151745.567500", "151747.057500", "151748.547500", "151750.037500", "151751.527500", "151753.017500", "151754.507500", "151755.997500", "151757.487500", "151758.977500", "151800.467500", "151801.957500", "151803.447500", "151804.937500", "151806.427500", "151807.917500", "151809.407500", "151810.897500", "151812.387500", "151813.877500", "151815.367500", "151816.857500", "151818.347500", "151819.837500", "151821.327500", "151822.817500", "151824.307500", "151825.797500", "151827.287500", "151828.777500", "151830.267500", "151831.757500", "151833.247500", "151834.737500", "151836.227500", "151837.717500", "151839.207500", "151840.697500", "151842.187500"],
      "ContentTime": ["151504.563000", "151504.567000", "151504.570000", "151504.572000", "151504.575000", "151504.578000", "151504.581000", "151504.584000", "151504.587000", "151504.590000", "151504.592000", "151504.595000", "151504.598000", "151504.601000", "151504.604000", "151504.606000", "151504.609000", "151504.612000", "151504.615000", "151504.618000", "151504.621000", "151504.624000", "151504.626000", "151504.629000", "151504.632000", "151504.635000", "151504.638000", "151504.640000", "151504.643000", "151524.532000", "151524.535000", "151524.537000", "151524.540000", "151524.553000", "151524.556000", "151524.558000", "151524.561000", "151524.564000", "151524.567000", "151524.570000", "151524.573000", "151524.576000", "151524.579000", "151524.581000", "151524.584000", "151524.587000", "151524.590000", "151524.593000", "151524.596000", "151544.532000", "151544.535000", "151544.537000", "151544.540000", "151544.543000", "151544.546000", "151544.549000", "151544.552000", "151544.555000", "151544.558000", "151544.560000", "151544.563000", "151544.566000", "151544.569000", "151544.572000", "151544.574000", "151544.577000", "151544.580000", "151544.583000", "151544.586000", "151544.589000", "151604.532000", "151604.535000", "151604.537000", "151604.540000", "151604.543000", "151604.546000", "151604.549000", "151604.552000", "151604.555000", "151604.558000", "151604.561000", "151604.564000", "151604.567000", "151604.570000", "151604.573000", "151604.576000", "151604.579000", "151604.581000", "151604.584000", "151604.592000", "151644.533000", "151644.536000", "151644.539000", "151644.542000", "151644.544000", "151644.547000", "151644.550000", "151644.553000", "151644.556000", "151644.559000", "151644.562000", "151644.564000", "151644.567000", "151644.570000", "151644.573000", "151644.576000", "151644.579000", "151644.582000", "151644.584000", "151644.587000", "151644.590000", "151644.593000", "151644.596000", "151644.598000", "151644.601000", "151644.604000", "151644.607000", "151644.610000", "151644.612000", "151644.615000", "151644.618000", "151724.533000", "151724.536000", "151724.539000", "151724.542000", "151724.544000", "151724.547000", "151724.550000", "151724.553000", "151724.556000", "151724.559000", "151724.561000", "151724.564000", "151724.567000", "151724.570000", "151724.573000", "151724.576000", "151724.579000", "151724.582000", "151724.585000", "151724.588000", "151724.591000", "151724.594000", "151724.596000", "151724.599000", "151724.602000", "151724.605000", "151724.608000", "151804.532000", "151804.535000", "151804.537000", "151804.540000", "151804.543000", "151804.546000", "151804.549000", "151804.552000", "151804.555000", "151804.558000", "151804.560000", "151804.563000", "151804.579000", "151804.582000", "151804.584000", "151804.587000", "151804.590000", "151804.593000", "151804.596000", "151804.599000", "151804.602000", "151804.604000", "151804.607000", "151804.610000", "151804.613000", "151804.616000", "151804.624000", "151844.169000", "151844.173000", "151844.175000", "151844.178000", "151844.181000", "151844.184000", "151844.187000", "151844.190000", "151844.193000", "151844.195000", "151844.198000", "151844.201000", "151844.204000", "151844.207000", "151844.210000", "151844.213000", "151844.216000", "151844.218000", "151844.221000", "151844.224000", "151844.227000", "151844.230000", "151844.233000", "151844.236000", "151844.239000", "151844.242000", "151844.244000"],
      "InstanceCreationTime": ["151504.563000", "151504.567000", "151504.570000", "151504.572000", "151504.575000", "151504.578000", "151504.581000", "151504.584000", "151504.587000", "151504.590000", "151504.592000", "151504.595000", "151504.598000", "151504.601000", "151504.604000", "151504.606000", "151504.609000", "151504.612000", "151504.615000", "151504.618000", "151504.621000", "151504.624000", "151504.626000", "151504.629000", "151504.632000", "151504.635000", "151504.638000", "151504.640000", "151504.643000", "151524.532000", "151524.535000", "151524.537000", "151524.540000", "151524.553000", "151524.556000", "151524.558000", "151524.561000", "151524.564000", "151524.567000", "151524.570000", "151524.573000", "151524.576000", "151524.579000", "151524.581000", "151524.584000", "151524.587000", "151524.590000", "151524.593000", "151524.596000", "151544.532000", "151544.535000", "151544.537000", "151544.540000", "151544.543000", "151544.546000", "151544.549000", "151544.552000", "151544.555000", "151544.558000", "151544.560000", "151544.563000", "151544.566000", "151544.569000", "151544.572000", "151544.574000", "151544.577000", "151544.580000", "151544.583000", "151544.586000", "151544.589000", "151604.532000", "151604.535000", "151604.537000", "151604.540000", "151604.543000", "151604.546000", "151604.549000", "151604.552000", "151604.555000", "151604.558000", "151604.561000", "151604.564000", "151604.567000", "151604.570000", "151604.573000", "151604.576000", "151604.579000", "151604.581000", "151604.584000", "151604.592000", "151644.533000", "151644.536000", "151644.539000", "151644.542000", "151644.544000", "151644.547000", "151644.550000", "151644.553000", "151644.556000", "151644.559000", "151644.562000", "151644.564000", "151644.567000", "151644.570000", "151644.573000", "151644.576000", "151644.579000", "151644.582000", "151644.584000", "151644.587000", "151644.590000", "151644.593000", "151644.596000", "151644.598000", "151644.601000", "151644.604000", "151644.607000", "151644.610000", "151644.612000", "151644.615000", "151644.618000", "151724.533000", "151724.536000", "151724.539000", "151724.542000", "151724.544000", "151724.547000", "151724.550000", "151724.553000", "151724.556000", "151724.559000", "151724.561000", "151724.564000", "151724.567000", "151724.570000", "151724.573000", "151724.576000", "151724.579000", "151724.582000", "151724.585000", "151724.588000", "151724.591000", "151724.594000", "151724.596000", "151724.599000", "151724.602000", "151724.605000", "151724.608000", "151804.532000", "151804.535000", "151804.537000", "151804.540000", "151804.543000", "151804.546000", "151804.549000", "151804.552000", "151804.555000", "151804.558000", "151804.560000", "151804.563000", "151804.579000", "151804.582000", "151804.584000", "151804.587000", "151804.590000", "151804.593000", "151804.596000", "151804.599000", "151804.602000", "151804.604000", "151804.607000", "151804.610000", "151804.613000", "151804.616000", "151804.624000", "151844.169000", "151844.173000", "151844.175000", "151844.178000", "151844.181000", "151844.184000", "151844.187000", "151844.190000", "151844.193000", "151844.195000", "151844.198000", "151844.201000", "151844.204000", "151844.207000", "151844.210000", "151844.213000", "151844.216000", "151844.218000", "151844.221000", "151844.224000", "151844.227000", "151844.230000", "151844.233000", "151844.236000", "151844.239000", "151844.242000", "151844.244000"],
      "InstanceNumber": [1, 2, 3, 4, 5, 6, 7, 8, 9, 10, 11, 12, 13, 14, 15, 16, 17, 18, 19, 20, 21, 22, 23, 24, 25, 26, 27, 28, 29, 30, 31, 32, 33, 34, 35, 36, 37, 38, 39, 40, 41, 42, 43, 44, 45, 46, 47, 48, 49, 50, 51, 52, 53, 54, 55, 56, 57, 58, 59, 60, 61, 62, 63, 64, 65, 66, 67, 68, 69, 70, 71, 72, 73, 74, 75, 76, 77, 78, 79, 80, 81, 82, 83, 84, 85, 86, 87, 88, 89, 90, 91, 92, 93, 94, 95, 96, 97, 98, 99, 100, 101, 102, 103, 104, 105, 106, 107, 108, 109, 110, 111, 112, 113, 114, 115, 116, 117, 118, 119, 120, 121, 122, 123, 124, 125, 126, 127, 128, 129, 130, 131, 132, 133, 134, 135, 136, 137, 138, 139, 140, 141, 142, 143, 144, 145, 146, 147, 148, 149, 150, 151, 152, 153, 154, 155, 156, 157, 158, 159, 160, 161, 162, 163, 164, 165, 166, 167, 168, 169, 170, 171, 172, 173, 174, 175, 176, 177, 178, 179, 180, 181, 182, 183, 184, 185, 186, 187, 188, 189, 190, 191, 192, 193, 194, 195, 196, 197, 198, 199, 200, 201, 202],
      "LargestImagePixelValue": [40144, 39437, 39314, 39890, 39156, 37938, 37816, 39456, 38490, 36743, 36962, 38666, 37487, 38706, 38013, 38274, 38383, 36812, 37669, 38177, 37450, 38355, 37551, 37964, 38007, 37523, 39397, 38383, 37045, 37912, 38314, 37839, 37696, 38445, 38194, 37957, 38392, 37720, 37779, 37880, 37571, 38173, 38202, 37218, 37578, 38067, 39135, 37815, 38096, 38520, 38110, 38354, 37234, 37310, 37471, 37790, 37877, 38220, 38594, 38035, 38400, 38123, 37624, 37490, 38015, 37988, 37968, 38536, 38144, 38628, 37836, 38089, 37970, 37478, 37803, 38000, 38411, 37038, 37794, 37608, 38108, 38641, 39477, 39191, 38744, 38124, 37946, 37891, 37829, 37911, 37975, 38302, 38349, 38882, 39282, 38709, 37765, 36878, 37122, 37616, 37797, 38053, 38266, 38018, 37302, 37015, 37633, 36865, 37780, 37589, 38099, 37282, 37585, 38420, 38612, 37930, 37061, 37083, 37719, 38187, 37919, 38067, 38173, 38292, 37554, 37651, 38235, 37568, 37909, 38429, 37870, 38076, 38760, 37647, 37796, 38045, 37243, 38089, 37349, 37490, 38385, 38386, 37286, 38253, 38398, 38727, 37209, 37232, 37403, 37947, 37503, 37944, 38729, 37710, 37959, 38079, 37360, 37505, 37588, 37404, 37868, 38270, 37794, 38073, 38286, 37692, 37803, 37455, 37966, 38536, 37300, 37419, 38355, 37880, 38050, 38688, 38088, 37785, 37893, 37745, 38160, 37768, 37764, 37743, 37701, 37665, 37606, 38327, 38079, 37787, 37914, 38580, 37633, 37618, 37818, 38422, 37630, 37867, 38336, 37919, 37969, 38061],
      "WindowCenter": [10015.0, 9955.0, 9924.0, 9922.0, 9930.0, 9943.0, 9947.0, 9955.0, 9949.0, 9951.0, 9964.0, 9975.0, 9956.0, 9973.0, 9961.0, 9967.0, 9968.0, 9951.0, 9962.0, 9963.0, 9955.0, 9961.0, 9948.0, 9952.0, 9944.0, 9938.0, 9962.0, 9965.0, 9966.0, 9956.0, 9943.0, 9927.0, 9927.0, 9941.0, 9935.0, 9929.0, 9925.0, 9919.0, 9926.0, 9936.0, 9939.0, 9946.0, 9951.0, 9948.0, 9940.0, 9928.0, 9928.0, 9919.0, 9942.0, 9950.0, 9935.0, 9932.0, 9931.0, 9932.0, 9922.0, 9917.0, 9925.0, 9948.0, 9956.0, 9961.0, 9974.0, 9975.0, 9980.0, 9958.0, 9952.0, 9941.0, 9942.0, 9946.0, 9936.0, 9932.0, 9919.0, 9925.0, 9934.0, 9927.0, 9936.0, 9949.0, 9970.0, 9989.0, 9988.0, 9964.0, 9943.0, 9924.0, 9921.0, 9913.0, 9905.0, 9900.0, 9892.0, 9893.0, 9910.0, 9919.0, 9927.0, 9931.0, 9936.0, 9956.0, 9963.0, 9980.0, 9998.0, 9966.0, 9952.0, 9933.0, 9916.0, 9919.0, 9925.0, 9925.0, 9914.0, 9915.0, 9927.0, 9923.0, 9950.0, 9943.0, 9959.0, 9964.0, 9967.0, 9962.0, 9960.0, 9968.0, 9953.0, 9933.0, 9923.0, 9924.0, 9928.0, 9944.0, 9946.0, 9953.0, 9955.0, 9958.0, 9955.0, 9947.0, 9955.0, 9968.0, 9963.0, 9963.0, 9961.0, 9948.0, 9948.0, 9955.0, 9942.0, 9954.0, 9946.0, 9955.0, 9960.0, 9952.0, 9934.0, 9944.0, 9944.0, 9949.0, 9956.0, 9950.0, 9933.0, 9919.0, 9914.0, 9932.0, 9940.0, 9936.0, 9942.0, 9933.0, 9914.0, 9920.0, 9915.0, 9920.0, 9921.0, 9924.0, 9920.0, 9933.0, 9940.0, 9943.0, 9945.0, 9930.0, 9935.0, 9957.0, 9972.0, 9958.0, 9950.0, 9928.0, 9918.0, 9921.0, 9916.0, 9918.0, 9911.0, 9902.0, 9910.0, 9916.0, 9911.0, 9910.0, 9920.0, 9925.0, 9927.0, 9932.0, 9927.0, 9944.0, 9964.0, 9982.0, 9956.0, 9940.0, 9922.0, 9924.0, 9937.0, 9945.0, 9949.0, 9928.0, 9928.0, 9926.0],
      "WindowWidth": [21511.0, 21340.0, 21248.0, 21228.0, 21238.0, 21271.0, 21279.0, 21288.0, 21273.0, 21288.0, 21313.0, 21331.0, 21295.0, 21323.0, 21304.0, 21315.0, 21316.0, 21288.0, 21310.0, 21310.0, 21297.0, 21306.0, 21277.0, 21283.0, 21265.0, 21256.0, 21301.0, 21310.0, 21321.0, 21296.0, 21263.0, 21226.0, 21227.0, 21257.0, 21244.0, 21233.0, 21223.0, 21213.0, 21229.0, 21251.0, 21258.0, 21273.0, 21280.0, 21279.0, 21263.0, 21229.0, 21223.0, 21210.0, 21260.0, 21274.0, 21245.0, 21235.0, 21243.0, 21247.0, 21224.0, 21207.0, 21224.0, 21270.0, 21289.0, 21303.0, 21328.0, 21333.0, 21349.0, 21305.0, 21284.0, 21259.0, 21261.0, 21267.0, 21247.0, 21234.0, 21210.0, 21220.0, 21242.0, 21231.0, 21250.0, 21275.0, 21321.0, 21371.0, 21367.0, 21311.0, 21261.0, 21216.0, 21206.0, 21188.0, 21172.0, 21164.0, 21148.0, 21153.0, 21190.0, 21211.0, 21228.0, 21234.0, 21247.0, 21284.0, 21305.0, 21342.0, 21388.0, 21321.0, 21285.0, 21239.0, 21204.0, 21207.0, 21218.0, 21215.0, 21196.0, 21200.0, 21224.0, 21222.0, 21277.0, 21267.0, 21295.0, 21310.0, 21316.0, 21302.0, 21294.0, 21315.0, 21290.0, 21244.0, 21218.0, 21217.0, 21227.0, 21261.0, 21269.0, 21281.0, 21288.0, 21298.0, 21290.0, 21271.0, 21288.0, 21315.0, 21305.0, 21306.0, 21298.0, 21271.0, 21275.0, 21285.0, 21265.0, 21287.0, 21269.0, 21287.0, 21297.0, 21280.0, 21246.0, 21264.0, 21264.0, 21273.0, 21293.0, 21282.0, 21242.0, 21209.0, 21199.0, 21236.0, 21250.0, 21246.0, 21256.0, 21235.0, 21200.0, 21213.0, 21202.0, 21209.0, 21215.0, 21215.0, 21211.0, 21238.0, 21249.0, 21261.0, 21267.0, 21235.0, 21244.0, 21289.0, 21330.0, 21297.0, 21273.0, 21227.0, 21207.0, 21205.0, 21196.0, 21203.0, 21192.0, 21171.0, 21189.0, 21203.0, 21192.0, 21190.0, 21209.0, 21217.0, 21223.0, 21234.0, 21225.0, 21264.0, 21313.0, 21343.0, 21293.0, 21261.0, 21220.0, 21220.0, 21252.0, 21269.0, 21273.0, 21231.0, 21227.0, 21223.0]
    },
    "slices": {}
  }
}