{
  "AcquisitionMatrixPE": 104,
  "AcquisitionNumber": 1,
  "AcquisitionTime": "15:19:42.362500",
  "BandwidthPerPixelPhaseEncode": 17.17,
  "BaseResolution": 104,
  "BodyPartExamined": "BRAIN",
  "CoilString": "HC1-7;NC1_2",
  "ConsistencyInfo": "N4_VE11C_LATEST_20160120",
  "ConversionSoftware": "dcm2niix",
  "ConversionSoftwareVersion": "v1.0.20200427",
  "DerivedVendorReportedEchoSpacing": 0.000560011,
  "DeviceSerialNumber": "167006",
  "DwellTime": 2.1e-06,
  "EchoTime": 0.037,
  "EchoTrainLength": 104,
  "EffectiveEchoSpacing": 0.000560011,
  "FlipAngle": 52,
  "ImageComments": "Unaliased_MB4_PE3_LB",
  "ImageOrientationPatientDICOM": [0.999555, -0.0279989, 0.0103213, 0.0298407, 0.937447, -0.346848],
  "ImageType": [
    "ORIGINAL",
    "PRIMARY",
    "M",
    "MB",
    "ND",
    "MOSAIC"
],
  "ImagingFrequency": 123.259,
  "InPlanePhaseEncodingDirectionDICOM": "COL",
  "InstitutionAddress": "Chemin_Queen-Mary_4565_Montreal_District_CA_H3W_1W5",
  "InstitutionName": "IUGM",
  "InstitutionalDepartmentName": "Department",
  "MRAcquisitionType": "2D",
  "MagneticFieldStrength": 3,
  "Manufacturer": "Siemens",
  "ManufacturersModelName": "Prisma_fit",
  "Modality": "MR",
  "MultibandAccelerationFactor": 4,
  "PartialFourier": 1,
  "PatientPosition": "HFS",
  "PercentPhaseFOV": 100,
  "PercentSampling": 100,
  "PhaseEncodingDirection": "j",
  "PhaseEncodingSteps": 104,
  "PhaseResolution": 1,
  "PixelBandwidth": 2290,
  "ProcedureStepDescription": "hcptrt_generic",
  "ProtocolName": "func_task-relational_run-2",
  "PulseSequenceDetails": "%CustomerSeq%_cmrr_mbep2d_bold",
  "ReceiveCoilActiveElements": "HC1-7;NC1,2",
  "ReceiveCoilName": "HeadNeck_64",
  "ReconMatrixPE": 104,
  "RepetitionTime": 1.49,
  "SAR": 0.0290791,
  "ScanOptions": "FS",
  "ScanningSequence": "EP",
  "SequenceName": "epfid2d1_104",
  "SequenceVariant": "SK_SS",
  "SeriesDescription": "func_task-relational_run-2",
  "SeriesNumber": 27,
  "ShimSetting": [632, -7251, -8849, 616, 11, -208, -122, -10],
  "SliceThickness": 2,
  "SliceTiming": [0, 0.785, 0.0975, 0.8825, 0.1975, 0.98, 0.295, 1.0775, 0.3925, 1.1775, 0.49, 1.275, 0.5875, 1.3725, 0.6875, 0, 0.785, 0.0975, 0.8825, 0.1975, 0.98, 0.295, 1.0775, 0.3925, 1.1775, 0.49, 1.275, 0.5875, 1.3725, 0.6875, 0, 0.785, 0.0975, 0.8825, 0.1975, 0.98, 0.295, 1.0775, 0.3925, 1.1775, 0.49, 1.275, 0.5875, 1.3725, 0.6875, 0, 0.785, 0.0975, 0.8825, 0.1975, 0.98, 0.295, 1.0775, 0.3925, 1.1775, 0.49, 1.275, 0.5875, 1.3725, 0.6875],
  "SoftwareVersions": "syngo_MR_E11",
  "SpacingBetweenSlices": 2,
  "StationName": "MRC35049",
  "TaskName": "relational",
  "TotalReadoutTime": 0.0576811,
  "TxRefAmp": 218.043,
  "WipMemBlock": "28e8a7ca-059a-4c73-b439-0d154d0d0a16||Sequence: R016 ve11c/master r/e634e98; Dec 19 2017 11:00:25 by eja",
  "dcmmeta_affine": [
    [-1.9991093873977661, 0.05968131870031357, -7.125393312890083e-05, 103.35945129394531],
    [0.05599771812558174, 1.874893307685852, -0.6940022110939026, -67.03411102294922],
    [0.020642688497900963, 0.6936951875686646, 1.8757294416427612, -70.92921447753906],
    [0.0, 0.0, 0.0, 1.0]
],
  "dcmmeta_reorient_transform": [
    [0.0, -1.0, 0.0, 103.0],
    [1.0, 0.0, 0.0, 0.0],
    [0.0, 0.0, 1.0, 0.0],
    [0.0, 0.0, 0.0, 1.0]
],
  "dcmmeta_shape": [104, 104, 60, 119],
  "dcmmeta_slice_dim": 2,
  "dcmmeta_version": 0.6,
  "global": {
    "const": {
      "AcquisitionMatrix": [104, 0, 0, 104],
      "AngioFlag": "N",
      "BitsAllocated": 16,
      "BitsStored": 16,
      "BodyPartExamined": "BRAIN",
      "Columns": 832,
      "EchoNumbers": 1,
      "EchoTime": 37.0,
      "EchoTrainLength": 104,
      "FlipAngle": 52.0,
      "HighBit": 15,
      "ImageOrientationPatient": [0.99955466772895, -0.0279988585376, 0.01032134399501, 0.02984065937595, 0.93744668281497, -0.3468475917852],
      "ImagePositionPatient": [-858.90642153353, -788.15792332537, 245.51250127794],
      "ImageType": [
        "ORIGINAL",
        "PRIMARY",
        "M",
        "MB",
        "ND",
        "MOSAIC"
],
      "ImagedNucleus": "1H",
      "ImagingFrequency": 123.259399,
      "InPlanePhaseEncodingDirection": "COL",
      "MRAcquisitionType": "2D",
      "MagneticFieldStrength": 3.0,
      "Manufacturer": "SIEMENS",
      "ManufacturerModelName": "Prisma_fit",
      "Modality": "MR",
      "NumberOfAverages": 1.0,
      "NumberOfPhaseEncodingSteps": 104,
      "PercentPhaseFieldOfView": 100.0,
      "PercentSampling": 100.0,
      "PerformedProcedureStepStartTime": "142210.086000",
      "PhotometricInterpretation": "MONOCHROME2",
      "PixelBandwidth": 2290.0,
      "PixelRepresentation": 0,
      "PixelSpacing": [2.0, 2.0],
      "ProtocolName": "func_task-relational_run-2",
      "RepetitionTime": 1490.0,
      "Rows": 832,
      "SAR": 0.02907908430395,
      "SamplesPerPixel": 1,
      "ScanOptions": "FS",
      "ScanningSequence": "EP",
      "SequenceName": "epfid2d1_104",
      "SequenceVariant": [
        "SK",
        "SS"
],
      "SeriesDescription": "func_task-relational_run-2",
      "SeriesNumber": 27,
      "SeriesTime": "152043.464000",
      "SliceLocation": -43.264775064295,
      "SliceThickness": 2.0,
      "SmallestImagePixelValue": 0,
      "SoftwareVersions": "syngo MR E11",
      "SpacingBetweenSlices": 1.9999999610996,
      "SpecificCharacterSet": "ISO_IR 100",
      "StudyID": "1",
      "StudyTime": "142209.924000",
      "TransmitCoilName": "Body",
      "VariableFlipAngleFlag": "N",
      "WindowCenterWidthExplanation": "Algo1",
      "dBdt": 0.0},
    "slices": {}
  },
  "time": {
    "samples": {
      "AcquisitionNumber": [1, 2, 3, 4, 5, 6, 7, 8, 9, 10, 11, 12, 13, 14, 15, 16, 17, 18, 19, 20, 21, 22, 23, 24, 25, 26, 27, 28, 29, 30, 31, 32, 33, 34, 35, 36, 37, 38, 39, 40, 41, 42, 43, 44, 45, 46, 47, 48, 49, 50, 51, 52, 53, 54, 55, 56, 57, 58, 59, 60, 61, 62, 63, 64, 65, 66, 67, 68, 69, 70, 71, 72, 73, 74, 75, 76, 77, 78, 79, 80, 81, 82, 83, 84, 85, 86, 87, 88, 89, 90, 91, 92, 93, 94, 95, 96, 97, 98, 99, 100, 101, 102, 103, 104, 105, 106, 107, 108, 109, 110, 111, 112, 113, 114, 115, 116, 117, 118, 119],
      "AcquisitionTime": ["151942.362500", "151943.852500", "151945.342500", "151946.832500", "151948.322500", "151949.812500", "151951.302500", "151952.792500", "151954.282500", "151955.772500", "151957.262500", "151958.752500", "152000.242500", "152001.732500", "152003.222500", "152004.712500", "152006.202500", "152007.692500", "152009.182500", "152010.672500", "152012.162500", "152013.652500", "152015.142500", "152016.632500", "152018.122500", "152019.612500", "152021.102500", "152022.592500", "152024.082500", "152025.572500", "152027.062500", "152028.552500", "152030.042500", "152031.532500", "152033.022500", "152034.512500", "152036.002500", "152037.492500", "152038.982500", "152040.472500", "152041.962500", "152043.452500", "152044.942500", "152046.432500", "152047.922500", "152049.412500", "152050.902500", "152052.392500", "152053.882500", "152055.372500", "152056.862500", "152058.352500", "152059.842500", "152101.332500", "152102.822500", "152104.312500", "152105.802500", "152107.292500", "152108.782500", "152110.272500", "152111.762500", "152113.252500", "152114.742500", "152116.232500", "152117.722500", "152119.212500", "152120.702500", "152122.192500", "152123.682500", "152125.172500", "152126.662500", "152128.152500", "152129.642500", "152131.132500", "152132.622500", "152134.112500", "152135.602500", "152137.092500", "152138.582500", "152140.072500", "152141.562500", "152143.052500", "152144.542500", "152146.032500", "152147.522500", "152149.012500", "152150.502500", "152151.992500", "152153.482500", "152154.972500", "152156.462500", "152157.952500", "152159.442500", "152200.932500", "152202.422500", "152203.912500", "152205.402500", "152206.892500", "152208.382500", "152209.872500", "152211.362500", "152212.852500", "152214.342500", "152215.832500", "152217.322500", "152218.812500", "152220.302500", "152221.792500", "152223.282500", "152224.772500", "152226.262500", "152227.752500", "152229.242500", "152230.732500", "152232.222500", "152233.712500", "152235.202500", "152236.692500", "152238.182500"],
      "ContentTime": ["152043.466000", "152043.470000", "152043.473000", "152043.476000", "152043.479000", "152103.434000", "152103.437000", "152103.440000", "152103.443000", "152103.445000", "152103.448000", "152103.451000", "152103.454000", "152103.461000", "152103.464000", "152103.466000", "152103.469000", "152103.472000", "152103.475000", "152103.478000", "152103.481000", "152103.484000", "152103.486000", "152103.489000", "152103.492000", "152123.435000", "152123.438000", "152123.441000", "152123.444000", "152123.446000", "152123.449000", "152123.452000", "152123.464000", "152123.467000", "152123.469000", "152123.472000", "152123.475000", "152123.478000", "152123.481000", "152123.491000", "152123.494000", "152123.497000", "152123.500000", "152123.503000", "152123.506000", "152143.435000", "152143.438000", "152143.441000", "152143.443000", "152143.446000", "152143.449000", "152143.452000", "152143.459000", "152143.462000", "152143.465000", "152143.468000", "152143.470000", "152143.473000", "152143.476000", "152143.479000", "152143.482000", "152143.484000", "152143.487000", "152143.490000", "152143.493000", "152143.496000", "152203.434000", "152203.437000", "152203.440000", "152203.442000", "152203.445000", "152203.448000", "152203.451000", "152203.454000", "152203.457000", "152203.460000", "152203.462000", "152203.465000", "152203.468000", "152203.471000", "152203.474000", "152203.477000", "152203.480000", "152203.482000", "152203.485000", "152203.488000", "152223.434000", "152223.437000", "152223.440000", "152223.442000", "152223.445000", "152223.448000", "152223.451000", "152223.454000", "152223.457000", "152223.460000", "152223.462000", "152223.465000", "152223.468000", "152223.471000", "152223.474000", "152223.477000", "152223.479000", "152223.482000", "152223.485000", "152223.488000", "152240.203000", "152240.206000", "152240.209000", "152240.212000", "152240.215000", "152240.217000", "152240.220000", "152240.223000", "152240.226000", "152240.229000", "152240.232000", "152240.234000", "152240.237000"],
      "InstanceCreationTime": ["152043.466000", "152043.470000", "152043.473000", "152043.476000", "152043.479000", "152103.434000", "152103.437000", "152103.440000", "152103.443000", "152103.445000", "152103.448000", "152103.451000", "152103.454000", "152103.461000", "152103.464000", "152103.466000", "152103.469000", "152103.472000", "152103.475000", "152103.478000", "152103.481000", "152103.484000", "152103.486000", "152103.489000", "152103.492000", "152123.435000", "152123.438000", "152123.441000", "152123.444000", "152123.446000", "152123.449000", "152123.452000", "152123.464000", "152123.467000", "152123.469000", "152123.472000", "152123.475000", "152123.478000", "152123.481000", "152123.491000", "152123.494000", "152123.497000", "152123.500000", "152123.503000", "152123.506000", "152143.435000", "152143.438000", "152143.441000", "152143.443000", "152143.446000", "152143.449000", "152143.452000", "152143.459000", "152143.462000", "152143.465000", "152143.468000", "152143.470000", "152143.473000", "152143.476000", "152143.479000", "152143.482000", "152143.484000", "152143.487000", "152143.490000", "152143.493000", "152143.496000", "152203.434000", "152203.437000", "152203.440000", "152203.442000", "152203.445000", "152203.448000", "152203.451000", "152203.454000", "152203.457000", "152203.460000", "152203.462000", "152203.465000", "152203.468000", "152203.471000", "152203.474000", "152203.477000", "152203.480000", "152203.482000", "152203.485000", "152203.488000", "152223.434000", "152223.437000", "152223.440000", "152223.442000", "152223.445000", "152223.448000", "152223.451000", "152223.454000", "152223.457000", "152223.460000", "152223.462000", "152223.465000", "152223.468000", "152223.471000", "152223.474000", "152223.477000", "152223.479000", "152223.482000", "152223.485000", "152223.488000", "152240.203000", "152240.206000", "152240.209000", "152240.212000", "152240.215000", "152240.217000", "152240.220000", "152240.223000", "152240.226000", "152240.229000", "152240.232000", "152240.234000", "152240.237000"],
      "InstanceNumber": [1, 2, 3, 4, 5, 6, 7, 8, 9, 10, 11, 12, 13, 14, 15, 16, 17, 18, 19, 20, 21, 22, 23, 24, 25, 26, 27, 28, 29, 30, 31, 32, 33, 34, 35, 36, 37, 38, 39, 40, 41, 42, 43, 44, 45, 46, 47, 48, 49, 50, 51, 52, 53, 54, 55, 56, 57, 58, 59, 60, 61, 62, 63, 64, 65, 66, 67, 68, 69, 70, 71, 72, 73, 74, 75, 76, 77, 78, 79, 80, 81, 82, 83, 84, 85, 86, 87, 88, 89, 90, 91, 92, 93, 94, 95, 96, 97, 98, 99, 100, 101, 102, 103, 104, 105, 106, 107, 108, 109, 110, 111, 112, 113, 114, 115, 116, 117, 118, 119],
      "LargestImagePixelValue": [43765, 42307, 42065, 41918, 41007, 39913, 40114, 40603, 40784, 39940, 40787, 40682, 40262, 40802, 40219, 40513, 40573, 39750, 40725, 41138, 39969, 39306, 40422, 40017, 40066, 40341, 40734, 40495, 40742, 40248, 40578, 40704, 40013, 39628, 39807, 40423, 40409, 40584, 40713, 40120, 40051, 40722, 40084, 39422, 40276, 40095, 39220, 40280, 40309, 40201, 40584, 40121, 39376, 39757, 40634, 40016, 39158, 40074, 40068, 39474, 39451, 39866, 40187, 39503, 39817, 39961, 39746, 40129, 39499, 39415, 39975, 39609, 39549, 39783, 39670, 39820, 39332, 39551, 39296, 39816, 39057, 39209, 39833, 39545, 39116, 39867, 39219, 39219, 39439, 39359, 39220, 39844, 39134, 39747, 39800, 39744, 39784, 39502, 39613, 39585, 39452, 39673, 39207, 40122, 39566, 39422, 39928, 40168, 39796, 40283, 39653, 39588, 39565, 39479, 39600, 39700, 39346, 39305, 39469],
      "WindowCenter": [10178.0, 10123.0, 10078.0, 10048.0, 10053.0, 10051.0, 10044.0, 10037.0, 10026.0, 10028.0, 10047.0, 10051.0, 10054.0, 10061.0, 10046.0, 10038.0, 10036.0, 10032.0, 10052.0, 10056.0, 10045.0, 10027.0, 10027.0, 10019.0, 10014.0, 10028.0, 10026.0, 10019.0, 10016.0, 10017.0, 10025.0, 10033.0, 10039.0, 10026.0, 10009.0, 10004.0, 10003.0, 10024.0, 10035.0, 10032.0, 10024.0, 10020.0, 10012.0, 10031.0, 10051.0, 10048.0, 10042.0, 10038.0, 10029.0, 10027.0, 10032.0, 10036.0, 10033.0, 10025.0, 10026.0, 10019.0, 10039.0, 10057.0, 10024.0, 9991.0, 9981.0, 9992.0, 10001.0, 10006.0, 10014.0, 10014.0, 10022.0, 10028.0, 10024.0, 10013.0, 10001.0, 9997.0, 9989.0, 10006.0, 10010.0, 10018.0, 10012.0, 10009.0, 10016.0, 10023.0, 10026.0, 10035.0, 10047.0, 10039.0, 10035.0, 10039.0, 10032.0, 10025.0, 10031.0, 10032.0, 10031.0, 10023.0, 10015.0, 10023.0, 10009.0, 10007.0, 10005.0, 10006.0, 10020.0, 10023.0, 10015.0, 10008.0, 10008.0, 10007.0, 10008.0, 10000.0, 10004.0, 10002.0, 10005.0, 10027.0, 10030.0, 10009.0, 9992.0, 9990.0, 10013.0, 10023.0, 10018.0, 10002.0, 9994.0],
      "WindowWidth": [21892.0, 21734.0, 21612.0, 21531.0, 21536.0, 21537.0, 21518.0, 21494.0, 21468.0, 21474.0, 21513.0, 21524.0, 21534.0, 21543.0, 21514.0, 21496.0, 21491.0, 21487.0, 21528.0, 21532.0, 21515.0, 21482.0, 21473.0, 21455.0, 21448.0, 21474.0, 21470.0, 21451.0, 21445.0, 21448.0, 21468.0, 21485.0, 21503.0, 21476.0, 21438.0, 21422.0, 21419.0, 21465.0, 21489.0, 21488.0, 21472.0, 21458.0, 21443.0, 21485.0, 21528.0, 21523.0, 21513.0, 21500.0, 21480.0, 21473.0, 21483.0, 21494.0, 21495.0, 21476.0, 21473.0, 21459.0, 21506.0, 21547.0, 21471.0, 21396.0, 21375.0, 21395.0, 21415.0, 21431.0, 21450.0, 21449.0, 21465.0, 21476.0, 21472.0, 21453.0, 21423.0, 21410.0, 21393.0, 21428.0, 21442.0, 21459.0, 21450.0, 21439.0, 21453.0, 21470.0, 21480.0, 21501.0, 21522.0, 21503.0, 21501.0, 21505.0, 21489.0, 21478.0, 21486.0, 21489.0, 21488.0, 21467.0, 21454.0, 21472.0, 21442.0, 21436.0, 21432.0, 21435.0, 21462.0, 21471.0, 21452.0, 21440.0, 21436.0, 21435.0, 21436.0, 21419.0, 21420.0, 21416.0, 21428.0, 21477.0, 21487.0, 21443.0, 21404.0, 21399.0, 21447.0, 21469.0, 21457.0, 21425.0, 21406.0]
    },
    "slices": {}
  }
}