{
  "AcquisitionMatrixPE": 104,
  "AcquisitionNumber": 1,
  "AcquisitionTime": "14:50:16.957500",
  "BandwidthPerPixelPhaseEncode": 17.17,
  "BaseResolution": 104,
  "BodyPartExamined": "BRAIN",
  "CoilString": "HC1-7;NC1_2",
  "ConsistencyInfo": "N4_VE11C_LATEST_20160120",
  "ConversionSoftware": "dcm2niix",
  "ConversionSoftwareVersion": "v1.0.20200427",
  "DerivedVendorReportedEchoSpacing": 0.000560011,
  "DeviceSerialNumber": "167006",
  "DwellTime": 2.1e-06,
  "EchoTime": 0.037,
  "EchoTrainLength": 104,
  "EffectiveEchoSpacing": 0.000560011,
  "FlipAngle": 52,
  "ImageComments": "Unaliased_MB4_PE3_LB",
  "ImageOrientationPatientDICOM": [0.999555, -0.0279989, 0.0103213, 0.0298407, 0.937447, -0.346848],
  "ImageType": [
    "ORIGINAL",
    "PRIMARY",
    "M",
    "MB",
    "ND",
    "MOSAIC"
],
  "ImagingFrequency": 123.259,
  "InPlanePhaseEncodingDirectionDICOM": "COL",
  "InstitutionAddress": "Chemin_Queen-Mary_4565_Montreal_District_CA_H3W_1W5",
  "InstitutionName": "IUGM",
  "InstitutionalDepartmentName": "Department",
  "MRAcquisitionType": "2D",
  "MagneticFieldStrength": 3,
  "Manufacturer": "Siemens",
  "ManufacturersModelName": "Prisma_fit",
  "Modality": "MR",
  "MultibandAccelerationFactor": 4,
  "PartialFourier": 1,
  "PatientPosition": "HFS",
  "PercentPhaseFOV": 100,
  "PercentSampling": 100,
  "PhaseEncodingDirection": "j",
  "PhaseEncodingSteps": 104,
  "PhaseResolution": 1,
  "PixelBandwidth": 2290,
  "ProcedureStepDescription": "hcptrt_generic",
  "ProtocolName": "func_task-motor_run-1",
  "PulseSequenceDetails": "%CustomerSeq%_cmrr_mbep2d_bold",
  "ReceiveCoilActiveElements": "HC1-7;NC1,2",
  "ReceiveCoilName": "HeadNeck_64",
  "ReconMatrixPE": 104,
  "RepetitionTime": 1.49,
  "SAR": 0.0291578,
  "ScanOptions": "FS",
  "ScanningSequence": "EP",
  "SequenceName": "epfid2d1_104",
  "SequenceVariant": "SK_SS",
  "SeriesDescription": "func_task-motor_run-1",
  "SeriesNumber": 13,
  "ShimSetting": [632, -7251, -8849, 616, 11, -208, -122, -10],
  "SliceThickness": 2,
  "SliceTiming": [0, 0.7825, 0.0975, 0.8825, 0.195, 0.98, 0.2925, 1.0775, 0.3925, 1.175, 0.49, 1.2725, 0.5875, 1.37, 0.685, 0, 0.7825, 0.0975, 0.8825, 0.195, 0.98, 0.2925, 1.0775, 0.3925, 1.175, 0.49, 1.2725, 0.5875, 1.37, 0.685, 0, 0.7825, 0.0975, 0.8825, 0.195, 0.98, 0.2925, 1.0775, 0.3925, 1.175, 0.49, 1.2725, 0.5875, 1.37, 0.685, 0, 0.7825, 0.0975, 0.8825, 0.195, 0.98, 0.2925, 1.0775, 0.3925, 1.175, 0.49, 1.2725, 0.5875, 1.37, 0.685],
  "SoftwareVersions": "syngo_MR_E11",
  "SpacingBetweenSlices": 2,
  "StationName": "MRC35049",
  "TaskName": "motor",
  "TotalReadoutTime": 0.0576811,
  "TxRefAmp": 218.043,
  "WipMemBlock": "970496f4-faa8-4312-b55b-1fdb3057f3b6||Sequence: R016 ve11c/master r/e634e98; Dec 19 2017 11:00:25 by eja",
  "dcmmeta_affine": [
    [-1.9991093873977661, 0.05968131870031357, -7.125393312890083e-05, 103.35945129394531],
    [0.05599771812558174, 1.874893307685852, -0.6940022110939026, -67.03411102294922],
    [0.020642688497900963, 0.6936951875686646, 1.8757294416427612, -70.92921447753906],
    [0.0, 0.0, 0.0, 1.0]
],
  "dcmmeta_reorient_transform": [
    [0.0, -1.0, 0.0, 103.0],
    [1.0, 0.0, 0.0, 0.0],
    [0.0, 0.0, 1.0, 0.0],
    [0.0, 0.0, 0.0, 1.0]
],
  "dcmmeta_shape": [104, 104, 60, 144],
  "dcmmeta_slice_dim": 2,
  "dcmmeta_version": 0.6,
  "global": {
    "const": {
      "AcquisitionMatrix": [104, 0, 0, 104],
      "AngioFlag": "N",
      "BitsAllocated": 16,
      "BitsStored": 16,
      "BodyPartExamined": "BRAIN",
      "Columns": 832,
      "EchoNumbers": 1,
      "EchoTime": 37.0,
      "EchoTrainLength": 104,
      "FlipAngle": 52.0,
      "HighBit": 15,
      "ImageOrientationPatient": [0.99955466772895, -0.0279988585376, 0.01032134399501, 0.02984065937595, 0.93744668281497, -0.3468475917852],
      "ImagePositionPatient": [-858.90642153353, -788.15792332537, 245.51250127794],
      "ImageType": [
        "ORIGINAL",
        "PRIMARY",
        "M",
        "MB",
        "ND",
        "MOSAIC"
],
      "ImagedNucleus": "1H",
      "ImagingFrequency": 123.259381,
      "InPlanePhaseEncodingDirection": "COL",
      "MRAcquisitionType": "2D",
      "MagneticFieldStrength": 3.0,
      "Manufacturer": "SIEMENS",
      "ManufacturerModelName": "Prisma_fit",
      "Modality": "MR",
      "NumberOfAverages": 1.0,
      "NumberOfPhaseEncodingSteps": 104,
      "PercentPhaseFieldOfView": 100.0,
      "PercentSampling": 100.0,
      "PerformedProcedureStepStartTime": "142210.086000",
      "PhotometricInterpretation": "MONOCHROME2",
      "PixelBandwidth": 2290.0,
      "PixelRepresentation": 0,
      "PixelSpacing": [2.0, 2.0],
      "ProtocolName": "func_task-motor_run-1",
      "RepetitionTime": 1490.0,
      "Rows": 832,
      "SAR": 0.02915776809312,
      "SamplesPerPixel": 1,
      "ScanOptions": "FS",
      "ScanningSequence": "EP",
      "SequenceName": "epfid2d1_104",
      "SequenceVariant": [
        "SK",
        "SS"
],
      "SeriesDescription": "func_task-motor_run-1",
      "SeriesNumber": 13,
      "SeriesTime": "145124.568000",
      "SliceLocation": -43.264775064295,
      "SliceThickness": 2.0,
      "SmallestImagePixelValue": 0,
      "SoftwareVersions": "syngo MR E11",
      "SpacingBetweenSlices": 1.9999999610996,
      "SpecificCharacterSet": "ISO_IR 100",
      "StudyID": "1",
      "StudyTime": "142209.924000",
      "TransmitCoilName": "Body",
      "VariableFlipAngleFlag": "N",
      "WindowCenterWidthExplanation": "Algo1",
      "dBdt": 0.0},
    "slices": {}
  },
  "time": {
    "samples": {
      "AcquisitionNumber": [1, 2, 3, 4, 5, 6, 7, 8, 9, 10, 11, 12, 13, 14, 15, 16, 17, 18, 19, 20, 21, 22, 23, 24, 25, 26, 27, 28, 29, 30, 31, 32, 33, 34, 35, 36, 37, 38, 39, 40, 41, 42, 43, 44, 45, 46, 47, 48, 49, 50, 51, 52, 53, 54, 55, 56, 57, 58, 59, 60, 61, 62, 63, 64, 65, 66, 67, 68, 69, 70, 71, 72, 73, 74, 75, 76, 77, 78, 79, 80, 81, 82, 83, 84, 85, 86, 87, 88, 89, 90, 91, 92, 93, 94, 95, 96, 97, 98, 99, 100, 101, 102, 103, 104, 105, 106, 107, 108, 109, 110, 111, 112, 113, 114, 115, 116, 117, 118, 119, 120, 121, 122, 123, 124, 125, 126, 127, 128, 129, 130, 131, 132, 133, 134, 135, 136, 137, 138, 139, 140, 141, 142, 143, 144],
      "AcquisitionTime": ["145016.957500", "145018.447500", "145019.937500", "145021.427500", "145022.917500", "145024.407500", "145025.897500", "145027.387500", "145028.877500", "145030.367500", "145031.857500", "145033.347500", "145034.837500", "145036.327500", "145037.817500", "145039.307500", "145040.797500", "145042.287500", "145043.777500", "145045.267500", "145046.757500", "145048.247500", "145049.737500", "145051.227500", "145052.717500", "145054.207500", "145055.697500", "145057.187500", "145058.677500", "145100.167500", "145101.657500", "145103.147500", "145104.637500", "145106.127500", "145107.617500", "145109.107500", "145110.597500", "145112.087500", "145113.577500", "145115.067500", "145116.557500", "145118.047500", "145119.537500", "145121.027500", "145122.517500", "145124.007500", "145125.497500", "145126.987500", "145128.477500", "145129.967500", "145131.457500", "145132.947500", "145134.437500", "145135.927500", "145137.417500", "145138.907500", "145140.397500", "145141.887500", "145143.377500", "145144.867500", "145146.357500", "145147.847500", "145149.337500", "145150.827500", "145152.317500", "145153.807500", "145155.297500", "145156.787500", "145158.277500", "145159.767500", "145201.257500", "145202.747500", "145204.237500", "145205.727500", "145207.217500", "145208.707500", "145210.197500", "145211.687500", "145213.177500", "145214.667500", "145216.157500", "145217.647500", "145219.137500", "145220.627500", "145222.117500", "145223.607500", "145225.097500", "145226.587500", "145228.077500", "145229.567500", "145231.057500", "145232.547500", "145234.037500", "145235.527500", "145237.017500", "145238.507500", "145239.997500", "145241.487500", "145242.977500", "145244.467500", "145245.957500", "145247.447500", "145248.937500", "145250.427500", "145251.917500", "145253.407500", "145254.897500", "145256.387500", "145257.877500", "145259.367500", "145300.857500", "145302.347500", "145303.837500", "145305.327500", "145306.817500", "145308.307500", "145309.797500", "145311.287500", "145312.777500", "145314.267500", "145315.757500", "145317.247500", "145318.737500", "145320.227500", "145321.717500", "145323.207500", "145324.697500", "145326.187500", "145327.677500", "145329.167500", "145330.657500", "145332.147500", "145333.637500", "145335.127500", "145336.617500", "145338.107500", "145339.597500", "145341.087500", "145342.577500", "145344.067500", "145345.557500", "145347.047500", "145348.537500", "145350.027500"],
      "ContentTime": ["145124.571000", "145124.574000", "145124.577000", "145124.580000", "145124.583000", "145124.586000", "145124.589000", "145124.591000", "145124.594000", "145124.599000", "145144.533000", "145144.536000", "145144.539000", "145144.541000", "145144.544000", "145144.547000", "145144.550000", "145144.553000", "145144.556000", "145144.558000", "145144.561000", "145144.564000", "145144.567000", "145144.570000", "145144.573000", "145144.576000", "145144.578000", "145144.581000", "145144.584000", "145144.587000", "145144.590000", "145204.533000", "145204.536000", "145204.539000", "145204.548000", "145204.550000", "145204.553000", "145204.556000", "145204.559000", "145204.562000", "145204.565000", "145204.568000", "145204.570000", "145204.573000", "145204.576000", "145204.579000", "145204.582000", "145204.585000", "145204.587000", "145204.590000", "145204.593000", "145224.532000", "145224.535000", "145224.538000", "145224.541000", "145224.543000", "145224.546000", "145224.549000", "145224.552000", "145224.555000", "145224.558000", "145224.561000", "145224.563000", "145224.566000", "145224.569000", "145224.573000", "145224.575000", "145224.578000", "145224.581000", "145224.584000", "145224.587000", "145244.532000", "145244.535000", "145244.538000", "145244.541000", "145244.543000", "145244.549000", "145244.552000", "145244.555000", "145244.558000", "145244.561000", "145244.564000", "145244.567000", "145244.569000", "145244.572000", "145244.575000", "145244.578000", "145244.581000", "145244.584000", "145244.587000", "145244.589000", "145304.532000", "145304.535000", "145304.538000", "145304.541000", "145304.543000", "145304.546000", "145304.549000", "145304.552000", "145304.555000", "145304.558000", "145304.561000", "145304.563000", "145304.566000", "145304.569000", "145304.572000", "145304.584000", "145304.587000", "145304.590000", "145304.592000", "145304.595000", "145344.533000", "145344.536000", "145344.539000", "145344.541000", "145344.544000", "145344.547000", "145344.556000", "145344.559000", "145344.562000", "145344.565000", "145344.567000", "145344.571000", "145344.574000", "145344.576000", "145344.579000", "145344.582000", "145344.585000", "145344.588000", "145344.590000", "145344.593000", "145344.596000", "145344.599000", "145344.602000", "145344.605000", "145344.608000", "145344.610000", "145344.613000", "145352.579000", "145352.582000", "145352.585000", "145352.588000", "145352.591000", "145352.594000"],
      "InstanceCreationTime": ["145124.571000", "145124.574000", "145124.577000", "145124.580000", "145124.583000", "145124.586000", "145124.589000", "145124.591000", "145124.594000", "145124.599000", "145144.533000", "145144.536000", "145144.539000", "145144.541000", "145144.544000", "145144.547000", "145144.550000", "145144.553000", "145144.556000", "145144.558000", "145144.561000", "145144.564000", "145144.567000", "145144.570000", "145144.573000", "145144.576000", "145144.578000", "145144.581000", "145144.584000", "145144.587000", "145144.590000", "145204.533000", "145204.536000", "145204.539000", "145204.548000", "145204.550000", "145204.553000", "145204.556000", "145204.559000", "145204.562000", "145204.565000", "145204.568000", "145204.570000", "145204.573000", "145204.576000", "145204.579000", "145204.582000", "145204.585000", "145204.587000", "145204.590000", "145204.593000", "145224.532000", "145224.535000", "145224.538000", "145224.541000", "145224.543000", "145224.546000", "145224.549000", "145224.552000", "145224.555000", "145224.558000", "145224.561000", "145224.563000", "145224.566000", "145224.569000", "145224.573000", "145224.575000", "145224.578000", "145224.581000", "145224.584000", "145224.587000", "145244.532000", "145244.535000", "145244.538000", "145244.541000", "145244.543000", "145244.549000", "145244.552000", "145244.555000", "145244.558000", "145244.561000", "145244.564000", "145244.567000", "145244.569000", "145244.572000", "145244.575000", "145244.578000", "145244.581000", "145244.584000", "145244.587000", "145244.589000", "145304.532000", "145304.535000", "145304.538000", "145304.541000", "145304.543000", "145304.546000", "145304.549000", "145304.552000", "145304.555000", "145304.558000", "145304.561000", "145304.563000", "145304.566000", "145304.569000", "145304.572000", "145304.584000", "145304.587000", "145304.590000", "145304.592000", "145304.595000", "145344.533000", "145344.536000", "145344.539000", "145344.541000", "145344.544000", "145344.547000", "145344.556000", "145344.559000", "145344.562000", "145344.565000", "145344.567000", "145344.571000", "145344.574000", "145344.576000", "145344.579000", "145344.582000", "145344.585000", "145344.588000", "145344.590000", "145344.593000", "145344.596000", "145344.599000", "145344.602000", "145344.605000", "145344.608000", "145344.610000", "145344.613000", "145352.579000", "145352.582000", "145352.585000", "145352.588000", "145352.591000", "145352.594000"],
      "InstanceNumber": [1, 2, 3, 4, 5, 6, 7, 8, 9, 10, 11, 12, 13, 14, 15, 16, 17, 18, 19, 20, 21, 22, 23, 24, 25, 26, 27, 28, 29, 30, 31, 32, 33, 34, 35, 36, 37, 38, 39, 40, 41, 42, 43, 44, 45, 46, 47, 48, 49, 50, 51, 52, 53, 54, 55, 56, 57, 58, 59, 60, 61, 62, 63, 64, 65, 66, 67, 68, 69, 70, 71, 72, 73, 74, 75, 76, 77, 78, 79, 80, 81, 82, 83, 84, 85, 86, 87, 88, 89, 90, 91, 92, 93, 94, 95, 96, 97, 98, 99, 100, 101, 102, 103, 104, 105, 106, 107, 108, 109, 110, 111, 112, 113, 114, 115, 116, 117, 118, 119, 120, 121, 122, 123, 124, 125, 126, 127, 128, 129, 130, 131, 132, 133, 134, 135, 136, 137, 138, 139, 140, 141, 142, 143, 144],
      "LargestImagePixelValue": [43307, 41904, 40623, 40654, 39978, 40298, 40604, 40141, 39832, 39977, 39537, 40120, 39333, 40044, 40363, 39648, 40067, 40374, 39066, 40437, 39670, 40027, 40382, 39845, 40804, 39976, 39553, 40702, 39760, 39453, 40373, 39765, 39645, 40329, 39963, 39093, 38952, 39489, 39757, 39918, 40726, 40057, 39459, 39456, 40249, 39375, 39561, 39896, 40657, 39911, 39452, 39888, 39926, 39338, 40529, 39249, 40664, 39781, 39944, 39572, 39871, 40534, 40994, 39520, 40274, 40081, 39497, 39972, 39855, 39309, 40104, 40008, 39608, 40257, 40217, 39594, 39775, 39394, 40006, 39735, 39479, 40053, 39402, 40478, 39321, 39937, 40954, 40000, 40009, 40182, 39938, 39944, 39039, 39458, 39730, 39295, 40304, 39483, 39290, 39928, 39073, 41342, 40348, 39308, 40508, 40255, 40423, 41496, 40123, 40202, 39327, 39809, 40807, 38635, 40804, 39485, 40928, 41647, 40930, 40065, 41143, 40068, 40779, 40325, 39618, 41073, 40852, 40935, 41395, 40320, 40893, 40540, 39852, 40281, 40374, 39747, 40238, 40591, 40068, 40730, 40875, 40775, 40317, 39640],
      "WindowCenter": [10187.0, 10134.0, 10107.0, 10101.0, 10103.0, 10116.0, 10125.0, 10119.0, 10122.0, 10142.0, 10146.0, 10155.0, 10151.0, 10171.0, 10173.0, 10158.0, 10156.0, 10161.0, 10158.0, 10170.0, 10171.0, 10180.0, 10179.0, 10181.0, 10178.0, 10156.0, 10148.0, 10160.0, 10149.0, 10141.0, 10145.0, 10138.0, 10132.0, 10147.0, 10141.0, 10128.0, 10128.0, 10135.0, 10158.0, 10175.0, 10183.0, 10159.0, 10143.0, 10128.0, 10144.0, 10151.0, 10150.0, 10140.0, 10138.0, 10132.0, 10111.0, 10119.0, 10120.0, 10122.0, 10135.0, 10117.0, 10118.0, 10106.0, 10111.0, 10127.0, 10159.0, 10179.0, 10163.0, 10125.0, 10120.0, 10113.0, 10122.0, 10143.0, 10140.0, 10125.0, 10130.0, 10124.0, 10123.0, 10137.0, 10138.0, 10138.0, 10139.0, 10142.0, 10155.0, 10164.0, 10177.0, 10183.0, 10171.0, 10173.0, 10155.0, 10163.0, 10177.0, 10150.0, 10140.0, 10137.0, 10137.0, 10125.0, 10112.0, 10108.0, 10107.0, 10109.0, 10119.0, 10109.0, 10113.0, 10124.0, 10125.0, 10148.0, 10154.0, 10160.0, 10155.0, 10131.0, 10126.0, 10137.0, 10119.0, 10141.0, 10138.0, 10156.0, 10162.0, 10124.0, 10127.0, 10116.0, 10163.0, 10167.0, 10142.0, 10114.0, 10114.0, 10100.0, 10113.0, 10124.0, 10113.0, 10111.0, 10101.0, 10092.0, 10088.0, 10082.0, 10103.0, 10109.0, 10114.0, 10119.0, 10115.0, 10115.0, 10123.0, 10136.0, 10128.0, 10151.0, 10188.0, 10181.0, 10164.0, 10136.0],
      "WindowWidth": [21960.0, 21802.0, 21722.0, 21692.0, 21692.0, 21714.0, 21735.0, 21722.0, 21728.0, 21768.0, 21778.0, 21800.0, 21796.0, 21837.0, 21842.0, 21811.0, 21804.0, 21814.0, 21811.0, 21832.0, 21835.0, 21854.0, 21852.0, 21857.0, 21847.0, 21800.0, 21781.0, 21808.0, 21786.0, 21768.0, 21773.0, 21760.0, 21746.0, 21780.0, 21770.0, 21743.0, 21740.0, 21757.0, 21804.0, 21846.0, 21865.0, 21811.0, 21774.0, 21742.0, 21771.0, 21794.0, 21788.0, 21762.0, 21758.0, 21748.0, 21705.0, 21714.0, 21719.0, 21723.0, 21750.0, 21712.0, 21711.0, 21689.0, 21697.0, 21734.0, 21802.0, 21853.0, 21815.0, 21732.0, 21716.0, 21704.0, 21723.0, 21767.0, 21763.0, 21730.0, 21739.0, 21728.0, 21726.0, 21753.0, 21757.0, 21756.0, 21762.0, 21772.0, 21796.0, 21818.0, 21847.0, 21860.0, 21836.0, 21837.0, 21802.0, 21815.0, 21844.0, 21789.0, 21764.0, 21753.0, 21752.0, 21731.0, 21703.0, 21692.0, 21687.0, 21692.0, 21713.0, 21695.0, 21700.0, 21726.0, 21731.0, 21773.0, 21791.0, 21810.0, 21795.0, 21740.0, 21727.0, 21749.0, 21714.0, 21756.0, 21756.0, 21795.0, 21806.0, 21729.0, 21727.0, 21708.0, 21806.0, 21819.0, 21762.0, 21703.0, 21697.0, 21665.0, 21692.0, 21717.0, 21697.0, 21690.0, 21665.0, 21644.0, 21634.0, 21625.0, 21668.0, 21686.0, 21700.0, 21707.0, 21700.0, 21702.0, 21718.0, 21744.0, 21729.0, 21775.0, 21860.0, 21848.0, 21808.0, 21750.0]
    },
    "slices": {}
  }
}