{
  "AcquisitionMatrixPE": 104,
  "AcquisitionNumber": 1,
  "AcquisitionTime": "15:23:31.542500",
  "BandwidthPerPixelPhaseEncode": 17.17,
  "BaseResolution": 104,
  "BodyPartExamined": "BRAIN",
  "CoilString": "HC1-7;NC1_2",
  "ConsistencyInfo": "N4_VE11C_LATEST_20160120",
  "ConversionSoftware": "dcm2niix",
  "ConversionSoftwareVersion": "v1.0.20200427",
  "DerivedVendorReportedEchoSpacing": 0.000560011,
  "DeviceSerialNumber": "167006",
  "DwellTime": 2.1e-06,
  "EchoTime": 0.037,
  "EchoTrainLength": 104,
  "EffectiveEchoSpacing": 0.000560011,
  "FlipAngle": 52,
  "ImageComments": "Unaliased_MB4_PE3_LB",
  "ImageOrientationPatientDICOM": [0.999555, -0.0279989, 0.0103213, 0.0298407, 0.937447, -0.346848],
  "ImageType": [
    "ORIGINAL",
    "PRIMARY",
    "M",
    "MB",
    "ND",
    "MOSAIC"
],
  "ImagingFrequency": 123.259,
  "InPlanePhaseEncodingDirectionDICOM": "COL",
  "InstitutionAddress": "Chemin_Queen-Mary_4565_Montreal_District_CA_H3W_1W5",
  "InstitutionName": "IUGM",
  "InstitutionalDepartmentName": "Department",
  "MRAcquisitionType": "2D",
  "MagneticFieldStrength": 3,
  "Manufacturer": "Siemens",
  "ManufacturersModelName": "Prisma_fit",
  "Modality": "MR",
  "MultibandAccelerationFactor": 4,
  "PartialFourier": 1,
  "PatientPosition": "HFS",
  "PercentPhaseFOV": 100,
  "PercentSampling": 100,
  "PhaseEncodingDirection": "j",
  "PhaseEncodingSteps": 104,
  "PhaseResolution": 1,
  "PixelBandwidth": 2290,
  "ProcedureStepDescription": "hcptrt_generic",
  "ProtocolName": "func_task-motor_run-2",
  "PulseSequenceDetails": "%CustomerSeq%_cmrr_mbep2d_bold",
  "ReceiveCoilActiveElements": "HC1-7;NC1,2",
  "ReceiveCoilName": "HeadNeck_64",
  "ReconMatrixPE": 104,
  "RepetitionTime": 1.49,
  "SAR": 0.0291578,
  "ScanOptions": "FS",
  "ScanningSequence": "EP",
  "SequenceName": "epfid2d1_104",
  "SequenceVariant": "SK_SS",
  "SeriesDescription": "func_task-motor_run-2",
  "SeriesNumber": 29,
  "ShimSetting": [632, -7251, -8849, 616, 11, -208, -122, -10],
  "SliceThickness": 2,
  "SliceTiming": [0, 0.785, 0.0975, 0.8825, 0.195, 0.98, 0.295, 1.0775, 0.3925, 1.175, 0.49, 1.275, 0.5875, 1.3725, 0.685, 0, 0.785, 0.0975, 0.8825, 0.195, 0.98, 0.295, 1.0775, 0.3925, 1.175, 0.49, 1.275, 0.5875, 1.3725, 0.685, 0, 0.785, 0.0975, 0.8825, 0.195, 0.98, 0.295, 1.0775, 0.3925, 1.175, 0.49, 1.275, 0.5875, 1.3725, 0.685, 0, 0.785, 0.0975, 0.8825, 0.195, 0.98, 0.295, 1.0775, 0.3925, 1.175, 0.49, 1.275, 0.5875, 1.3725, 0.685],
  "SoftwareVersions": "syngo_MR_E11",
  "SpacingBetweenSlices": 2,
  "StationName": "MRC35049",
  "TaskName": "motor",
  "TotalReadoutTime": 0.0576811,
  "TxRefAmp": 218.043,
  "WipMemBlock": "473e916a-1faf-41f5-a3dc-3dd3db3217c3||Sequence: R016 ve11c/master r/e634e98; Dec 19 2017 11:00:25 by eja",
  "dcmmeta_affine": [
    [-1.9991093873977661, 0.05968131870031357, -7.125393312890083e-05, 103.35945129394531],
    [0.05599771812558174, 1.874893307685852, -0.6940022110939026, -67.03411102294922],
    [0.020642688497900963, 0.6936951875686646, 1.8757294416427612, -70.92921447753906],
    [0.0, 0.0, 0.0, 1.0]
],
  "dcmmeta_reorient_transform": [
    [0.0, -1.0, 0.0, 103.0],
    [1.0, 0.0, 0.0, 0.0],
    [0.0, 0.0, 1.0, 0.0],
    [0.0, 0.0, 0.0, 1.0]
],
  "dcmmeta_shape": [104, 104, 60, 144],
  "dcmmeta_slice_dim": 2,
  "dcmmeta_version": 0.6,
  "global": {
    "const": {
      "AcquisitionMatrix": [104, 0, 0, 104],
      "AngioFlag": "N",
      "BitsAllocated": 16,
      "BitsStored": 16,
      "BodyPartExamined": "BRAIN",
      "Columns": 832,
      "EchoNumbers": 1,
      "EchoTime": 37.0,
      "EchoTrainLength": 104,
      "FlipAngle": 52.0,
      "HighBit": 15,
      "ImageOrientationPatient": [0.99955466772895, -0.0279988585376, 0.01032134399501, 0.02984065937595, 0.93744668281497, -0.3468475917852],
      "ImagePositionPatient": [-858.90642153353, -788.15792332537, 245.51250127794],
      "ImageType": [
        "ORIGINAL",
        "PRIMARY",
        "M",
        "MB",
        "ND",
        "MOSAIC"
],
      "ImagedNucleus": "1H",
      "ImagingFrequency": 123.259394,
      "InPlanePhaseEncodingDirection": "COL",
      "MRAcquisitionType": "2D",
      "MagneticFieldStrength": 3.0,
      "Manufacturer": "SIEMENS",
      "ManufacturerModelName": "Prisma_fit",
      "Modality": "MR",
      "NumberOfAverages": 1.0,
      "NumberOfPhaseEncodingSteps": 104,
      "PercentPhaseFieldOfView": 100.0,
      "PercentSampling": 100.0,
      "PerformedProcedureStepStartTime": "142210.086000",
      "PhotometricInterpretation": "MONOCHROME2",
      "PixelBandwidth": 2290.0,
      "PixelRepresentation": 0,
      "PixelSpacing": [2.0, 2.0],
      "ProtocolName": "func_task-motor_run-2",
      "RepetitionTime": 1490.0,
      "Rows": 832,
      "SAR": 0.02915776809312,
      "SamplesPerPixel": 1,
      "ScanOptions": "FS",
      "ScanningSequence": "EP",
      "SequenceName": "epfid2d1_104",
      "SequenceVariant": [
        "SK",
        "SS"
],
      "SeriesDescription": "func_task-motor_run-2",
      "SeriesNumber": 29,
      "SeriesTime": "152502.617000",
      "SliceLocation": -43.264775064295,
      "SliceThickness": 2.0,
      "SmallestImagePixelValue": 0,
      "SoftwareVersions": "syngo MR E11",
      "SpacingBetweenSlices": 1.9999999610996,
      "SpecificCharacterSet": "ISO_IR 100",
      "StudyID": "1",
      "StudyTime": "142209.924000",
      "TransmitCoilName": "Body",
      "VariableFlipAngleFlag": "N",
      "WindowCenterWidthExplanation": "Algo1",
      "dBdt": 0.0},
    "slices": {}
  },
  "time": {
    "samples": {
      "AcquisitionNumber": [1, 2, 3, 4, 5, 6, 7, 8, 9, 10, 11, 12, 13, 14, 15, 16, 17, 18, 19, 20, 21, 22, 23, 24, 25, 26, 27, 28, 29, 30, 31, 32, 33, 34, 35, 36, 37, 38, 39, 40, 41, 42, 43, 44, 45, 46, 47, 48, 49, 50, 51, 52, 53, 54, 55, 56, 57, 58, 59, 60, 61, 62, 63, 64, 65, 66, 67, 68, 69, 70, 71, 72, 73, 74, 75, 76, 77, 78, 79, 80, 81, 82, 83, 84, 85, 86, 87, 88, 89, 90, 91, 92, 93, 94, 95, 96, 97, 98, 99, 100, 101, 102, 103, 104, 105, 106, 107, 108, 109, 110, 111, 112, 113, 114, 115, 116, 117, 118, 119, 120, 121, 122, 123, 124, 125, 126, 127, 128, 129, 130, 131, 132, 133, 134, 135, 136, 137, 138, 139, 140, 141, 142, 143, 144],
      "AcquisitionTime": ["152331.542500", "152333.032500", "152334.522500", "152336.012500", "152337.502500", "152338.992500", "152340.482500", "152341.972500", "152343.462500", "152344.952500", "152346.442500", "152347.932500", "152349.422500", "152350.912500", "152352.402500", "152353.892500", "152355.382500", "152356.872500", "152358.362500", "152359.852500", "152401.342500", "152402.832500", "152404.322500", "152405.812500", "152407.302500", "152408.792500", "152410.282500", "152411.772500", "152413.262500", "152414.752500", "152416.242500", "152417.732500", "152419.222500", "152420.712500", "152422.202500", "152423.692500", "152425.182500", "152426.672500", "152428.162500", "152429.652500", "152431.142500", "152432.632500", "152434.122500", "152435.612500", "152437.102500", "152438.592500", "152440.082500", "152441.572500", "152443.062500", "152444.552500", "152446.042500", "152447.532500", "152449.022500", "152450.512500", "152452.002500", "152453.492500", "152454.982500", "152456.472500", "152457.962500", "152459.452500", "152500.942500", "152502.432500", "152503.922500", "152505.412500", "152506.902500", "152508.392500", "152509.882500", "152511.372500", "152512.862500", "152514.352500", "152515.842500", "152517.332500", "152518.822500", "152520.312500", "152521.802500", "152523.292500", "152524.782500", "152526.272500", "152527.762500", "152529.252500", "152530.742500", "152532.232500", "152533.722500", "152535.212500", "152536.702500", "152538.192500", "152539.682500", "152541.172500", "152542.662500", "152544.152500", "152545.642500", "152547.132500", "152548.622500", "152550.112500", "152551.602500", "152553.092500", "152554.582500", "152556.072500", "152557.562500", "152559.052500", "152600.542500", "152602.032500", "152603.522500", "152605.012500", "152606.502500", "152607.992500", "152609.482500", "152610.972500", "152612.462500", "152613.952500", "152615.442500", "152616.932500", "152618.422500", "152619.912500", "152621.402500", "152622.892500", "152624.382500", "152625.872500", "152627.362500", "152628.852500", "152630.342500", "152631.832500", "152633.322500", "152634.812500", "152636.302500", "152637.792500", "152639.282500", "152640.772500", "152642.262500", "152643.752500", "152645.242500", "152646.732500", "152648.222500", "152649.712500", "152651.202500", "152652.692500", "152654.182500", "152655.672500", "152657.162500", "152658.652500", "152700.142500", "152701.632500", "152703.122500", "152704.612500"],
      "ContentTime": ["152502.620000", "152502.623000", "152502.626000", "152502.639000", "152502.642000", "152502.645000", "152502.648000", "152502.650000", "152502.653000", "152502.656000", "152502.659000", "152502.662000", "152502.665000", "152502.668000", "152502.670000", "152502.673000", "152502.676000", "152502.679000", "152502.682000", "152502.685000", "152502.688000", "152502.690000", "152502.693000", "152502.696000", "152502.699000", "152502.716000", "152502.719000", "152502.722000", "152502.725000", "152502.728000", "152502.730000", "152502.733000", "152502.736000", "152502.739000", "152502.742000", "152502.745000", "152522.583000", "152522.586000", "152522.589000", "152522.592000", "152522.594000", "152522.597000", "152522.600000", "152522.603000", "152522.606000", "152522.609000", "152522.611000", "152522.614000", "152522.617000", "152522.620000", "152522.623000", "152522.629000", "152522.631000", "152522.634000", "152522.637000", "152522.640000", "152522.643000", "152542.583000", "152542.586000", "152542.588000", "152542.591000", "152542.594000", "152542.597000", "152542.600000", "152542.603000", "152542.606000", "152542.609000", "152542.611000", "152542.614000", "152542.617000", "152542.620000", "152542.623000", "152542.626000", "152542.629000", "152542.631000", "152542.634000", "152542.637000", "152602.584000", "152602.587000", "152602.590000", "152602.592000", "152602.595000", "152602.598000", "152602.601000", "152602.604000", "152602.607000", "152602.610000", "152602.612000", "152602.615000", "152602.618000", "152602.621000", "152602.624000", "152602.627000", "152602.630000", "152602.632000", "152602.635000", "152602.638000", "152642.583000", "152642.586000", "152642.589000", "152642.591000", "152642.594000", "152642.597000", "152642.600000", "152642.603000", "152642.606000", "152642.609000", "152642.612000", "152642.614000", "152642.617000", "152642.620000", "152642.623000", "152642.626000", "152642.629000", "152642.632000", "152642.634000", "152642.637000", "152642.640000", "152642.643000", "152642.646000", "152642.649000", "152642.652000", "152642.654000", "152642.657000", "152642.660000", "152642.663000", "152642.666000", "152706.720000", "152706.723000", "152706.726000", "152706.729000", "152706.732000", "152706.735000", "152706.738000", "152706.741000", "152706.744000", "152706.746000", "152706.749000", "152706.752000", "152706.755000", "152706.758000", "152706.761000", "152706.763000", "152706.766000"],
      "InstanceCreationTime": ["152502.620000", "152502.623000", "152502.626000", "152502.639000", "152502.642000", "152502.645000", "152502.648000", "152502.650000", "152502.653000", "152502.656000", "152502.659000", "152502.662000", "152502.665000", "152502.668000", "152502.670000", "152502.673000", "152502.676000", "152502.679000", "152502.682000", "152502.685000", "152502.688000", "152502.690000", "152502.693000", "152502.696000", "152502.699000", "152502.716000", "152502.719000", "152502.722000", "152502.725000", "152502.728000", "152502.730000", "152502.733000", "152502.736000", "152502.739000", "152502.742000", "152502.745000", "152522.583000", "152522.586000", "152522.589000", "152522.592000", "152522.594000", "152522.597000", "152522.600000", "152522.603000", "152522.606000", "152522.609000", "152522.611000", "152522.614000", "152522.617000", "152522.620000", "152522.623000", "152522.629000", "152522.631000", "152522.634000", "152522.637000", "152522.640000", "152522.643000", "152542.583000", "152542.586000", "152542.588000", "152542.591000", "152542.594000", "152542.597000", "152542.600000", "152542.603000", "152542.606000", "152542.609000", "152542.611000", "152542.614000", "152542.617000", "152542.620000", "152542.623000", "152542.626000", "152542.629000", "152542.631000", "152542.634000", "152542.637000", "152602.584000", "152602.587000", "152602.590000", "152602.592000", "152602.595000", "152602.598000", "152602.601000", "152602.604000", "152602.607000", "152602.610000", "152602.612000", "152602.615000", "152602.618000", "152602.621000", "152602.624000", "152602.627000", "152602.630000", "152602.632000", "152602.635000", "152602.638000", "152642.583000", "152642.586000", "152642.589000", "152642.591000", "152642.594000", "152642.597000", "152642.600000", "152642.603000", "152642.606000", "152642.609000", "152642.612000", "152642.614000", "152642.617000", "152642.620000", "152642.623000", "152642.626000", "152642.629000", "152642.632000", "152642.634000", "152642.637000", "152642.640000", "152642.643000", "152642.646000", "152642.649000", "152642.652000", "152642.654000", "152642.657000", "152642.660000", "152642.663000", "152642.666000", "152706.720000", "152706.723000", "152706.726000", "152706.729000", "152706.732000", "152706.735000", "152706.738000", "152706.741000", "152706.744000", "152706.746000", "152706.749000", "152706.752000", "152706.755000", "152706.758000", "152706.761000", "152706.763000", "152706.766000"],
      "InstanceNumber": [1, 2, 3, 4, 5, 6, 7, 8, 9, 10, 11, 12, 13, 14, 15, 16, 17, 18, 19, 20, 21, 22, 23, 24, 25, 26, 27, 28, 29, 30, 31, 32, 33, 34, 35, 36, 37, 38, 39, 40, 41, 42, 43, 44, 45, 46, 47, 48, 49, 50, 51, 52, 53, 54, 55, 56, 57, 58, 59, 60, 61, 62, 63, 64, 65, 66, 67, 68, 69, 70, 71, 72, 73, 74, 75, 76, 77, 78, 79, 80, 81, 82, 83, 84, 85, 86, 87, 88, 89, 90, 91, 92, 93, 94, 95, 96, 97, 98, 99, 100, 101, 102, 103, 104, 105, 106, 107, 108, 109, 110, 111, 112, 113, 114, 115, 116, 117, 118, 119, 120, 121, 122, 123, 124, 125, 126, 127, 128, 129, 130, 131, 132, 133, 134, 135, 136, 137, 138, 139, 140, 141, 142, 143, 144],
      "LargestImagePixelValue": [42750, 41371, 40752, 40087, 40318, 40330, 39492, 40324, 39540, 40113, 39748, 39534, 39959, 39344, 39273, 39559, 39196, 39669, 39812, 39643, 39668, 39800, 39530, 39808, 39790, 39637, 39346, 38557, 39439, 39843, 39886, 40129, 40316, 40400, 40555, 40530, 39971, 40648, 40103, 39692, 40719, 40059, 40509, 40291, 40209, 39922, 40891, 41374, 40689, 40365, 40550, 40102, 40639, 40920, 40918, 40673, 40705, 40646, 40883, 40381, 40942, 40980, 40493, 40988, 40608, 40698, 40882, 40331, 40549, 40766, 40799, 40891, 40560, 40841, 40617, 40869, 40368, 40576, 41026, 40668, 40716, 40586, 40661, 41005, 40659, 41333, 39787, 40477, 40860, 40664, 40592, 40599, 40525, 40380, 40302, 40379, 40767, 40587, 40296, 40488, 40142, 40641, 40196, 40634, 40675, 40595, 40317, 40695, 40566, 40433, 40394, 40748, 40319, 40590, 40186, 40440, 40889, 40784, 41010, 40503, 40435, 38775, 38853, 40206, 40199, 39917, 40081, 39892, 40368, 40554, 40765, 40151, 40535, 40248, 40719, 40076, 40856, 40388, 40527, 40441, 40492, 40247, 40579, 40543],
      "WindowCenter": [10177.0, 10086.0, 10044.0, 10031.0, 10060.0, 10063.0, 10042.0, 10033.0, 10028.0, 10048.0, 10060.0, 10055.0, 10046.0, 10039.0, 10040.0, 10052.0, 10057.0, 10071.0, 10056.0, 10021.0, 10001.0, 9996.0, 10006.0, 10015.0, 10019.0, 9993.0, 9968.0, 9963.0, 9997.0, 10013.0, 10028.0, 10034.0, 10032.0, 10009.0, 10007.0, 10006.0, 10013.0, 10020.0, 10031.0, 10049.0, 10086.0, 10043.0, 10032.0, 10023.0, 10014.0, 10021.0, 10049.0, 10053.0, 10032.0, 9993.0, 9979.0, 9986.0, 10016.0, 10042.0, 10059.0, 10053.0, 10067.0, 10048.0, 10042.0, 10054.0, 10054.0, 10043.0, 10029.0, 10042.0, 10053.0, 10046.0, 10028.0, 10015.0, 10027.0, 10045.0, 10047.0, 10030.0, 10014.0, 10017.0, 10028.0, 10042.0, 10045.0, 10044.0, 10035.0, 10028.0, 10019.0, 10018.0, 10017.0, 10024.0, 10020.0, 10007.0, 9988.0, 9992.0, 10003.0, 9997.0, 9997.0, 9990.0, 9973.0, 9958.0, 9970.0, 9982.0, 10004.0, 10006.0, 10002.0, 9992.0, 9974.0, 9978.0, 9991.0, 10012.0, 10008.0, 10000.0, 9992.0, 9989.0, 9998.0, 10028.0, 10034.0, 10033.0, 10017.0, 10001.0, 9993.0, 9991.0, 10012.0, 10021.0, 10029.0, 10028.0, 10028.0, 9991.0, 9965.0, 9967.0, 9965.0, 9958.0, 9959.0, 9943.0, 9940.0, 9939.0, 9938.0, 9931.0, 9952.0, 9962.0, 9979.0, 9974.0, 9993.0, 10005.0, 10022.0, 10035.0, 10033.0, 10025.0, 10023.0, 10028.0],
      "WindowWidth": [21891.0, 21652.0, 21533.0, 21493.0, 21547.0, 21551.0, 21503.0, 21476.0, 21466.0, 21507.0, 21536.0, 21528.0, 21508.0, 21495.0, 21497.0, 21520.0, 21534.0, 21564.0, 21532.0, 21453.0, 21404.0, 21391.0, 21413.0, 21434.0, 21443.0, 21387.0, 21329.0, 21321.0, 21390.0, 21425.0, 21459.0, 21472.0, 21468.0, 21421.0, 21414.0, 21410.0, 21427.0, 21441.0, 21467.0, 21510.0, 21589.0, 21502.0, 21471.0, 21452.0, 21427.0, 21442.0, 21503.0, 21512.0, 21470.0, 21385.0, 21350.0, 21366.0, 21433.0, 21488.0, 21526.0, 21514.0, 21547.0, 21505.0, 21486.0, 21517.0, 21519.0, 21490.0, 21460.0, 21488.0, 21513.0, 21498.0, 21456.0, 21429.0, 21453.0, 21494.0, 21500.0, 21459.0, 21422.0, 21429.0, 21455.0, 21485.0, 21494.0, 21487.0, 21468.0, 21453.0, 21434.0, 21433.0, 21429.0, 21442.0, 21434.0, 21405.0, 21368.0, 21374.0, 21394.0, 21383.0, 21383.0, 21366.0, 21329.0, 21297.0, 21322.0, 21353.0, 21398.0, 21405.0, 21396.0, 21373.0, 21331.0, 21337.0, 21368.0, 21411.0, 21405.0, 21387.0, 21370.0, 21363.0, 21383.0, 21446.0, 21463.0, 21460.0, 21426.0, 21392.0, 21373.0, 21370.0, 21414.0, 21432.0, 21450.0, 21449.0, 21452.0, 21380.0, 21319.0, 21319.0, 21311.0, 21297.0, 21299.0, 21263.0, 21252.0, 21251.0, 21248.0, 21235.0, 21278.0, 21304.0, 21341.0, 21333.0, 21367.0, 21395.0, 21432.0, 21464.0, 21461.0, 21438.0, 21434.0, 21445.0]
    },
    "slices": {}
  }
}