{
  "AcquisitionMatrixPE": 104,
  "AcquisitionNumber": 1,
  "AcquisitionTime": "15:36:21.762500",
  "BandwidthPerPixelPhaseEncode": 17.17,
  "BaseResolution": 104,
  "BodyPartExamined": "BRAIN",
  "CoilString": "HC1-7;NC1_2",
  "ConsistencyInfo": "N4_VE11C_LATEST_20160120",
  "ConversionSoftware": "dcm2niix",
  "ConversionSoftwareVersion": "v1.0.20200427",
  "DerivedVendorReportedEchoSpacing": 0.000560011,
  "DeviceSerialNumber": "167006",
  "DwellTime": 2.1e-06,
  "EchoTime": 0.037,
  "EchoTrainLength": 104,
  "EffectiveEchoSpacing": 0.000560011,
  "FlipAngle": 52,
  "ImageComments": "Unaliased_MB4_PE3_LB",
  "ImageOrientationPatientDICOM": [0.999555, -0.0279989, 0.0103213, 0.0298407, 0.937447, -0.346848],
  "ImageType": [
    "ORIGINAL",
    "PRIMARY",
    "M",
    "MB",
    "ND",
    "MOSAIC"
],
  "ImagingFrequency": 123.259,
  "InPlanePhaseEncodingDirectionDICOM": "COL",
  "InstitutionAddress": "Chemin_Queen-Mary_4565_Montreal_District_CA_H3W_1W5",
  "InstitutionName": "IUGM",
  "InstitutionalDepartmentName": "Department",
  "MRAcquisitionType": "2D",
  "MagneticFieldStrength": 3,
  "Manufacturer": "Siemens",
  "ManufacturersModelName": "Prisma_fit",
  "Modality": "MR",
  "MultibandAccelerationFactor": 4,
  "PartialFourier": 1,
  "PatientPosition": "HFS",
  "PercentPhaseFOV": 100,
  "PercentSampling": 100,
  "PhaseEncodingDirection": "j",
  "PhaseEncodingSteps": 104,
  "PhaseResolution": 1,
  "PixelBandwidth": 2290,
  "ProcedureStepDescription": "hcptrt_generic",
  "ProtocolName": "func_task-language_run-2",
  "PulseSequenceDetails": "%CustomerSeq%_cmrr_mbep2d_bold",
  "ReceiveCoilActiveElements": "HC1-7;NC1,2",
  "ReceiveCoilName": "HeadNeck_64",
  "ReconMatrixPE": 104,
  "RepetitionTime": 1.49,
  "SAR": 0.0291936,
  "ScanOptions": "FS",
  "ScanningSequence": "EP",
  "SequenceName": "epfid2d1_104",
  "SequenceVariant": "SK_SS",
  "SeriesDescription": "func_task-language_run-2",
  "SeriesNumber": 35,
  "ShimSetting": [632, -7251, -8849, 616, 11, -208, -122, -10],
  "SliceThickness": 2,
  "SliceTiming": [0, 0.785, 0.0975, 0.8825, 0.1975, 0.98, 0.295, 1.0775, 0.3925, 1.1775, 0.49, 1.275, 0.5875, 1.3725, 0.6875, 0, 0.785, 0.0975, 0.8825, 0.1975, 0.98, 0.295, 1.0775, 0.3925, 1.1775, 0.49, 1.275, 0.5875, 1.3725, 0.6875, 0, 0.785, 0.0975, 0.8825, 0.1975, 0.98, 0.295, 1.0775, 0.3925, 1.1775, 0.49, 1.275, 0.5875, 1.3725, 0.6875, 0, 0.785, 0.0975, 0.8825, 0.1975, 0.98, 0.295, 1.0775, 0.3925, 1.1775, 0.49, 1.275, 0.5875, 1.3725, 0.6875],
  "SoftwareVersions": "syngo_MR_E11",
  "SpacingBetweenSlices": 2,
  "StationName": "MRC35049",
  "TaskName": "language",
  "TotalReadoutTime": 0.0576811,
  "TxRefAmp": 218.043,
  "WipMemBlock": "f01b25e4-bb47-42a1-9e0e-cc74a0885f45||Sequence: R016 ve11c/master r/e634e98; Dec 19 2017 11:00:25 by eja",
  "dcmmeta_affine": [
    [-1.9991093873977661, 0.05968131870031357, -7.125393312890083e-05, 103.35945129394531],
    [0.05599771812558174, 1.874893307685852, -0.6940022110939026, -67.03411102294922],
    [0.020642688497900963, 0.6936951875686646, 1.8757294416427612, -70.92921447753906],
    [0.0, 0.0, 0.0, 1.0]
],
  "dcmmeta_reorient_transform": [
    [0.0, -1.0, 0.0, 103.0],
    [1.0, 0.0, 0.0, 0.0],
    [0.0, 0.0, 1.0, 0.0],
    [0.0, 0.0, 0.0, 1.0]
],
  "dcmmeta_shape": [104, 104, 60, 159],
  "dcmmeta_slice_dim": 2,
  "dcmmeta_version": 0.6,
  "global": {
    "const": {
      "AcquisitionMatrix": [104, 0, 0, 104],
      "AngioFlag": "N",
      "BitsAllocated": 16,
      "BitsStored": 16,
      "BodyPartExamined": "BRAIN",
      "Columns": 832,
      "EchoNumbers": 1,
      "EchoTime": 37.0,
      "EchoTrainLength": 104,
      "FlipAngle": 52.0,
      "HighBit": 15,
      "ImageOrientationPatient": [0.99955466772895, -0.0279988585376, 0.01032134399501, 0.02984065937595, 0.93744668281497, -0.3468475917852],
      "ImagePositionPatient": [-858.90642153353, -788.15792332537, 245.51250127794],
      "ImageType": [
        "ORIGINAL",
        "PRIMARY",
        "M",
        "MB",
        "ND",
        "MOSAIC"
],
      "ImagedNucleus": "1H",
      "ImagingFrequency": 123.259398,
      "InPlanePhaseEncodingDirection": "COL",
      "MRAcquisitionType": "2D",
      "MagneticFieldStrength": 3.0,
      "Manufacturer": "SIEMENS",
      "ManufacturerModelName": "Prisma_fit",
      "Modality": "MR",
      "NumberOfAverages": 1.0,
      "NumberOfPhaseEncodingSteps": 104,
      "PercentPhaseFieldOfView": 100.0,
      "PercentSampling": 100.0,
      "PerformedProcedureStepStartTime": "142210.086000",
      "PhotometricInterpretation": "MONOCHROME2",
      "PixelBandwidth": 2290.0,
      "PixelRepresentation": 0,
      "PixelSpacing": [2.0, 2.0],
      "ProtocolName": "func_task-language_run-2",
      "RepetitionTime": 1490.0,
      "Rows": 832,
      "SAR": 0.02919360261053,
      "SamplesPerPixel": 1,
      "ScanOptions": "FS",
      "ScanningSequence": "EP",
      "SequenceName": "epfid2d1_104",
      "SequenceVariant": [
        "SK",
        "SS"
],
      "SeriesDescription": "func_task-language_run-2",
      "SeriesNumber": 35,
      "SeriesTime": "153742.612000",
      "SliceLocation": -43.264775064295,
      "SliceThickness": 2.0,
      "SmallestImagePixelValue": 0,
      "SoftwareVersions": "syngo MR E11",
      "SpacingBetweenSlices": 1.9999999610996,
      "SpecificCharacterSet": "ISO_IR 100",
      "StudyID": "1",
      "StudyTime": "142209.924000",
      "TransmitCoilName": "Body",
      "VariableFlipAngleFlag": "N",
      "WindowCenterWidthExplanation": "Algo1",
      "dBdt": 0.0},
    "slices": {}
  },
  "time": {
    "samples": {
      "AcquisitionNumber": [1, 2, 3, 4, 5, 6, 7, 8, 9, 10, 11, 12, 13, 14, 15, 16, 17, 18, 19, 20, 21, 22, 23, 24, 25, 26, 27, 28, 29, 30, 31, 32, 33, 34, 35, 36, 37, 38, 39, 40, 41, 42, 43, 44, 45, 46, 47, 48, 49, 50, 51, 52, 53, 54, 55, 56, 57, 58, 59, 60, 61, 62, 63, 64, 65, 66, 67, 68, 69, 70, 71, 72, 73, 74, 75, 76, 77, 78, 79, 80, 81, 82, 83, 84, 85, 86, 87, 88, 89, 90, 91, 92, 93, 94, 95, 96, 97, 98, 99, 100, 101, 102, 103, 104, 105, 106, 107, 108, 109, 110, 111, 112, 113, 114, 115, 116, 117, 118, 119, 120, 121, 122, 123, 124, 125, 126, 127, 128, 129, 130, 131, 132, 133, 134, 135, 136, 137, 138, 139, 140, 141, 142, 143, 144, 145, 146, 147, 148, 149, 150, 151, 152, 153, 154, 155, 156, 157, 158, 159],
      "AcquisitionTime": ["153621.762500", "153623.252500", "153624.742500", "153626.232500", "153627.722500", "153629.212500", "153630.702500", "153632.192500", "153633.682500", "153635.172500", "153636.662500", "153638.152500", "153639.642500", "153641.132500", "153642.622500", "153644.112500", "153645.602500", "153647.092500", "153648.582500", "153650.072500", "153651.562500", "153653.052500", "153654.542500", "153656.032500", "153657.522500", "153659.012500", "153700.502500", "153701.992500", "153703.482500", "153704.972500", "153706.462500", "153707.952500", "153709.442500", "153710.932500", "153712.422500", "153713.912500", "153715.402500", "153716.892500", "153718.382500", "153719.872500", "153721.362500", "153722.852500", "153724.342500", "153725.832500", "153727.322500", "153728.812500", "153730.302500", "153731.792500", "153733.282500", "153734.772500", "153736.262500", "153737.752500", "153739.242500", "153740.732500", "153742.222500", "153743.712500", "153745.202500", "153746.692500", "153748.182500", "153749.672500", "153751.162500", "153752.652500", "153754.142500", "153755.632500", "153757.122500", "153758.612500", "153800.102500", "153801.592500", "153803.082500", "153804.572500", "153806.062500", "153807.552500", "153809.042500", "153810.532500", "153812.022500", "153813.512500", "153815.002500", "153816.492500", "153817.982500", "153819.472500", "153820.962500", "153822.452500", "153823.942500", "153825.432500", "153826.922500", "153828.412500", "153829.902500", "153831.392500", "153832.882500", "153834.372500", "153835.862500", "153837.352500", "153838.842500", "153840.332500", "153841.822500", "153843.312500", "153844.802500", "153846.292500", "153847.782500", "153849.272500", "153850.762500", "153852.252500", "153853.742500", "153855.232500", "153856.722500", "153858.212500", "153859.702500", "153901.192500", "153902.682500", "153904.172500", "153905.662500", "153907.152500", "153908.642500", "153910.132500", "153911.622500", "153913.112500", "153914.602500", "153916.092500", "153917.582500", "153919.072500", "153920.562500", "153922.052500", "153923.542500", "153925.032500", "153926.522500", "153928.012500", "153929.502500", "153930.992500", "153932.482500", "153933.972500", "153935.462500", "153936.952500", "153938.442500", "153939.932500", "153941.422500", "153942.912500", "153944.402500", "153945.892500", "153947.382500", "153948.872500", "153950.362500", "153951.852500", "153953.342500", "153954.832500", "153956.322500", "153957.812500", "153959.302500", "154000.792500", "154002.282500", "154003.772500", "154005.262500", "154006.752500", "154008.242500", "154009.732500", "154011.222500", "154012.712500", "154014.202500", "154015.692500", "154017.182500"],
      "ContentTime": ["153742.615000", "153742.619000", "153742.621000", "153742.624000", "153742.627000", "153742.630000", "153742.633000", "153742.636000", "153742.641000", "153742.644000", "153742.648000", "153742.651000", "153742.654000", "153742.657000", "153742.660000", "153742.662000", "153742.665000", "153742.668000", "153742.671000", "153742.674000", "153742.677000", "153742.680000", "153742.682000", "153742.685000", "153742.688000", "153742.691000", "153742.694000", "153742.696000", "153802.583000", "153802.586000", "153802.590000", "153802.593000", "153802.596000", "153802.600000", "153802.603000", "153802.606000", "153802.609000", "153802.613000", "153802.615000", "153802.618000", "153802.621000", "153802.624000", "153802.627000", "153802.630000", "153802.633000", "153802.636000", "153802.638000", "153802.641000", "153822.583000", "153822.586000", "153822.589000", "153822.591000", "153822.610000", "153822.613000", "153822.616000", "153822.619000", "153822.622000", "153822.624000", "153822.627000", "153822.630000", "153822.639000", "153822.641000", "153822.644000", "153822.647000", "153822.650000", "153822.653000", "153822.656000", "153822.658000", "153842.583000", "153842.586000", "153842.595000", "153842.598000", "153842.601000", "153842.603000", "153842.606000", "153842.609000", "153842.612000", "153842.615000", "153842.617000", "153842.620000", "153842.623000", "153842.626000", "153842.629000", "153842.632000", "153842.635000", "153842.638000", "153842.640000", "153842.643000", "153922.583000", "153922.586000", "153922.589000", "153922.591000", "153922.595000", "153922.597000", "153922.600000", "153922.603000", "153922.606000", "153922.609000", "153922.612000", "153922.615000", "153922.618000", "153922.621000", "153922.624000", "153922.626000", "153922.629000", "153922.632000", "153922.635000", "153922.638000", "153922.641000", "153922.643000", "153922.646000", "153922.649000", "153922.652000", "153922.655000", "153922.658000", "153922.661000", "153922.663000", "153922.666000", "153922.669000", "153922.672000", "154002.583000", "154002.586000", "154002.589000", "154002.592000", "154002.595000", "154002.597000", "154002.600000", "154002.603000", "154002.606000", "154002.609000", "154002.612000", "154002.615000", "154002.618000", "154002.621000", "154002.624000", "154002.626000", "154002.629000", "154002.632000", "154002.641000", "154002.643000", "154002.646000", "154002.649000", "154002.652000", "154002.655000", "154002.658000", "154002.661000", "154002.664000", "154019.278000", "154019.282000", "154019.284000", "154019.287000", "154019.290000", "154019.293000", "154019.296000", "154019.299000", "154019.302000", "154019.305000", "154019.307000", "154019.310000"],
      "InstanceCreationTime": ["153742.615000", "153742.619000", "153742.621000", "153742.624000", "153742.627000", "153742.630000", "153742.633000", "153742.636000", "153742.641000", "153742.644000", "153742.648000", "153742.651000", "153742.654000", "153742.657000", "153742.660000", "153742.662000", "153742.665000", "153742.668000", "153742.671000", "153742.674000", "153742.677000", "153742.680000", "153742.682000", "153742.685000", "153742.688000", "153742.691000", "153742.694000", "153742.696000", "153802.583000", "153802.586000", "153802.590000", "153802.593000", "153802.596000", "153802.600000", "153802.603000", "153802.606000", "153802.609000", "153802.613000", "153802.615000", "153802.618000", "153802.621000", "153802.624000", "153802.627000", "153802.630000", "153802.633000", "153802.636000", "153802.638000", "153802.641000", "153822.583000", "153822.586000", "153822.589000", "153822.591000", "153822.610000", "153822.613000", "153822.616000", "153822.619000", "153822.622000", "153822.624000", "153822.627000", "153822.630000", "153822.639000", "153822.641000", "153822.644000", "153822.647000", "153822.650000", "153822.653000", "153822.656000", "153822.658000", "153842.583000", "153842.586000", "153842.595000", "153842.598000", "153842.601000", "153842.603000", "153842.606000", "153842.609000", "153842.612000", "153842.615000", "153842.617000", "153842.620000", "153842.623000", "153842.626000", "153842.629000", "153842.632000", "153842.635000", "153842.638000", "153842.640000", "153842.643000", "153922.583000", "153922.586000", "153922.589000", "153922.591000", "153922.595000", "153922.597000", "153922.600000", "153922.603000", "153922.606000", "153922.609000", "153922.612000", "153922.615000", "153922.618000", "153922.621000", "153922.624000", "153922.626000", "153922.629000", "153922.632000", "153922.635000", "153922.638000", "153922.641000", "153922.643000", "153922.646000", "153922.649000", "153922.652000", "153922.655000", "153922.658000", "153922.661000", "153922.663000", "153922.666000", "153922.669000", "153922.672000", "154002.583000", "154002.586000", "154002.589000", "154002.592000", "154002.595000", "154002.597000", "154002.600000", "154002.603000", "154002.606000", "154002.609000", "154002.612000", "154002.615000", "154002.618000", "154002.621000", "154002.624000", "154002.626000", "154002.629000", "154002.632000", "154002.641000", "154002.643000", "154002.646000", "154002.649000", "154002.652000", "154002.655000", "154002.658000", "154002.661000", "154002.664000", "154019.278000", "154019.282000", "154019.284000", "154019.287000", "154019.290000", "154019.293000", "154019.296000", "154019.299000", "154019.302000", "154019.305000", "154019.307000", "154019.310000"],
      "InstanceNumber": [1, 2, 3, 4, 5, 6, 7, 8, 9, 10, 11, 12, 13, 14, 15, 16, 17, 18, 19, 20, 21, 22, 23, 24, 25, 26, 27, 28, 29, 30, 31, 32, 33, 34, 35, 36, 37, 38, 39, 40, 41, 42, 43, 44, 45, 46, 47, 48, 49, 50, 51, 52, 53, 54, 55, 56, 57, 58, 59, 60, 61, 62, 63, 64, 65, 66, 67, 68, 69, 70, 71, 72, 73, 74, 75, 76, 77, 78, 79, 80, 81, 82, 83, 84, 85, 86, 87, 88, 89, 90, 91, 92, 93, 94, 95, 96, 97, 98, 99, 100, 101, 102, 103, 104, 105, 106, 107, 108, 109, 110, 111, 112, 113, 114, 115, 116, 117, 118, 119, 120, 121, 122, 123, 124, 125, 126, 127, 128, 129, 130, 131, 132, 133, 134, 135, 136, 137, 138, 139, 140, 141, 142, 143, 144, 145, 146, 147, 148, 149, 150, 151, 152, 153, 154, 155, 156, 157, 158, 159],
      "LargestImagePixelValue": [43570, 42328, 41489, 40559, 40151, 39605, 40392, 39941, 40325, 40150, 40613, 40391, 39676, 40630, 40040, 40271, 40374, 40531, 40114, 39956, 39809, 40595, 39584, 39824, 40228, 40118, 39772, 40377, 40114, 40494, 39806, 39875, 39773, 40138, 40511, 41074, 40752, 40714, 40193, 40438, 40872, 41494, 40687, 40408, 40344, 40886, 40753, 40816, 40853, 40706, 40642, 40582, 40110, 40527, 40523, 40637, 40765, 40306, 40273, 40495, 40724, 40551, 40904, 40232, 40871, 40750, 40515, 40542, 41018, 40760, 39899, 40008, 40869, 41312, 41036, 41017, 41021, 41045, 40215, 40207, 40483, 40821, 41245, 39809, 40028, 40931, 40266, 41052, 41083, 40884, 40985, 40420, 40425, 41162, 40787, 39801, 39870, 40651, 40562, 40811, 40699, 40511, 40217, 39881, 38774, 39605, 40193, 39782, 40552, 40690, 41116, 41067, 40841, 40673, 40685, 40245, 40393, 40283, 40758, 40209, 40873, 40527, 40744, 40125, 40869, 40487, 40323, 40610, 40586, 40423, 40886, 40739, 40215, 40583, 40592, 40888, 40507, 40623, 40408, 40169, 40514, 40831, 39151, 39212, 40472, 39980, 40719, 40024, 39944, 39721, 40082, 40343, 39721, 39808, 40170, 39561, 40334, 40280, 40550],
      "WindowCenter": [10115.0, 10036.0, 9969.0, 9955.0, 9963.0, 9941.0, 9928.0, 9927.0, 9946.0, 9966.0, 9983.0, 9994.0, 9975.0, 9968.0, 9937.0, 9933.0, 9939.0, 9947.0, 9943.0, 9935.0, 9950.0, 9963.0, 9974.0, 9978.0, 9969.0, 9952.0, 9945.0, 9952.0, 9944.0, 9947.0, 9934.0, 9940.0, 9935.0, 9942.0, 9978.0, 9989.0, 9960.0, 9933.0, 9913.0, 9945.0, 9995.0, 10031.0, 10003.0, 9963.0, 9943.0, 9937.0, 9946.0, 9961.0, 9970.0, 9972.0, 9967.0, 9957.0, 9959.0, 9966.0, 9971.0, 9980.0, 9989.0, 9991.0, 9978.0, 9959.0, 9956.0, 9947.0, 9961.0, 9950.0, 9948.0, 9933.0, 9924.0, 9938.0, 9954.0, 9980.0, 9977.0, 9959.0, 9956.0, 9960.0, 9970.0, 9972.0, 9964.0, 9949.0, 9943.0, 9951.0, 9965.0, 9966.0, 9986.0, 9986.0, 9976.0, 9971.0, 9965.0, 9976.0, 9977.0, 9985.0, 9988.0, 9970.0, 9966.0, 9962.0, 9971.0, 9967.0, 9950.0, 9930.0, 9919.0, 9925.0, 9936.0, 9939.0, 9922.0, 9908.0, 9921.0, 9951.0, 9958.0, 9944.0, 9947.0, 9945.0, 9943.0, 9953.0, 9961.0, 9965.0, 9965.0, 9952.0, 9942.0, 9948.0, 9963.0, 9960.0, 9969.0, 9964.0, 9978.0, 9978.0, 9972.0, 9950.0, 9948.0, 9956.0, 9973.0, 9983.0, 9988.0, 9982.0, 9978.0, 9968.0, 9948.0, 9938.0, 9945.0, 9963.0, 9972.0, 9967.0, 9974.0, 9992.0, 9957.0, 9945.0, 9957.0, 9958.0, 9940.0, 9909.0, 9892.0, 9893.0, 9906.0, 9915.0, 9925.0, 9948.0, 9988.0, 9990.0, 9973.0, 9961.0, 9963.0],
      "WindowWidth": [21716.0, 21509.0, 21338.0, 21291.0, 21310.0, 21261.0, 21226.0, 21219.0, 21257.0, 21302.0, 21338.0, 21365.0, 21327.0, 21307.0, 21243.0, 21230.0, 21241.0, 21258.0, 21254.0, 21238.0, 21269.0, 21297.0, 21323.0, 21333.0, 21313.0, 21276.0, 21261.0, 21275.0, 21258.0, 21261.0, 21237.0, 21248.0, 21242.0, 21256.0, 21331.0, 21357.0, 21293.0, 21233.0, 21188.0, 21256.0, 21367.0, 21449.0, 21392.0, 21306.0, 21257.0, 21241.0, 21259.0, 21291.0, 21310.0, 21316.0, 21307.0, 21286.0, 21292.0, 21307.0, 21317.0, 21339.0, 21357.0, 21364.0, 21335.0, 21293.0, 21281.0, 21264.0, 21294.0, 21275.0, 21268.0, 21235.0, 21215.0, 21245.0, 21279.0, 21338.0, 21332.0, 21292.0, 21283.0, 21287.0, 21311.0, 21317.0, 21297.0, 21267.0, 21255.0, 21274.0, 21303.0, 21308.0, 21347.0, 21356.0, 21332.0, 21318.0, 21305.0, 21325.0, 21327.0, 21345.0, 21354.0, 21318.0, 21309.0, 21298.0, 21319.0, 21317.0, 21277.0, 21228.0, 21200.0, 21208.0, 21236.0, 21243.0, 21205.0, 21178.0, 21212.0, 21278.0, 21291.0, 21262.0, 21264.0, 21258.0, 21254.0, 21274.0, 21292.0, 21302.0, 21302.0, 21277.0, 21252.0, 21267.0, 21299.0, 21294.0, 21310.0, 21298.0, 21329.0, 21334.0, 21318.0, 21270.0, 21267.0, 21284.0, 21321.0, 21346.0, 21352.0, 21342.0, 21337.0, 21311.0, 21266.0, 21241.0, 21255.0, 21296.0, 21315.0, 21307.0, 21327.0, 21367.0, 21301.0, 21268.0, 21288.0, 21287.0, 21244.0, 21177.0, 21139.0, 21142.0, 21173.0, 21195.0, 21221.0, 21270.0, 21357.0, 21370.0, 21328.0, 21297.0, 21298.0]
    },
    "slices": {}
  }
}