{
  "AcquisitionMatrixPE": 104,
  "AcquisitionNumber": 1,
  "AcquisitionTime": "14:47:4.087500",
  "BandwidthPerPixelPhaseEncode": 17.17,
  "BaseResolution": 104,
  "BodyPartExamined": "BRAIN",
  "CoilString": "HC1-7;NC1_2",
  "ConsistencyInfo": "N4_VE11C_LATEST_20160120",
  "ConversionSoftware": "dcm2niix",
  "ConversionSoftwareVersion": "v1.0.20190720  (JP2:OpenJPEG) GCC7.3.0",
  "DerivedVendorReportedEchoSpacing": 0.000560011,
  "DeviceSerialNumber": "167006",
  "DwellTime": 2.1e-06,
  "EchoTime": 0.037,
  "EchoTrainLength": 104,
  "EffectiveEchoSpacing": 0.000560011,
  "FlipAngle": 52,
  "ImageComments": "Unaliased_MB4_PE3_LB",
  "ImageOrientationPatientDICOM": [0.99993, -0.0110939, 0.0042184, 0.011868, 0.938812, -0.344225],
  "ImageType": [
    "ORIGINAL",
    "PRIMARY",
    "M",
    "MB",
    "ND",
    "MOSAIC"
],
  "ImagingFrequency": 123.259,
  "InPlanePhaseEncodingDirectionDICOM": "COL",
  "InstitutionAddress": "Chemin_Queen-Mary_4565_Montreal_District_CA_H3W_1W5",
  "InstitutionName": "IUGM",
  "InstitutionalDepartmentName": "Department",
  "MRAcquisitionType": "2D",
  "MagneticFieldStrength": 3,
  "Manufacturer": "Siemens",
  "ManufacturersModelName": "Prisma_fit",
  "Modality": "MR",
  "MultibandAccelerationFactor": 4,
  "PartialFourier": 1,
  "PatientPosition": "HFS",
  "PercentPhaseFOV": 100,
  "PhaseEncodingDirection": "j",
  "PhaseEncodingSteps": 104,
  "PhaseResolution": 1,
  "PixelBandwidth": 2290,
  "ProcedureStepDescription": "hcptrt_generic",
  "ProtocolName": "func_task-restingstate_run-1",
  "PulseSequenceDetails": "%CustomerSeq%_cmrr_mbep2d_bold",
  "ReceiveCoilActiveElements": "HC1-7;NC1,2",
  "ReceiveCoilName": "HeadNeck_64",
  "ReconMatrixPE": 104,
  "RepetitionTime": 1.49,
  "SAR": 0.0296882,
  "ScanOptions": "FS",
  "ScanningSequence": "EP",
  "SequenceName": "epfid2d1_104",
  "SequenceVariant": "SK_SS",
  "SeriesDescription": "func_task-restingstate_run-1",
  "SeriesNumber": 7,
  "ShimSetting": [632, -7155, -8804, 664, 36, 130, 7, 0],
  "SliceThickness": 2,
  "SliceTiming": [0, 0.785, 0.0975, 0.8825, 0.195, 0.98, 0.295, 1.0775, 0.3925, 1.175, 0.49, 1.275, 0.5875, 1.3725, 0.685, 0, 0.785, 0.0975, 0.8825, 0.195, 0.98, 0.295, 1.0775, 0.3925, 1.175, 0.49, 1.275, 0.5875, 1.3725, 0.685, 0, 0.785, 0.0975, 0.8825, 0.195, 0.98, 0.295, 1.0775, 0.3925, 1.175, 0.49, 1.275, 0.5875, 1.3725, 0.685, 0, 0.785, 0.0975, 0.8825, 0.195, 0.98, 0.295, 1.0775, 0.3925, 1.175, 0.49, 1.275, 0.5875, 1.3725, 0.685],
  "SoftwareVersions": "syngo_MR_E11",
  "SpacingBetweenSlices": 2,
  "StationName": "MRC35049",
  "TaskName": "restingstate",
  "TotalReadoutTime": 0.0576811,
  "TxRefAmp": 209.051,
  "WipMemBlock": "d3b81093-bfc5-4563-8eb5-32ccdba40dd1||Sequence: R016 ve11c/master r/e634e98; Dec 19 2017 11:00:25 by eja",
  "dcmmeta_affine": [
    [-1.999859094619751, 0.02373594045639038, 0.0002829869044944644, 104.77379608154297],
    [0.02218773029744625, 1.8776240348815918, -0.6885023713111877, -68.6028060913086],
    [0.008436797186732292, 0.6884507536888123, 1.8777551651000977, -65.5029296875],
    [0.0, 0.0, 0.0, 1.0]
],
  "dcmmeta_reorient_transform": [
    [0.0, -1.0, 0.0, 103.0],
    [1.0, 0.0, 0.0, 0.0],
    [0.0, 0.0, 1.0, 0.0],
    [0.0, 0.0, 0.0, 1.0]
],
  "dcmmeta_shape": [104, 104, 60, 600],
  "dcmmeta_slice_dim": 2,
  "dcmmeta_version": 0.6,
  "global": {
    "const": {
      "AcquisitionMatrix": [104, 0, 0, 104],
      "AngioFlag": "N",
      "BitsAllocated": 16,
      "BitsStored": 16,
      "BodyPartExamined": "BRAIN",
      "Columns": 832,
      "EchoNumbers": 1,
      "EchoTime": 37.0,
      "EchoTrainLength": 104,
      "FlipAngle": 52.0,
      "HighBit": 15,
      "ImageOrientationPatient": [0.99992956315163, -0.011093865348, 0.00421839863336, 0.0118679701295, 0.93881203758739, -0.344225375831],
      "ImagePositionPatient": [-843.80719922493, -800.17130133134, 252.93257893899],
      "ImageType": [
        "ORIGINAL",
        "PRIMARY",
        "M",
        "MB",
        "ND",
        "MOSAIC"
],
      "ImagedNucleus": "1H",
      "ImagingFrequency": 123.259317,
      "InPlanePhaseEncodingDirection": "COL",
      "MRAcquisitionType": "2D",
      "MagneticFieldStrength": 3.0,
      "Manufacturer": "SIEMENS",
      "ManufacturerModelName": "Prisma_fit",
      "Modality": "MR",
      "NumberOfAverages": 1.0,
      "NumberOfPhaseEncodingSteps": 104,
      "PercentPhaseFieldOfView": 100.0,
      "PercentSampling": 100.0,
      "PerformedProcedureStepStartTime": "143742.795000",
      "PhotometricInterpretation": "MONOCHROME2",
      "PixelBandwidth": 2290.0,
      "PixelRepresentation": 0,
      "PixelSpacing": [2.0, 2.0],
      "ProtocolName": "func_task-restingstate_run-1",
      "RepetitionTime": 1490.0,
      "Rows": 832,
      "SAR": 0.02968819187081,
      "SamplesPerPixel": 1,
      "ScanOptions": "FS",
      "ScanningSequence": "EP",
      "SequenceName": "epfid2d1_104",
      "SequenceVariant": [
        "SK",
        "SS"
],
      "SeriesDescription": "func_task-restingstate_run-1",
      "SeriesNumber": 7,
      "SeriesTime": "144820.406000",
      "SliceLocation": -37.867806638664,
      "SliceThickness": 2.0,
      "SmallestImagePixelValue": 0,
      "SoftwareVersions": "syngo MR E11",
      "SpacingBetweenSlices": 2.0000000115542,
      "SpecificCharacterSet": "ISO_IR 100",
      "StudyID": "1",
      "StudyTime": "143742.725000",
      "TransmitCoilName": "Body",
      "VariableFlipAngleFlag": "N",
      "WindowCenterWidthExplanation": "Algo1",
      "dBdt": 0.0},
    "slices": {}
  },
  "time": {
    "samples": {
      "AcquisitionNumber": [1, 2, 3, 4, 5, 6, 7, 8, 9, 10, 11, 12, 13, 14, 15, 16, 17, 18, 19, 20, 21, 22, 23, 24, 25, 26, 27, 28, 29, 30, 31, 32, 33, 34, 35, 36, 37, 38, 39, 40, 41, 42, 43, 44, 45, 46, 47, 48, 49, 50, 51, 52, 53, 54, 55, 56, 57, 58, 59, 60, 61, 62, 63, 64, 65, 66, 67, 68, 69, 70, 71, 72, 73, 74, 75, 76, 77, 78, 79, 80, 81, 82, 83, 84, 85, 86, 87, 88, 89, 90, 91, 92, 93, 94, 95, 96, 97, 98, 99, 100, 101, 102, 103, 104, 105, 106, 107, 108, 109, 110, 111, 112, 113, 114, 115, 116, 117, 118, 119, 120, 121, 122, 123, 124, 125, 126, 127, 128, 129, 130, 131, 132, 133, 134, 135, 136, 137, 138, 139, 140, 141, 142, 143, 144, 145, 146, 147, 148, 149, 150, 151, 152, 153, 154, 155, 156, 157, 158, 159, 160, 161, 162, 163, 164, 165, 166, 167, 168, 169, 170, 171, 172, 173, 174, 175, 176, 177, 178, 179, 180, 181, 182, 183, 184, 185, 186, 187, 188, 189, 190, 191, 192, 193, 194, 195, 196, 197, 198, 199, 200, 201, 202, 203, 204, 205, 206, 207, 208, 209, 210, 211, 212, 213, 214, 215, 216, 217, 218, 219, 220, 221, 222, 223, 224, 225, 226, 227, 228, 229, 230, 231, 232, 233, 234, 235, 236, 237, 238, 239, 240, 241, 242, 243, 244, 245, 246, 247, 248, 249, 250, 251, 252, 253, 254, 255, 256, 257, 258, 259, 260, 261, 262, 263, 264, 265, 266, 267, 268, 269, 270, 271, 272, 273, 274, 275, 276, 277, 278, 279, 280, 281, 282, 283, 284, 285, 286, 287, 288, 289, 290, 291, 292, 293, 294, 295, 296, 297, 298, 299, 300, 301, 302, 303, 304, 305, 306, 307, 308, 309, 310, 311, 312, 313, 314, 315, 316, 317, 318, 319, 320, 321, 322, 323, 324, 325, 326, 327, 328, 329, 330, 331, 332, 333, 334, 335, 336, 337, 338, 339, 340, 341, 342, 343, 344, 345, 346, 347, 348, 349, 350, 351, 352, 353, 354, 355, 356, 357, 358, 359, 360, 361, 362, 363, 364, 365, 366, 367, 368, 369, 370, 371, 372, 373, 374, 375, 376, 377, 378, 379, 380, 381, 382, 383, 384, 385, 386, 387, 388, 389, 390, 391, 392, 393, 394, 395, 396, 397, 398, 399, 400, 401, 402, 403, 404, 405, 406, 407, 408, 409, 410, 411, 412, 413, 414, 415, 416, 417, 418, 419, 420, 421, 422, 423, 424, 425, 426, 427, 428, 429, 430, 431, 432, 433, 434, 435, 436, 437, 438, 439, 440, 441, 442, 443, 444, 445, 446, 447, 448, 449, 450, 451, 452, 453, 454, 455, 456, 457, 458, 459, 460, 461, 462, 463, 464, 465, 466, 467, 468, 469, 470, 471, 472, 473, 474, 475, 476, 477, 478, 479, 480, 481, 482, 483, 484, 485, 486, 487, 488, 489, 490, 491, 492, 493, 494, 495, 496, 497, 498, 499, 500, 501, 502, 503, 504, 505, 506, 507, 508, 509, 510, 511, 512, 513, 514, 515, 516, 517, 518, 519, 520, 521, 522, 523, 524, 525, 526, 527, 528, 529, 530, 531, 532, 533, 534, 535, 536, 537, 538, 539, 540, 541, 542, 543, 544, 545, 546, 547, 548, 549, 550, 551, 552, 553, 554, 555, 556, 557, 558, 559, 560, 561, 562, 563, 564, 565, 566, 567, 568, 569, 570, 571, 572, 573, 574, 575, 576, 577, 578, 579, 580, 581, 582, 583, 584, 585, 586, 587, 588, 589, 590, 591, 592, 593, 594, 595, 596, 597, 598, 599, 600],
      "AcquisitionTime": ["144704.087500", "144705.577500", "144707.067500", "144708.557500", "144710.047500", "144711.537500", "144713.027500", "144714.517500", "144716.007500", "144717.497500", "144718.987500", "144720.477500", "144721.967500", "144723.457500", "144724.947500", "144726.437500", "144727.927500", "144729.417500", "144730.907500", "144732.397500", "144733.887500", "144735.377500", "144736.867500", "144738.357500", "144739.847500", "144741.337500", "144742.827500", "144744.317500", "144745.807500", "144747.297500", "144748.787500", "144750.277500", "144751.767500", "144753.257500", "144754.747500", "144756.237500", "144757.727500", "144759.217500", "144800.707500", "144802.197500", "144803.687500", "144805.177500", "144806.667500", "144808.157500", "144809.647500", "144811.137500", "144812.627500", "144814.117500", "144815.607500", "144817.097500", "144818.587500", "144820.077500", "144821.567500", "144823.057500", "144824.547500", "144826.037500", "144827.527500", "144829.017500", "144830.507500", "144831.997500", "144833.487500", "144834.977500", "144836.467500", "144837.957500", "144839.447500", "144840.937500", "144842.427500", "144843.917500", "144845.407500", "144846.897500", "144848.387500", "144849.877500", "144851.367500", "144852.857500", "144854.347500", "144855.837500", "144857.327500", "144858.817500", "144900.307500", "144901.797500", "144903.287500", "144904.777500", "144906.267500", "144907.757500", "144909.247500", "144910.737500", "144912.227500", "144913.717500", "144915.207500", "144916.697500", "144918.187500", "144919.677500", "144921.167500", "144922.657500", "144924.147500", "144925.637500", "144927.127500", "144928.617500", "144930.107500", "144931.597500", "144933.087500", "144934.577500", "144936.067500", "144937.557500", "144939.047500", "144940.537500", "144942.027500", "144943.517500", "144945.007500", "144946.497500", "144947.987500", "144949.477500", "144950.967500", "144952.457500", "144953.947500", "144955.437500", "144956.927500", "144958.417500", "144959.907500", "145001.397500", "145002.887500", "145004.377500", "145005.867500", "145007.357500", "145008.847500", "145010.337500", "145011.827500", "145013.317500", "145014.807500", "145016.297500", "145017.787500", "145019.277500", "145020.767500", "145022.257500", "145023.747500", "145025.237500", "145026.727500", "145028.217500", "145029.707500", "145031.197500", "145032.687500", "145034.177500", "145035.667500", "145037.157500", "145038.647500", "145040.137500", "145041.627500", "145043.117500", "145044.607500", "145046.097500", "145047.587500", "145049.077500", "145050.567500", "145052.057500", "145053.547500", "145055.037500", "145056.527500", "145058.017500", "145059.507500", "145100.997500", "145102.487500", "145103.977500", "145105.467500", "145106.957500", "145108.447500", "145109.937500", "145111.427500", "145112.917500", "145114.407500", "145115.897500", "145117.387500", "145118.877500", "145120.367500", "145121.857500", "145123.347500", "145124.837500", "145126.327500", "145127.817500", "145129.307500", "145130.797500", "145132.287500", "145133.777500", "145135.267500", "145136.757500", "145138.247500", "145139.737500", "145141.227500", "145142.717500", "145144.207500", "145145.697500", "145147.187500", "145148.677500", "145150.167500", "145151.657500", "145153.147500", "145154.637500", "145156.127500", "145157.617500", "145159.107500", "145200.597500", "145202.087500", "145203.577500", "145205.067500", "145206.557500", "145208.047500", "145209.537500", "145211.027500", "145212.517500", "145214.007500", "145215.497500", "145216.987500", "145218.477500", "145219.967500", "145221.457500", "145222.947500", "145224.437500", "145225.927500", "145227.417500", "145228.907500", "145230.397500", "145231.887500", "145233.377500", "145234.867500", "145236.357500", "145237.847500", "145239.337500", "145240.827500", "145242.317500", "145243.807500", "145245.297500", "145246.787500", "145248.277500", "145249.767500", "145251.257500", "145252.747500", "145254.237500", "145255.727500", "145257.217500", "145258.707500", "145300.197500", "145301.687500", "145303.177500", "145304.667500", "145306.157500", "145307.647500", "145309.137500", "145310.627500", "145312.117500", "145313.607500", "145315.097500", "145316.587500", "145318.077500", "145319.567500", "145321.057500", "145322.547500", "145324.037500", "145325.527500", "145327.017500", "145328.507500", "145329.997500", "145331.487500", "145332.977500", "145334.467500", "145335.957500", "145337.447500", "145338.937500", "145340.427500", "145341.917500", "145343.407500", "145344.897500", "145346.387500", "145347.877500", "145349.367500", "145350.857500", "145352.347500", "145353.837500", "145355.327500", "145356.817500", "145358.307500", "145359.797500", "145401.287500", "145402.777500", "145404.267500", "145405.757500", "145407.247500", "145408.737500", "145410.227500", "145411.717500", "145413.207500", "145414.697500", "145416.187500", "145417.677500", "145419.167500", "145420.657500", "145422.147500", "145423.637500", "145425.127500", "145426.617500", "145428.107500", "145429.597500", "145431.087500", "145432.577500", "145434.067500", "145435.557500", "145437.047500", "145438.537500", "145440.027500", "145441.517500", "145443.007500", "145444.497500", "145445.987500", "145447.477500", "145448.967500", "145450.457500", "145451.947500", "145453.437500", "145454.927500", "145456.417500", "145457.907500", "145459.397500", "145500.887500", "145502.377500", "145503.867500", "145505.357500", "145506.847500", "145508.337500", "145509.827500", "145511.317500", "145512.807500", "145514.297500", "145515.787500", "145517.277500", "145518.767500", "145520.257500", "145521.747500", "145523.237500", "145524.727500", "145526.217500", "145527.707500", "145529.197500", "145530.687500", "145532.177500", "145533.667500", "145535.157500", "145536.647500", "145538.137500", "145539.627500", "145541.117500", "145542.607500", "145544.097500", "145545.587500", "145547.077500", "145548.567500", "145550.057500", "145551.547500", "145553.037500", "145554.527500", "145556.017500", "145557.507500", "145558.997500", "145600.487500", "145601.977500", "145603.467500", "145604.957500", "145606.447500", "145607.937500", "145609.427500", "145610.917500", "145612.407500", "145613.897500", "145615.387500", "145616.877500", "145618.367500", "145619.857500", "145621.347500", "145622.837500", "145624.327500", "145625.817500", "145627.307500", "145628.797500", "145630.287500", "145631.777500", "145633.267500", "145634.757500", "145636.247500", "145637.737500", "145639.227500", "145640.717500", "145642.207500", "145643.697500", "145645.187500", "145646.677500", "145648.167500", "145649.657500", "145651.147500", "145652.637500", "145654.127500", "145655.617500", "145657.107500", "145658.597500", "145700.087500", "145701.577500", "145703.067500", "145704.557500", "145706.047500", "145707.537500", "145709.027500", "145710.517500", "145712.007500", "145713.497500", "145714.987500", "145716.477500", "145717.967500", "145719.457500", "145720.947500", "145722.437500", "145723.927500", "145725.417500", "145726.907500", "145728.397500", "145729.887500", "145731.377500", "145732.867500", "145734.357500", "145735.847500", "145737.337500", "145738.827500", "145740.317500", "145741.807500", "145743.297500", "145744.787500", "145746.277500", "145747.767500", "145749.257500", "145750.747500", "145752.237500", "145753.727500", "145755.217500", "145756.707500", "145758.197500", "145759.687500", "145801.177500", "145802.667500", "145804.157500", "145805.647500", "145807.137500", "145808.627500", "145810.117500", "145811.607500", "145813.097500", "145814.587500", "145816.077500", "145817.567500", "145819.057500", "145820.547500", "145822.037500", "145823.527500", "145825.017500", "145826.507500", "145827.997500", "145829.487500", "145830.977500", "145832.467500", "145833.957500", "145835.447500", "145836.937500", "145838.427500", "145839.917500", "145841.407500", "145842.897500", "145844.387500", "145845.877500", "145847.367500", "145848.857500", "145850.347500", "145851.837500", "145853.327500", "145854.817500", "145856.307500", "145857.797500", "145859.287500", "145900.777500", "145902.267500", "145903.757500", "145905.247500", "145906.737500", "145908.227500", "145909.717500", "145911.207500", "145912.697500", "145914.187500", "145915.677500", "145917.167500", "145918.657500", "145920.147500", "145921.637500", "145923.127500", "145924.617500", "145926.107500", "145927.597500", "145929.087500", "145930.577500", "145932.067500", "145933.557500", "145935.047500", "145936.537500", "145938.027500", "145939.517500", "145941.007500", "145942.497500", "145943.987500", "145945.477500", "145946.967500", "145948.457500", "145949.947500", "145951.437500", "145952.927500", "145954.417500", "145955.907500", "145957.397500", "145958.887500", "150000.377500", "150001.867500", "150003.357500", "150004.847500", "150006.337500", "150007.827500", "150009.317500", "150010.807500", "150012.297500", "150013.787500", "150015.277500", "150016.767500", "150018.257500", "150019.747500", "150021.237500", "150022.727500", "150024.217500", "150025.707500", "150027.197500", "150028.687500", "150030.177500", "150031.667500", "150033.157500", "150034.647500", "150036.137500", "150037.627500", "150039.117500", "150040.607500", "150042.097500", "150043.587500", "150045.077500", "150046.567500", "150048.057500", "150049.547500", "150051.037500", "150052.527500", "150054.017500", "150055.507500", "150056.997500", "150058.487500", "150059.977500", "150101.467500", "150102.957500", "150104.447500", "150105.937500", "150107.427500", "150108.917500", "150110.407500", "150111.897500", "150113.387500", "150114.877500", "150116.367500", "150117.857500", "150119.347500", "150120.837500", "150122.327500", "150123.817500", "150125.307500", "150126.797500", "150128.287500", "150129.777500", "150131.267500", "150132.757500", "150134.247500", "150135.737500", "150137.227500", "150138.717500", "150140.207500", "150141.697500", "150143.187500", "150144.677500", "150146.167500", "150147.657500", "150149.147500", "150150.637500", "150152.127500", "150153.617500", "150155.107500", "150156.597500"],
      "ContentTime": ["144820.409000", "144820.413000", "144820.416000", "144820.419000", "144820.428000", "144820.431000", "144820.434000", "144820.437000", "144820.441000", "144820.444000", "144820.447000", "144820.450000", "144820.453000", "144820.456000", "144820.458000", "144820.461000", "144820.464000", "144820.467000", "144820.470000", "144820.473000", "144840.378000", "144840.381000", "144840.384000", "144840.387000", "144840.390000", "144840.393000", "144840.396000", "144840.399000", "144840.402000", "144840.405000", "144840.408000", "144840.411000", "144840.414000", "144840.417000", "144840.420000", "144840.423000", "144840.426000", "144840.429000", "144840.432000", "144840.435000", "144900.378000", "144900.381000", "144900.384000", "144900.387000", "144900.390000", "144900.393000", "144900.396000", "144900.404000", "144900.407000", "144900.410000", "144900.413000", "144900.416000", "144900.419000", "144900.422000", "144900.425000", "144900.428000", "144900.431000", "144900.434000", "144900.437000", "144900.440000", "144920.378000", "144920.381000", "144920.384000", "144920.387000", "144920.402000", "144920.405000", "144920.408000", "144920.411000", "144920.414000", "144920.417000", "144920.420000", "144920.423000", "144920.426000", "144920.429000", "144920.432000", "144920.435000", "144920.438000", "144920.441000", "144920.444000", "144920.447000", "144940.378000", "144940.381000", "144940.384000", "144940.387000", "144940.390000", "144940.393000", "144940.396000", "144940.399000", "144940.402000", "144940.405000", "144940.408000", "144940.411000", "144940.414000", "144940.417000", "144940.420000", "144940.423000", "144940.426000", "144940.429000", "144940.432000", "144940.435000", "144940.438000", "145020.378000", "145020.381000", "145020.384000", "145020.387000", "145020.390000", "145020.393000", "145020.396000", "145020.399000", "145020.402000", "145020.405000", "145020.408000", "145020.411000", "145020.414000", "145020.417000", "145020.420000", "145020.423000", "145020.426000", "145020.429000", "145020.432000", "145020.435000", "145020.438000", "145020.449000", "145020.452000", "145020.454000", "145020.458000", "145020.460000", "145020.463000", "145020.466000", "145020.470000", "145020.472000", "145100.378000", "145100.381000", "145100.384000", "145100.387000", "145100.390000", "145100.393000", "145100.396000", "145100.399000", "145100.403000", "145100.406000", "145100.409000", "145100.412000", "145100.415000", "145100.418000", "145100.421000", "145100.424000", "145100.427000", "145100.430000", "145100.433000", "145100.437000", "145100.441000", "145100.447000", "145100.453000", "145100.458000", "145100.461000", "145100.464000", "145100.467000", "145140.378000", "145140.381000", "145140.384000", "145140.387000", "145140.390000", "145140.393000", "145140.404000", "145140.407000", "145140.410000", "145140.413000", "145140.416000", "145140.419000", "145140.422000", "145140.425000", "145140.428000", "145140.431000", "145140.434000", "145140.437000", "145140.440000", "145140.443000", "145140.446000", "145140.449000", "145140.453000", "145140.457000", "145140.460000", "145140.463000", "145220.378000", "145220.381000", "145220.384000", "145220.387000", "145220.390000", "145220.393000", "145220.396000", "145220.399000", "145220.402000", "145220.405000", "145220.408000", "145220.411000", "145220.414000", "145220.417000", "145220.420000", "145220.423000", "145220.426000", "145220.429000", "145220.432000", "145220.435000", "145220.438000", "145220.441000", "145220.444000", "145220.447000", "145220.450000", "145220.453000", "145220.456000", "145300.378000", "145300.382000", "145300.385000", "145300.388000", "145300.391000", "145300.394000", "145300.397000", "145300.400000", "145300.405000", "145300.408000", "145300.412000", "145300.415000", "145300.418000", "145300.421000", "145300.424000", "145300.427000", "145300.431000", "145300.434000", "145300.437000", "145300.440000", "145300.443000", "145300.446000", "145300.449000", "145300.452000", "145300.456000", "145300.459000", "145300.462000", "145340.378000", "145340.381000", "145340.384000", "145340.398000", "145340.401000", "145340.404000", "145340.407000", "145340.410000", "145340.413000", "145340.416000", "145340.419000", "145340.422000", "145340.425000", "145340.428000", "145340.431000", "145340.434000", "145340.437000", "145340.440000", "145340.443000", "145340.446000", "145340.449000", "145340.452000", "145340.477000", "145340.481000", "145340.484000", "145340.487000", "145340.490000", "145420.378000", "145420.381000", "145420.384000", "145420.387000", "145420.390000", "145420.393000", "145420.396000", "145420.399000", "145420.402000", "145420.405000", "145420.409000", "145420.411000", "145420.414000", "145420.417000", "145420.420000", "145420.423000", "145420.426000", "145420.429000", "145420.432000", "145420.435000", "145420.438000", "145420.441000", "145420.444000", "145420.447000", "145420.450000", "145420.453000", "145420.456000", "145500.378000", "145500.381000", "145500.384000", "145500.387000", "145500.390000", "145500.394000", "145500.396000", "145500.399000", "145500.402000", "145500.405000", "145500.408000", "145500.411000", "145500.414000", "145500.417000", "145500.420000", "145500.423000", "145500.426000", "145500.429000", "145500.432000", "145500.435000", "145500.438000", "145500.442000", "145500.444000", "145500.448000", "145500.451000", "145500.454000", "145500.457000", "145540.378000", "145540.381000", "145540.384000", "145540.387000", "145540.390000", "145540.393000", "145540.405000", "145540.408000", "145540.420000", "145540.422000", "145540.426000", "145540.428000", "145540.431000", "145540.434000", "145540.438000", "145540.441000", "145540.443000", "145540.446000", "145540.449000", "145540.453000", "145540.456000", "145540.459000", "145540.462000", "145540.465000", "145540.468000", "145540.472000", "145620.378000", "145620.381000", "145620.384000", "145620.387000", "145620.390000", "145620.393000", "145620.396000", "145620.399000", "145620.402000", "145620.405000", "145620.408000", "145620.411000", "145620.414000", "145620.417000", "145620.420000", "145620.423000", "145620.426000", "145620.429000", "145620.432000", "145620.435000", "145620.438000", "145620.441000", "145620.444000", "145620.447000", "145620.450000", "145620.453000", "145620.456000", "145700.378000", "145700.381000", "145700.384000", "145700.387000", "145700.390000", "145700.393000", "145700.396000", "145700.399000", "145700.402000", "145700.406000", "145700.409000", "145700.411000", "145700.414000", "145700.418000", "145700.421000", "145700.429000", "145700.432000", "145700.436000", "145700.439000", "145700.441000", "145700.444000", "145700.448000", "145700.451000", "145700.453000", "145700.456000", "145700.460000", "145700.462000", "145740.378000", "145740.381000", "145740.384000", "145740.387000", "145740.390000", "145740.393000", "145740.396000", "145740.399000", "145740.402000", "145740.405000", "145740.408000", "145740.411000", "145740.414000", "145740.417000", "145740.420000", "145740.423000", "145740.426000", "145740.429000", "145740.432000", "145740.435000", "145740.438000", "145740.441000", "145740.444000", "145740.447000", "145740.450000", "145740.453000", "145740.456000", "145820.378000", "145820.381000", "145820.384000", "145820.387000", "145820.390000", "145820.393000", "145820.396000", "145820.399000", "145820.402000", "145820.405000", "145820.408000", "145820.411000", "145820.414000", "145820.417000", "145820.420000", "145820.423000", "145820.426000", "145820.429000", "145820.449000", "145820.452000", "145820.455000", "145820.458000", "145820.461000", "145820.464000", "145820.467000", "145820.470000", "145820.473000", "145900.378000", "145900.381000", "145900.384000", "145900.387000", "145900.390000", "145900.393000", "145900.396000", "145900.399000", "145900.402000", "145900.405000", "145900.408000", "145900.411000", "145900.414000", "145900.417000", "145900.420000", "145900.423000", "145900.426000", "145900.429000", "145900.433000", "145900.435000", "145900.438000", "145900.441000", "145900.444000", "145900.447000", "145900.450000", "145900.453000", "145900.456000", "145940.378000", "145940.381000", "145940.384000", "145940.387000", "145940.390000", "145940.394000", "145940.396000", "145940.399000", "145940.402000", "145940.405000", "145940.408000", "145940.411000", "145940.414000", "145940.417000", "145940.420000", "145940.423000", "145940.426000", "145940.429000", "145940.432000", "145940.435000", "145940.438000", "145940.441000", "145940.444000", "145940.447000", "145940.450000", "145940.453000", "145940.456000", "150020.378000", "150020.381000", "150020.384000", "150020.387000", "150020.390000", "150020.393000", "150020.397000", "150020.399000", "150020.402000", "150020.405000", "150020.408000", "150020.411000", "150020.414000", "150020.417000", "150020.420000", "150020.424000", "150020.427000", "150020.430000", "150020.433000", "150020.436000", "150020.439000", "150020.442000", "150020.445000", "150020.448000", "150020.451000", "150020.455000", "150100.378000", "150100.381000", "150100.384000", "150100.388000", "150100.391000", "150100.393000", "150100.397000", "150100.400000", "150100.403000", "150100.406000", "150100.409000", "150100.412000", "150100.415000", "150100.418000", "150100.421000", "150100.424000", "150100.427000", "150100.430000", "150100.433000", "150100.436000", "150100.439000", "150100.442000", "150100.445000", "150100.448000", "150100.451000", "150100.454000", "150100.457000", "150140.378000", "150140.381000", "150140.384000", "150140.387000", "150140.390000", "150140.393000", "150140.396000", "150140.399000", "150140.402000", "150140.405000", "150140.408000", "150140.411000", "150140.414000", "150140.417000", "150140.420000", "150140.438000", "150140.441000", "150140.444000", "150140.447000", "150140.450000", "150140.453000", "150140.456000", "150140.459000", "150140.462000", "150140.465000", "150140.468000", "150140.471000", "150158.986000", "150158.989000", "150158.992000", "150158.995000", "150159.005000", "150159.008000", "150159.011000", "150159.015000", "150159.018000", "150159.021000", "150159.024000", "150159.028000", "150159.031000"],
