{
  "AcquisitionMatrixPE": 104,
  "AcquisitionNumber": 1,
  "AcquisitionTime": "15:28:56.895000",
  "BandwidthPerPixelPhaseEncode": 17.17,
  "BaseResolution": 104,
  "BodyPartExamined": "BRAIN",
  "CoilString": "HC1-7;NC1_2",
  "ConsistencyInfo": "N4_VE11C_LATEST_20160120",
  "ConversionSoftware": "dcm2niix",
  "ConversionSoftwareVersion": "v1.0.20190720  (JP2:OpenJPEG) GCC7.3.0",
  "DerivedVendorReportedEchoSpacing": 0.000560011,
  "DeviceSerialNumber": "167006",
  "DwellTime": 2.1e-06,
  "EchoTime": 0.037,
  "EchoTrainLength": 104,
  "EffectiveEchoSpacing": 0.000560011,
  "FlipAngle": 52,
  "ImageComments": "Unaliased_MB4_PE3_LB",
  "ImageOrientationPatientDICOM": [0.99993, -0.0110939, 0.0042184, 0.011868, 0.938812, -0.344225],
  "ImageType": [
    "ORIGINAL",
    "PRIMARY",
    "M",
    "MB",
    "ND",
    "MOSAIC"
],
  "ImagingFrequency": 123.259,
  "InPlanePhaseEncodingDirectionDICOM": "COL",
  "InstitutionAddress": "Chemin_Queen-Mary_4565_Montreal_District_CA_H3W_1W5",
  "InstitutionName": "IUGM",
  "InstitutionalDepartmentName": "Department",
  "MRAcquisitionType": "2D",
  "MagneticFieldStrength": 3,
  "Manufacturer": "Siemens",
  "ManufacturersModelName": "Prisma_fit",
  "Modality": "MR",
  "MultibandAccelerationFactor": 4,
  "PartialFourier": 1,
  "PatientPosition": "HFS",
  "PercentPhaseFOV": 100,
  "PhaseEncodingDirection": "j",
  "PhaseEncodingSteps": 104,
  "PhaseResolution": 1,
  "PixelBandwidth": 2290,
  "ProcedureStepDescription": "hcptrt_generic",
  "ProtocolName": "func_task-wm_run-1",
  "PulseSequenceDetails": "%CustomerSeq%_cmrr_mbep2d_bold",
  "ReceiveCoilActiveElements": "HC1-7;NC1,2",
  "ReceiveCoilName": "HeadNeck_64",
  "ReconMatrixPE": 104,
  "RepetitionTime": 1.49,
  "SAR": 0.0294988,
  "ScanOptions": "FS",
  "ScanningSequence": "EP",
  "SequenceName": "epfid2d1_104",
  "SequenceVariant": "SK_SS",
  "SeriesDescription": "func_task-wm_run-1",
  "SeriesNumber": 19,
  "ShimSetting": [631, -7160, -8817, 679, 16, 45, -30, -12],
  "SliceThickness": 2,
  "SliceTiming": [0, 0.7825, 0.0975, 0.8825, 0.195, 0.98, 0.2925, 1.0775, 0.3925, 1.175, 0.49, 1.2725, 0.5875, 1.3725, 0.685, 0, 0.7825, 0.0975, 0.8825, 0.195, 0.98, 0.2925, 1.0775, 0.3925, 1.175, 0.49, 1.2725, 0.5875, 1.3725, 0.685, 0, 0.7825, 0.0975, 0.8825, 0.195, 0.98, 0.2925, 1.0775, 0.3925, 1.175, 0.49, 1.2725, 0.5875, 1.3725, 0.685, 0, 0.7825, 0.0975, 0.8825, 0.195, 0.98, 0.2925, 1.0775, 0.3925, 1.175, 0.49, 1.2725, 0.5875, 1.3725, 0.685],
  "SoftwareVersions": "syngo_MR_E11",
  "SpacingBetweenSlices": 2,
  "StationName": "MRC35049",
  "TaskName": "wm",
  "TotalReadoutTime": 0.0576811,
  "TxRefAmp": 209.051,
  "WipMemBlock": "5c115255-86aa-46c8-9b9a-e5479c2c886c||Sequence: R016 ve11c/master r/e634e98; Dec 19 2017 11:00:25 by eja",
  "dcmmeta_affine": [
    [-1.999859094619751, 0.02373594045639038, 0.0002829869044944644, 104.77379608154297],
    [0.02218773029744625, 1.8776240348815918, -0.6885023713111877, -68.6028060913086],
    [0.008436797186732292, 0.6884507536888123, 1.8777551651000977, -65.5029296875],
    [0.0, 0.0, 0.0, 1.0]
],
  "dcmmeta_reorient_transform": [
    [0.0, -1.0, 0.0, 103.0],
    [1.0, 0.0, 0.0, 0.0],
    [0.0, 0.0, 1.0, 0.0],
    [0.0, 0.0, 0.0, 1.0]
],
  "dcmmeta_shape": [104, 104, 60, 202],
  "dcmmeta_slice_dim": 2,
  "dcmmeta_version": 0.6,
  "global": {
    "const": {
      "AcquisitionMatrix": [104, 0, 0, 104],
      "AngioFlag": "N",
      "BitsAllocated": 16,
      "BitsStored": 16,
      "BodyPartExamined": "BRAIN",
      "Columns": 832,
      "EchoNumbers": 1,
      "EchoTime": 37.0,
      "EchoTrainLength": 104,
      "FlipAngle": 52.0,
      "HighBit": 15,
      "ImageOrientationPatient": [0.99992956315163, -0.011093865348, 0.00421839863336, 0.0118679701295, 0.93881203758739, -0.344225375831],
      "ImagePositionPatient": [-843.80719922493, -800.17130133134, 252.93257893899],
      "ImageType": [
        "ORIGINAL",
        "PRIMARY",
        "M",
        "MB",
        "ND",
        "MOSAIC"
],
      "ImagedNucleus": "1H",
      "ImagingFrequency": 123.259329,
      "InPlanePhaseEncodingDirection": "COL",
      "MRAcquisitionType": "2D",
      "MagneticFieldStrength": 3.0,
      "Manufacturer": "SIEMENS",
      "ManufacturerModelName": "Prisma_fit",
      "Modality": "MR",
      "NumberOfAverages": 1.0,
      "NumberOfPhaseEncodingSteps": 104,
      "PercentPhaseFieldOfView": 100.0,
      "PercentSampling": 100.0,
      "PerformedProcedureStepStartTime": "143742.795000",
      "PhotometricInterpretation": "MONOCHROME2",
      "PixelBandwidth": 2290.0,
      "PixelRepresentation": 0,
      "PixelSpacing": [2.0, 2.0],
      "ProtocolName": "func_task-wm_run-1",
      "RepetitionTime": 1490.0,
      "Rows": 832,
      "SAR": 0.02949883766309,
      "SamplesPerPixel": 1,
      "ScanOptions": "FS",
      "ScanningSequence": "EP",
      "SequenceName": "epfid2d1_104",
      "SequenceVariant": [
        "SK",
        "SS"
],
      "SeriesDescription": "func_task-wm_run-1",
      "SeriesNumber": 19,
      "SeriesTime": "153020.410000",
      "SliceLocation": -37.867806638664,
      "SliceThickness": 2.0,
      "SmallestImagePixelValue": 0,
      "SoftwareVersions": "syngo MR E11",
      "SpacingBetweenSlices": 2.0000000115542,
      "SpecificCharacterSet": "ISO_IR 100",
      "StudyID": "1",
      "StudyTime": "143742.725000",
      "TransmitCoilName": "Body",
      "VariableFlipAngleFlag": "N",
      "WindowCenterWidthExplanation": "Algo1",
      "dBdt": 0.0},
    "slices": {}
  },
  "time": {
    "samples": {
      "AcquisitionNumber": [1, 2, 3, 4, 5, 6, 7, 8, 9, 10, 11, 12, 13, 14, 15, 16, 17, 18, 19, 20, 21, 22, 23, 24, 25, 26, 27, 28, 29, 30, 31, 32, 33, 34, 35, 36, 37, 38, 39, 40, 41, 42, 43, 44, 45, 46, 47, 48, 49, 50, 51, 52, 53, 54, 55, 56, 57, 58, 59, 60, 61, 62, 63, 64, 65, 66, 67, 68, 69, 70, 71, 72, 73, 74, 75, 76, 77, 78, 79, 80, 81, 82, 83, 84, 85, 86, 87, 88, 89, 90, 91, 92, 93, 94, 95, 96, 97, 98, 99, 100, 101, 102, 103, 104, 105, 106, 107, 108, 109, 110, 111, 112, 113, 114, 115, 116, 117, 118, 119, 120, 121, 122, 123, 124, 125, 126, 127, 128, 129, 130, 131, 132, 133, 134, 135, 136, 137, 138, 139, 140, 141, 142, 143, 144, 145, 146, 147, 148, 149, 150, 151, 152, 153, 154, 155, 156, 157, 158, 159, 160, 161, 162, 163, 164, 165, 166, 167, 168, 169, 170, 171, 172, 173, 174, 175, 176, 177, 178, 179, 180, 181, 182, 183, 184, 185, 186, 187, 188, 189, 190, 191, 192, 193, 194, 195, 196, 197, 198, 199, 200, 201, 202],
      "AcquisitionTime": ["152856.895000", "152858.385000", "152859.875000", "152901.365000", "152902.855000", "152904.345000", "152905.835000", "152907.325000", "152908.815000", "152910.305000", "152911.795000", "152913.285000", "152914.775000", "152916.265000", "152917.755000", "152919.245000", "152920.735000", "152922.225000", "152923.715000", "152925.205000", "152926.695000", "152928.185000", "152929.675000", "152931.165000", "152932.655000", "152934.145000", "152935.635000", "152937.125000", "152938.615000", "152940.105000", "152941.595000", "152943.085000", "152944.575000", "152946.065000", "152947.555000", "152949.045000", "152950.535000", "152952.025000", "152953.515000", "152955.005000", "152956.495000", "152957.985000", "152959.475000", "153000.965000", "153002.455000", "153003.945000", "153005.435000", "153006.925000", "153008.415000", "153009.905000", "153011.395000", "153012.885000", "153014.375000", "153015.865000", "153017.355000", "153018.845000", "153020.335000", "153021.825000", "153023.315000", "153024.805000", "153026.295000", "153027.785000", "153029.275000", "153030.765000", "153032.255000", "153033.745000", "153035.235000", "153036.725000", "153038.215000", "153039.705000", "153041.195000", "153042.685000", "153044.175000", "153045.665000", "153047.155000", "153048.645000", "153050.135000", "153051.625000", "153053.115000", "153054.605000", "153056.095000", "153057.585000", "153059.075000", "153100.565000", "153102.055000", "153103.545000", "153105.035000", "153106.525000", "153108.015000", "153109.505000", "153110.995000", "153112.485000", "153113.975000", "153115.465000", "153116.955000", "153118.445000", "153119.935000", "153121.425000", "153122.915000", "153124.405000", "153125.895000", "153127.385000", "153128.875000", "153130.365000", "153131.855000", "153133.345000", "153134.835000", "153136.325000", "153137.815000", "153139.305000", "153140.795000", "153142.285000", "153143.775000", "153145.265000", "153146.755000", "153148.245000", "153149.735000", "153151.225000", "153152.715000", "153154.205000", "153155.695000", "153157.185000", "153158.675000", "153200.165000", "153201.655000", "153203.145000", "153204.635000", "153206.125000", "153207.615000", "153209.105000", "153210.595000", "153212.085000", "153213.575000", "153215.065000", "153216.555000", "153218.045000", "153219.535000", "153221.025000", "153222.515000", "153224.005000", "153225.495000", "153226.985000", "153228.475000", "153229.965000", "153231.455000", "153232.945000", "153234.435000", "153235.925000", "153237.415000", "153238.905000", "153240.395000", "153241.885000", "153243.375000", "153244.865000", "153246.355000", "153247.845000", "153249.335000", "153250.825000", "153252.315000", "153253.805000", "153255.295000", "153256.785000", "153258.275000", "153259.765000", "153301.255000", "153302.745000", "153304.235000", "153305.725000", "153307.215000", "153308.705000", "153310.195000", "153311.685000", "153313.175000", "153314.665000", "153316.155000", "153317.645000", "153319.135000", "153320.625000", "153322.115000", "153323.605000", "153325.095000", "153326.585000", "153328.075000", "153329.565000", "153331.055000", "153332.545000", "153334.035000", "153335.525000", "153337.015000", "153338.505000", "153339.995000", "153341.485000", "153342.975000", "153344.465000", "153345.955000", "153347.445000", "153348.935000", "153350.425000", "153351.915000", "153353.405000", "153354.895000", "153356.385000"],
      "ContentTime": ["153020.412000", "153020.416000", "153020.419000", "153020.423000", "153020.427000", "153020.430000", "153020.433000", "153020.437000", "153020.440000", "153020.444000", "153020.447000", "153020.451000", "153020.454000", "153020.458000", "153020.461000", "153020.465000", "153020.468000", "153020.471000", "153020.482000", "153020.485000", "153020.489000", "153020.492000", "153020.496000", "153020.499000", "153020.503000", "153020.506000", "153020.510000", "153020.513000", "153020.517000", "153020.520000", "153020.524000", "153040.378000", "153040.381000", "153040.384000", "153040.387000", "153040.390000", "153040.393000", "153040.396000", "153040.399000", "153040.402000", "153040.405000", "153040.408000", "153040.411000", "153040.414000", "153040.417000", "153040.420000", "153040.423000", "153040.426000", "153040.429000", "153040.432000", "153040.435000", "153100.378000", "153100.381000", "153100.384000", "153100.387000", "153100.390000", "153100.393000", "153100.397000", "153100.400000", "153100.403000", "153100.406000", "153100.409000", "153100.412000", "153100.415000", "153100.418000", "153100.421000", "153100.424000", "153100.427000", "153100.430000", "153100.433000", "153100.436000", "153120.378000", "153120.388000", "153120.391000", "153120.394000", "153120.397000", "153120.400000", "153120.403000", "153120.405000", "153120.408000", "153120.411000", "153120.414000", "153120.417000", "153120.420000", "153120.423000", "153120.426000", "153120.429000", "153120.432000", "153120.435000", "153120.438000", "153120.441000", "153200.378000", "153200.381000", "153200.384000", "153200.387000", "153200.390000", "153200.393000", "153200.396000", "153200.399000", "153200.402000", "153200.405000", "153200.408000", "153200.411000", "153200.414000", "153200.417000", "153200.420000", "153200.423000", "153200.426000", "153200.429000", "153200.433000", "153200.436000", "153200.439000", "153200.442000", "153200.445000", "153200.448000", "153200.451000", "153200.454000", "153200.457000", "153200.460000", "153200.478000", "153200.481000", "153200.484000", "153240.378000", "153240.381000", "153240.384000", "153240.387000", "153240.390000", "153240.393000", "153240.396000", "153240.399000", "153240.402000", "153240.405000", "153240.408000", "153240.411000", "153240.414000", "153240.417000", "153240.420000", "153240.423000", "153240.426000", "153240.429000", "153240.432000", "153240.435000", "153240.438000", "153240.441000", "153240.444000", "153240.447000", "153240.450000", "153240.453000", "153240.456000", "153300.378000", "153300.381000", "153300.384000", "153300.387000", "153300.390000", "153300.393000", "153300.396000", "153300.399000", "153300.402000", "153300.405000", "153300.408000", "153300.411000", "153300.414000", "153300.417000", "153340.378000", "153340.382000", "153340.385000", "153340.388000", "153340.391000", "153340.394000", "153340.397000", "153340.400000", "153340.403000", "153340.406000", "153340.409000", "153340.412000", "153340.415000", "153340.418000", "153340.421000", "153340.424000", "153340.427000", "153340.430000", "153340.433000", "153340.436000", "153340.439000", "153340.442000", "153340.444000", "153340.448000", "153340.451000", "153340.453000", "153358.309000", "153358.312000", "153358.315000", "153358.318000", "153358.321000", "153358.324000", "153358.327000", "153358.330000", "153358.333000", "153358.336000", "153358.339000", "153358.342000", "153358.345000"],
      "InstanceCreationTime": ["153020.412000", "153020.416000", "153020.419000", "153020.423000", "153020.427000", "153020.430000", "153020.433000", "153020.437000", "153020.440000", "153020.444000", "153020.447000", "153020.451000", "153020.454000", "153020.458000", "153020.461000", "153020.465000", "153020.468000", "153020.471000", "153020.482000", "153020.485000", "153020.489000", "153020.492000", "153020.496000", "153020.499000", "153020.503000", "153020.506000", "153020.510000", "153020.513000", "153020.517000", "153020.520000", "153020.524000", "153040.378000", "153040.381000", "153040.384000", "153040.387000", "153040.390000", "153040.393000", "153040.396000", "153040.399000", "153040.402000", "153040.405000", "153040.408000", "153040.411000", "153040.414000", "153040.417000", "153040.420000", "153040.423000", "153040.426000", "153040.429000", "153040.432000", "153040.435000", "153100.378000", "153100.381000", "153100.384000", "153100.387000", "153100.390000", "153100.393000", "153100.397000", "153100.400000", "153100.403000", "153100.406000", "153100.409000", "153100.412000", "153100.415000", "153100.418000", "153100.421000", "153100.424000", "153100.427000", "153100.430000", "153100.433000", "153100.436000", "153120.378000", "153120.388000", "153120.391000", "153120.394000", "153120.397000", "153120.400000", "153120.403000", "153120.405000", "153120.408000", "153120.411000", "153120.414000", "153120.417000", "153120.420000", "153120.423000", "153120.426000", "153120.429000", "153120.432000", "153120.435000", "153120.438000", "153120.441000", "153200.378000", "153200.381000", "153200.384000", "153200.387000", "153200.390000", "153200.393000", "153200.396000", "153200.399000", "153200.402000", "153200.405000", "153200.408000", "153200.411000", "153200.414000", "153200.417000", "153200.420000", "153200.423000", "153200.426000", "153200.429000", "153200.433000", "153200.436000", "153200.439000", "153200.442000", "153200.445000", "153200.448000", "153200.451000", "153200.454000", "153200.457000", "153200.460000", "153200.478000", "153200.481000", "153200.484000", "153240.378000", "153240.381000", "153240.384000", "153240.387000", "153240.390000", "153240.393000", "153240.396000", "153240.399000", "153240.402000", "153240.405000", "153240.408000", "153240.411000", "153240.414000", "153240.417000", "153240.420000", "153240.423000", "153240.426000", "153240.429000", "153240.432000", "153240.435000", "153240.438000", "153240.441000", "153240.444000", "153240.447000", "153240.450000", "153240.453000", "153240.456000", "153300.378000", "153300.381000", "153300.384000", "153300.387000", "153300.390000", "153300.393000", "153300.396000", "153300.399000", "153300.402000", "153300.405000", "153300.408000", "153300.411000", "153300.414000", "153300.417000", "153340.378000", "153340.382000", "153340.385000", "153340.388000", "153340.391000", "153340.394000", "153340.397000", "153340.400000", "153340.403000", "153340.406000", "153340.409000", "153340.412000", "153340.415000", "153340.418000", "153340.421000", "153340.424000", "153340.427000", "153340.430000", "153340.433000", "153340.436000", "153340.439000", "153340.442000", "153340.444000", "153340.448000", "153340.451000", "153340.453000", "153358.309000", "153358.312000", "153358.315000", "153358.318000", "153358.321000", "153358.324000", "153358.327000", "153358.330000", "153358.333000", "153358.336000", "153358.339000", "153358.342000", "153358.345000"],
      "InstanceNumber": [1, 2, 3, 4, 5, 6, 7, 8, 9, 10, 11, 12, 13, 14, 15, 16, 17, 18, 19, 20, 21, 22, 23, 24, 25, 26, 27, 28, 29, 30, 31, 32, 33, 34, 35, 36, 37, 38, 39, 40, 41, 42, 43, 44, 45, 46, 47, 48, 49, 50, 51, 52, 53, 54, 55, 56, 57, 58, 59, 60, 61, 62, 63, 64, 65, 66, 67, 68, 69, 70, 71, 72, 73, 74, 75, 76, 77, 78, 79, 80, 81, 82, 83, 84, 85, 86, 87, 88, 89, 90, 91, 92, 93, 94, 95, 96, 97, 98, 99, 100, 101, 102, 103, 104, 105, 106, 107, 108, 109, 110, 111, 112, 113, 114, 115, 116, 117, 118, 119, 120, 121, 122, 123, 124, 125, 126, 127, 128, 129, 130, 131, 132, 133, 134, 135, 136, 137, 138, 139, 140, 141, 142, 143, 144, 145, 146, 147, 148, 149, 150, 151, 152, 153, 154, 155, 156, 157, 158, 159, 160, 161, 162, 163, 164, 165, 166, 167, 168, 169, 170, 171, 172, 173, 174, 175, 176, 177, 178, 179, 180, 181, 182, 183, 184, 185, 186, 187, 188, 189, 190, 191, 192, 193, 194, 195, 196, 197, 198, 199, 200, 201, 202],
      "LargestImagePixelValue": [39589, 38335, 37794, 37209, 37105, 37105, 36979, 36967, 37013, 37050, 37138, 37095, 37001, 36714, 37004, 37013, 36730, 37449, 36538, 37183, 36786, 36956, 37036, 36903, 37490, 36945, 36703, 37102, 36960, 37178, 36977, 36810, 37004, 36579, 36860, 36998, 36769, 36432, 36347, 36919, 37099, 36870, 36897, 36783, 36827, 36658, 36800, 37126, 36482, 37064, 36983, 37094, 36882, 36750, 37027, 36705, 36700, 36456, 36675, 37052, 37179, 36290, 37052, 36697, 36921, 36587, 36924, 36702, 36685, 37135, 36623, 36561, 36835, 36924, 36565, 36707, 36750, 36468, 36686, 36392, 36554, 36931, 36879, 36721, 36876, 36768, 36590, 36448, 36452, 36693, 36663, 36526, 36984, 37039, 36268, 36961, 36436, 36451, 36636, 37361, 37036, 36338, 36575, 36432, 37038, 36745, 36732, 36949, 36280, 36351, 36667, 36442, 36137, 36443, 36401, 36361, 36606, 36404, 36470, 36298, 36435, 36712, 36629, 36420, 36855, 36826, 36357, 36489, 36766, 36461, 36508, 36842, 36840, 36719, 36491, 36810, 36521, 36451, 36641, 36198, 36168, 36676, 37031, 36946, 36573, 36720, 36265, 36637, 37060, 36957, 36789, 36700, 37021, 36943, 36688, 36048, 36897, 37048, 36402, 36538, 36736, 36346, 36699, 36906, 36696, 36571, 36361, 36832, 36395, 36476, 36532, 36447, 36627, 36554, 36925, 36316, 36344, 36624, 36749, 36363, 37053, 36643, 36403, 36661, 36624, 36629, 36411, 36521, 36744, 36756, 36779, 36163, 36535, 36905, 36611, 36844, 36830, 36429, 36354, 36288, 37024, 36958],
      "WindowCenter": [9832.0, 9802.0, 9793.0, 9777.0, 9760.0, 9750.0, 9753.0, 9762.0, 9766.0, 9780.0, 9783.0, 9776.0, 9766.0, 9757.0, 9753.0, 9744.0, 9746.0, 9750.0, 9740.0, 9754.0, 9748.0, 9747.0, 9746.0, 9746.0, 9753.0, 9745.0, 9738.0, 9737.0, 9743.0, 9754.0, 9764.0, 9756.0, 9744.0, 9730.0, 9735.0, 9760.0, 9765.0, 9757.0, 9740.0, 9729.0, 9726.0, 9734.0, 9745.0, 9753.0, 9748.0, 9754.0, 9755.0, 9753.0, 9748.0, 9748.0, 9753.0, 9746.0, 9753.0, 9749.0, 9746.0, 9756.0, 9766.0, 9761.0, 9756.0, 9747.0, 9746.0, 9749.0, 9773.0, 9776.0, 9767.0, 9758.0, 9749.0, 9747.0, 9745.0, 9754.0, 9756.0, 9756.0, 9747.0, 9743.0, 9737.0, 9738.0, 9755.0, 9766.0, 9768.0, 9767.0, 9757.0, 9748.0, 9745.0, 9746.0, 9757.0, 9765.0, 9760.0, 9751.0, 9743.0, 9737.0, 9735.0, 9739.0, 9754.0, 9761.0, 9752.0, 9756.0, 9741.0, 9731.0, 9721.0, 9742.0, 9762.0, 9752.0, 9741.0, 9724.0, 9732.0, 9729.0, 9745.0, 9757.0, 9759.0, 9759.0, 9767.0, 9776.0, 9781.0, 9779.0, 9764.0, 9766.0, 9751.0, 9750.0, 9750.0, 9753.0, 9759.0, 9756.0, 9750.0, 9757.0, 9765.0, 9756.0, 9739.0, 9729.0, 9729.0, 9747.0, 9756.0, 9756.0, 9748.0, 9747.0, 9741.0, 9740.0, 9740.0, 9742.0, 9757.0, 9753.0, 9744.0, 9740.0, 9743.0, 9737.0, 9738.0, 9746.0, 9744.0, 9750.0, 9746.0, 9729.0, 9720.0, 9727.0, 9744.0, 9749.0, 9758.0, 9750.0, 9757.0, 9772.0, 9770.0, 9760.0, 9749.0, 9741.0, 9748.0, 9757.0, 9758.0, 9751.0, 9747.0, 9742.0, 9750.0, 9760.0, 9760.0, 9757.0, 9742.0, 9747.0, 9763.0, 9761.0, 9752.0, 9740.0, 9737.0, 9737.0, 9762.0, 9766.0, 9761.0, 9756.0, 9740.0, 9740.0, 9732.0, 9732.0, 9730.0, 9730.0, 9738.0, 9739.0, 9733.0, 9731.0, 9731.0, 9740.0, 9740.0, 9730.0, 9731.0, 9741.0, 9766.0, 9758.0],
      "WindowWidth": [20816.0, 20733.0, 20706.0, 20669.0, 20626.0, 20603.0, 20605.0, 20626.0, 20637.0, 20663.0, 20670.0, 20655.0, 20633.0, 20614.0, 20601.0, 20582.0, 20587.0, 20593.0, 20579.0, 20606.0, 20597.0, 20593.0, 20589.0, 20587.0, 20602.0, 20587.0, 20573.0, 20569.0, 20580.0, 20604.0, 20627.0, 20609.0, 20581.0, 20554.0, 20562.0, 20617.0, 20633.0, 20613.0, 20576.0, 20547.0, 20541.0, 20558.0, 20587.0, 20604.0, 20597.0, 20606.0, 20603.0, 20598.0, 20593.0, 20591.0, 20599.0, 20585.0, 20601.0, 20595.0, 20588.0, 20609.0, 20634.0, 20623.0, 20606.0, 20589.0, 20587.0, 20598.0, 20648.0, 20656.0, 20635.0, 20616.0, 20595.0, 20588.0, 20583.0, 20604.0, 20611.0, 20607.0, 20587.0, 20576.0, 20565.0, 20568.0, 20606.0, 20632.0, 20639.0, 20635.0, 20609.0, 20590.0, 20583.0, 20590.0, 20614.0, 20630.0, 20622.0, 20598.0, 20581.0, 20566.0, 20561.0, 20573.0, 20604.0, 20618.0, 20602.0, 20605.0, 20574.0, 20551.0, 20529.0, 20573.0, 20620.0, 20604.0, 20575.0, 20536.0, 20549.0, 20548.0, 20584.0, 20611.0, 20620.0, 20619.0, 20634.0, 20656.0, 20671.0, 20665.0, 20632.0, 20630.0, 20600.0, 20595.0, 20598.0, 20607.0, 20616.0, 20607.0, 20596.0, 20611.0, 20626.0, 20607.0, 20568.0, 20547.0, 20548.0, 20586.0, 20608.0, 20607.0, 20592.0, 20585.0, 20576.0, 20573.0, 20573.0, 20581.0, 20612.0, 20606.0, 20587.0, 20572.0, 20571.0, 20565.0, 20570.0, 20586.0, 20585.0, 20595.0, 20577.0, 20541.0, 20523.0, 20541.0, 20579.0, 20595.0, 20613.0, 20597.0, 20612.0, 20643.0, 20645.0, 20622.0, 20594.0, 20575.0, 20591.0, 20611.0, 20612.0, 20597.0, 20586.0, 20578.0, 20597.0, 20618.0, 20620.0, 20610.0, 20578.0, 20588.0, 20624.0, 20625.0, 20600.0, 20571.0, 20563.0, 20564.0, 20619.0, 20632.0, 20626.0, 20607.0, 20571.0, 20571.0, 20557.0, 20558.0, 20551.0, 20549.0, 20562.0, 20567.0, 20556.0, 20548.0, 20548.0, 20567.0, 20569.0, 20549.0, 20550.0, 20576.0, 20628.0, 20609.0]
    },
    "slices": {}
  }
}