{
  "AcquisitionMatrixPE": 104,
  "AcquisitionNumber": 1,
  "AcquisitionTime": "15:34:57.000000",
  "BandwidthPerPixelPhaseEncode": 17.17,
  "BaseResolution": 104,
  "BodyPartExamined": "BRAIN",
  "CoilString": "HC1-7;NC1_2",
  "ConsistencyInfo": "N4_VE11C_LATEST_20160120",
  "ConversionSoftware": "dcm2niix",
  "ConversionSoftwareVersion": "v1.0.20190720  (JP2:OpenJPEG) GCC7.3.0",
  "DerivedVendorReportedEchoSpacing": 0.000560011,
  "DeviceSerialNumber": "167006",
  "DwellTime": 2.1e-06,
  "EchoTime": 0.037,
  "EchoTrainLength": 104,
  "EffectiveEchoSpacing": 0.000560011,
  "FlipAngle": 52,
  "ImageComments": "Unaliased_MB4_PE3_LB",
  "ImageOrientationPatientDICOM": [0.99993, -0.0110939, 0.0042184, 0.011868, 0.938812, -0.344225],
  "ImageType": [
    "ORIGINAL",
    "PRIMARY",
    "M",
    "MB",
    "ND",
    "MOSAIC"
],
  "ImagingFrequency": 123.259,
  "InPlanePhaseEncodingDirectionDICOM": "COL",
  "InstitutionAddress": "Chemin_Queen-Mary_4565_Montreal_District_CA_H3W_1W5",
  "InstitutionName": "IUGM",
  "InstitutionalDepartmentName": "Department",
  "MRAcquisitionType": "2D",
  "MagneticFieldStrength": 3,
  "Manufacturer": "Siemens",
  "ManufacturersModelName": "Prisma_fit",
  "Modality": "MR",
  "MultibandAccelerationFactor": 4,
  "PartialFourier": 1,
  "PatientPosition": "HFS",
  "PercentPhaseFOV": 100,
  "PhaseEncodingDirection": "j",
  "PhaseEncodingSteps": 104,
  "PhaseResolution": 1,
  "PixelBandwidth": 2290,
  "ProcedureStepDescription": "hcptrt_generic",
  "ProtocolName": "func_task-social_run-1",
  "PulseSequenceDetails": "%CustomerSeq%_cmrr_mbep2d_bold",
  "ReceiveCoilActiveElements": "HC1-7;NC1,2",
  "ReceiveCoilName": "HeadNeck_64",
  "ReconMatrixPE": 104,
  "RepetitionTime": 1.49,
  "SAR": 0.0293742,
  "ScanOptions": "FS",
  "ScanningSequence": "EP",
  "SequenceName": "epfid2d1_104",
  "SequenceVariant": "SK_SS",
  "SeriesDescription": "func_task-social_run-1",
  "SeriesNumber": 21,
  "ShimSetting": [633, -7155, -8805, 671, 40, 121, 0, 2],
  "SliceThickness": 2,
  "SliceTiming": [0, 0.785, 0.0975, 0.8825, 0.1975, 0.98, 0.295, 1.0775, 0.3925, 1.1775, 0.49, 1.275, 0.5875, 1.3725, 0.6875, 0, 0.785, 0.0975, 0.8825, 0.1975, 0.98, 0.295, 1.0775, 0.3925, 1.1775, 0.49, 1.275, 0.5875, 1.3725, 0.6875, 0, 0.785, 0.0975, 0.8825, 0.1975, 0.98, 0.295, 1.0775, 0.3925, 1.1775, 0.49, 1.275, 0.5875, 1.3725, 0.6875, 0, 0.785, 0.0975, 0.8825, 0.1975, 0.98, 0.295, 1.0775, 0.3925, 1.1775, 0.49, 1.275, 0.5875, 1.3725, 0.6875],
  "SoftwareVersions": "syngo_MR_E11",
  "SpacingBetweenSlices": 2,
  "StationName": "MRC35049",
  "TaskName": "social",
  "TotalReadoutTime": 0.0576811,
  "TxRefAmp": 209.051,
  "WipMemBlock": "7f8434d9-30ee-44e8-83e4-6d90a579d66b||Sequence: R016 ve11c/master r/e634e98; Dec 19 2017 11:00:25 by eja",
  "dcmmeta_affine": [
    [-1.999859094619751, 0.02373594045639038, 0.0002829869044944644, 104.77379608154297],
    [0.02218773029744625, 1.8776240348815918, -0.6885023713111877, -68.6028060913086],
    [0.008436797186732292, 0.6884507536888123, 1.8777551651000977, -65.5029296875],
    [0.0, 0.0, 0.0, 1.0]
],
  "dcmmeta_reorient_transform": [
    [0.0, -1.0, 0.0, 103.0],
    [1.0, 0.0, 0.0, 0.0],
    [0.0, 0.0, 1.0, 0.0],
    [0.0, 0.0, 0.0, 1.0]
],
  "dcmmeta_shape": [104, 104, 60, 139],
  "dcmmeta_slice_dim": 2,
  "dcmmeta_version": 0.6,
  "global": {
    "const": {
      "AcquisitionMatrix": [104, 0, 0, 104],
      "AngioFlag": "N",
      "BitsAllocated": 16,
      "BitsStored": 16,
      "BodyPartExamined": "BRAIN",
      "Columns": 832,
      "EchoNumbers": 1,
      "EchoTime": 37.0,
      "EchoTrainLength": 104,
      "FlipAngle": 52.0,
      "HighBit": 15,
      "ImageOrientationPatient": [0.99992956315163, -0.011093865348, 0.00421839863336, 0.0118679701295, 0.93881203758739, -0.344225375831],
      "ImagePositionPatient": [-843.80719922493, -800.17130133134, 252.93257893899],
      "ImageType": [
        "ORIGINAL",
        "PRIMARY",
        "M",
        "MB",
        "ND",
        "MOSAIC"
],
      "ImagedNucleus": "1H",
      "ImagingFrequency": 123.259331,
      "InPlanePhaseEncodingDirection": "COL",
      "MRAcquisitionType": "2D",
      "MagneticFieldStrength": 3.0,
      "Manufacturer": "SIEMENS",
      "ManufacturerModelName": "Prisma_fit",
      "Modality": "MR",
      "NumberOfAverages": 1.0,
      "NumberOfPhaseEncodingSteps": 104,
      "PercentPhaseFieldOfView": 100.0,
      "PercentSampling": 100.0,
      "PerformedProcedureStepStartTime": "143742.795000",
      "PhotometricInterpretation": "MONOCHROME2",
      "PixelBandwidth": 2290.0,
      "PixelRepresentation": 0,
      "PixelSpacing": [2.0, 2.0],
      "ProtocolName": "func_task-social_run-1",
      "RepetitionTime": 1490.0,
      "Rows": 832,
      "SAR": 0.02937422878296,
      "SamplesPerPixel": 1,
      "ScanOptions": "FS",
      "ScanningSequence": "EP",
      "SequenceName": "epfid2d1_104",
      "SequenceVariant": [
        "SK",
        "SS"
],
      "SeriesDescription": "func_task-social_run-1",
      "SeriesNumber": 21,
      "SeriesTime": "153623.940000",
      "SliceLocation": -37.867806638664,
      "SliceThickness": 2.0,
      "SmallestImagePixelValue": 0,
      "SoftwareVersions": "syngo MR E11",
      "SpacingBetweenSlices": 2.0000000115542,
      "SpecificCharacterSet": "ISO_IR 100",
      "StudyID": "1",
      "StudyTime": "143742.725000",
      "TransmitCoilName": "Body",
      "VariableFlipAngleFlag": "N",
      "WindowCenterWidthExplanation": "Algo1",
      "dBdt": 0.0},
    "slices": {}
  },
  "time": {
    "samples": {
      "AcquisitionNumber": [1, 2, 3, 4, 5, 6, 7, 8, 9, 10, 11, 12, 13, 14, 15, 16, 17, 18, 19, 20, 21, 22, 23, 24, 25, 26, 27, 28, 29, 30, 31, 32, 33, 34, 35, 36, 37, 38, 39, 40, 41, 42, 43, 44, 45, 46, 47, 48, 49, 50, 51, 52, 53, 54, 55, 56, 57, 58, 59, 60, 61, 62, 63, 64, 65, 66, 67, 68, 69, 70, 71, 72, 73, 74, 75, 76, 77, 78, 79, 80, 81, 82, 83, 84, 85, 86, 87, 88, 89, 90, 91, 92, 93, 94, 95, 96, 97, 98, 99, 100, 101, 102, 103, 104, 105, 106, 107, 108, 109, 110, 111, 112, 113, 114, 115, 116, 117, 118, 119, 120, 121, 122, 123, 124, 125, 126, 127, 128, 129, 130, 131, 132, 133, 134, 135, 136, 137, 138, 139],
      "AcquisitionTime": ["153457.000000", "153458.490000", "153459.980000", "153501.470000", "153502.960000", "153504.450000", "153505.940000", "153507.430000", "153508.920000", "153510.410000", "153511.900000", "153513.390000", "153514.880000", "153516.370000", "153517.860000", "153519.350000", "153520.840000", "153522.330000", "153523.820000", "153525.310000", "153526.800000", "153528.290000", "153529.780000", "153531.270000", "153532.760000", "153534.250000", "153535.740000", "153537.230000", "153538.720000", "153540.210000", "153541.700000", "153543.190000", "153544.680000", "153546.170000", "153547.660000", "153549.150000", "153550.640000", "153552.130000", "153553.620000", "153555.110000", "153556.600000", "153558.090000", "153559.580000", "153601.070000", "153602.560000", "153604.050000", "153605.540000", "153607.030000", "153608.520000", "153610.010000", "153611.500000", "153612.990000", "153614.480000", "153615.970000", "153617.460000", "153618.950000", "153620.440000", "153621.930000", "153623.420000", "153624.910000", "153626.400000", "153627.890000", "153629.380000", "153630.870000", "153632.360000", "153633.850000", "153635.340000", "153636.830000", "153638.320000", "153639.810000", "153641.300000", "153642.790000", "153644.280000", "153645.770000", "153647.260000", "153648.750000", "153650.240000", "153651.730000", "153653.220000", "153654.710000", "153656.200000", "153657.690000", "153659.180000", "153700.670000", "153702.160000", "153703.650000", "153705.140000", "153706.630000", "153708.120000", "153709.610000", "153711.100000", "153712.590000", "153714.080000", "153715.570000", "153717.060000", "153718.550000", "153720.040000", "153721.530000", "153723.020000", "153724.510000", "153726.000000", "153727.490000", "153728.980000", "153730.470000", "153731.960000", "153733.450000", "153734.940000", "153736.430000", "153737.920000", "153739.410000", "153740.900000", "153742.390000", "153743.880000", "153745.370000", "153746.860000", "153748.350000", "153749.840000", "153751.330000", "153752.820000", "153754.310000", "153755.800000", "153757.290000", "153758.780000", "153800.270000", "153801.760000", "153803.250000", "153804.740000", "153806.230000", "153807.720000", "153809.210000", "153810.700000", "153812.190000", "153813.680000", "153815.170000", "153816.660000", "153818.150000", "153819.640000", "153821.130000", "153822.620000"],
      "ContentTime": ["153623.943000", "153623.947000", "153623.950000", "153623.953000", "153623.956000", "153623.959000", "153623.965000", "153623.967000", "153623.970000", "153623.973000", "153623.976000", "153623.979000", "153623.982000", "153623.985000", "153623.988000", "153623.991000", "153623.994000", "153623.997000", "153624.007000", "153624.010000", "153624.012000", "153624.016000", "153624.018000", "153624.021000", "153624.024000", "153624.028000", "153624.030000", "153624.033000", "153624.036000", "153624.039000", "153624.042000", "153643.910000", "153643.913000", "153643.916000", "153643.919000", "153643.922000", "153643.925000", "153643.928000", "153643.931000", "153643.934000", "153643.937000", "153643.940000", "153643.943000", "153643.946000", "153643.949000", "153643.952000", "153643.955000", "153643.958000", "153643.961000", "153643.964000", "153643.967000", "153703.910000", "153703.922000", "153703.925000", "153703.927000", "153703.930000", "153703.934000", "153703.936000", "153703.939000", "153703.942000", "153703.945000", "153703.948000", "153703.951000", "153703.954000", "153703.957000", "153703.960000", "153703.963000", "153703.966000", "153703.969000", "153703.972000", "153703.975000", "153723.910000", "153723.913000", "153723.916000", "153723.919000", "153723.922000", "153723.925000", "153723.928000", "153723.932000", "153723.934000", "153723.937000", "153723.940000", "153723.943000", "153723.946000", "153723.949000", "153723.952000", "153723.955000", "153723.958000", "153723.961000", "153723.964000", "153723.967000", "153723.970000", "153803.910000", "153803.913000", "153803.916000", "153803.919000", "153803.922000", "153803.925000", "153803.928000", "153803.931000", "153803.934000", "153803.937000", "153803.940000", "153803.943000", "153803.946000", "153803.949000", "153803.952000", "153803.955000", "153803.958000", "153803.961000", "153803.964000", "153803.967000", "153803.970000", "153803.973000", "153803.976000", "153803.979000", "153803.982000", "153803.985000", "153803.988000", "153803.991000", "153803.994000", "153803.997000", "153804.000000", "153804.003000", "153825.048000", "153825.052000", "153825.055000", "153825.058000", "153825.072000", "153825.075000", "153825.078000", "153825.081000", "153825.084000", "153825.087000", "153825.090000", "153825.093000", "153825.097000", "153825.100000", "153825.103000"],
      "InstanceCreationTime": ["153623.943000", "153623.947000", "153623.950000", "153623.953000", "153623.956000", "153623.959000", "153623.965000", "153623.967000", "153623.970000", "153623.973000", "153623.976000", "153623.979000", "153623.982000", "153623.985000", "153623.988000", "153623.991000", "153623.994000", "153623.997000", "153624.007000", "153624.010000", "153624.012000", "153624.016000", "153624.018000", "153624.021000", "153624.024000", "153624.028000", "153624.030000", "153624.033000", "153624.036000", "153624.039000", "153624.042000", "153643.910000", "153643.913000", "153643.916000", "153643.919000", "153643.922000", "153643.925000", "153643.928000", "153643.931000", "153643.934000", "153643.937000", "153643.940000", "153643.943000", "153643.946000", "153643.949000", "153643.952000", "153643.955000", "153643.958000", "153643.961000", "153643.964000", "153643.967000", "153703.910000", "153703.922000", "153703.925000", "153703.927000", "153703.930000", "153703.934000", "153703.936000", "153703.939000", "153703.942000", "153703.945000", "153703.948000", "153703.951000", "153703.954000", "153703.957000", "153703.960000", "153703.963000", "153703.966000", "153703.969000", "153703.972000", "153703.975000", "153723.910000", "153723.913000", "153723.916000", "153723.919000", "153723.922000", "153723.925000", "153723.928000", "153723.932000", "153723.934000", "153723.937000", "153723.940000", "153723.943000", "153723.946000", "153723.949000", "153723.952000", "153723.955000", "153723.958000", "153723.961000", "153723.964000", "153723.967000", "153723.970000", "153803.910000", "153803.913000", "153803.916000", "153803.919000", "153803.922000", "153803.925000", "153803.928000", "153803.931000", "153803.934000", "153803.937000", "153803.940000", "153803.943000", "153803.946000", "153803.949000", "153803.952000", "153803.955000", "153803.958000", "153803.961000", "153803.964000", "153803.967000", "153803.970000", "153803.973000", "153803.976000", "153803.979000", "153803.982000", "153803.985000", "153803.988000", "153803.991000", "153803.994000", "153803.997000", "153804.000000", "153804.003000", "153825.048000", "153825.052000", "153825.055000", "153825.058000", "153825.072000", "153825.075000", "153825.078000", "153825.081000", "153825.084000", "153825.087000", "153825.090000", "153825.093000", "153825.097000", "153825.100000", "153825.103000"],
      "InstanceNumber": [1, 2, 3, 4, 5, 6, 7, 8, 9, 10, 11, 12, 13, 14, 15, 16, 17, 18, 19, 20, 21, 22, 23, 24, 25, 26, 27, 28, 29, 30, 31, 32, 33, 34, 35, 36, 37, 38, 39, 40, 41, 42, 43, 44, 45, 46, 47, 48, 49, 50, 51, 52, 53, 54, 55, 56, 57, 58, 59, 60, 61, 62, 63, 64, 65, 66, 67, 68, 69, 70, 71, 72, 73, 74, 75, 76, 77, 78, 79, 80, 81, 82, 83, 84, 85, 86, 87, 88, 89, 90, 91, 92, 93, 94, 95, 96, 97, 98, 99, 100, 101, 102, 103, 104, 105, 106, 107, 108, 109, 110, 111, 112, 113, 114, 115, 116, 117, 118, 119, 120, 121, 122, 123, 124, 125, 126, 127, 128, 129, 130, 131, 132, 133, 134, 135, 136, 137, 138, 139],
      "LargestImagePixelValue": [40848, 40255, 39212, 39218, 38995, 38228, 38780, 38853, 38457, 38402, 38468, 38388, 38512, 38478, 37753, 38447, 38063, 38322, 38264, 37788, 38256, 38711, 37985, 38168, 38534, 37885, 38456, 38495, 37990, 38102, 38450, 38010, 38066, 37960, 38152, 37897, 38445, 37905, 38388, 38517, 37747, 38635, 38398, 38213, 38538, 38423, 38073, 37808, 38560, 37872, 38229, 38329, 38092, 37956, 38665, 38472, 38136, 38797, 37642, 38155, 38303, 38016, 38278, 38417, 37608, 38557, 38721, 38284, 38002, 38511, 37791, 38270, 38544, 38545, 37821, 38064, 38095, 37914, 38304, 37748, 38211, 38427, 37854, 37968, 38551, 38052, 37797, 37762, 38181, 38086, 38167, 38394, 38172, 37857, 37731, 38086, 38331, 38186, 37934, 38025, 38088, 37658, 37960, 37891, 37721, 38042, 38674, 37947, 37562, 37733, 37901, 37791, 37927, 38101, 37847, 37810, 38197, 38353, 37826, 38063, 37477, 37982, 37881, 37851, 38085, 38512, 37623, 38182, 37901, 38067, 37692, 38614, 38534, 37881, 38023, 38054, 37566, 38689, 37801],
      "WindowCenter": [9833.0, 9787.0, 9760.0, 9758.0, 9757.0, 9752.0, 9759.0, 9764.0, 9769.0, 9769.0, 9776.0, 9780.0, 9781.0, 9780.0, 9781.0, 9791.0, 9797.0, 9798.0, 9790.0, 9782.0, 9787.0, 9795.0, 9787.0, 9782.0, 9787.0, 9781.0, 9787.0, 9788.0, 9782.0, 9781.0, 9786.0, 9773.0, 9772.0, 9763.0, 9761.0, 9769.0, 9777.0, 9765.0, 9769.0, 9776.0, 9772.0, 9784.0, 9784.0, 9780.0, 9788.0, 9790.0, 9781.0, 9774.0, 9762.0, 9753.0, 9753.0, 9752.0, 9744.0, 9741.0, 9749.0, 9751.0, 9755.0, 9759.0, 9745.0, 9746.0, 9757.0, 9760.0, 9775.0, 9784.0, 9780.0, 9786.0, 9787.0, 9787.0, 9789.0, 9779.0, 9762.0, 9767.0, 9785.0, 9813.0, 9811.0, 9793.0, 9765.0, 9747.0, 9750.0, 9752.0, 9769.0, 9777.0, 9773.0, 9780.0, 9781.0, 9778.0, 9764.0, 9754.0, 9760.0, 9764.0, 9789.0, 9796.0, 9773.0, 9755.0, 9754.0, 9761.0, 9762.0, 9755.0, 9771.0, 9781.0, 9797.0, 9777.0, 9772.0, 9748.0, 9739.0, 9753.0, 9778.0, 9782.0, 9758.0, 9746.0, 9750.0, 9754.0, 9763.0, 9763.0, 9763.0, 9756.0, 9755.0, 9768.0, 9773.0, 9781.0, 9784.0, 9784.0, 9773.0, 9781.0, 9801.0, 9802.0, 9776.0, 9757.0, 9747.0, 9761.0, 9763.0, 9762.0, 9752.0, 9753.0, 9772.0, 9771.0, 9757.0, 9770.0, 9756.0],
      "WindowWidth": [20821.0, 20695.0, 20626.0, 20619.0, 20613.0, 20606.0, 20620.0, 20627.0, 20640.0, 20641.0, 20655.0, 20667.0, 20673.0, 20667.0, 20670.0, 20694.0, 20707.0, 20707.0, 20690.0, 20674.0, 20679.0, 20696.0, 20678.0, 20671.0, 20680.0, 20668.0, 20681.0, 20683.0, 20672.0, 20668.0, 20675.0, 20651.0, 20646.0, 20626.0, 20623.0, 20641.0, 20658.0, 20636.0, 20642.0, 20655.0, 20647.0, 20669.0, 20670.0, 20668.0, 20685.0, 20691.0, 20668.0, 20654.0, 20622.0, 20601.0, 20602.0, 20600.0, 20582.0, 20574.0, 20591.0, 20599.0, 20610.0, 20616.0, 20588.0, 20589.0, 20610.0, 20621.0, 20653.0, 20671.0, 20667.0, 20678.0, 20681.0, 20680.0, 20686.0, 20662.0, 20626.0, 20635.0, 20675.0, 20738.0, 20738.0, 20696.0, 20631.0, 20594.0, 20594.0, 20603.0, 20640.0, 20656.0, 20651.0, 20663.0, 20667.0, 20657.0, 20627.0, 20606.0, 20616.0, 20630.0, 20686.0, 20700.0, 20650.0, 20610.0, 20604.0, 20620.0, 20623.0, 20611.0, 20643.0, 20667.0, 20700.0, 20659.0, 20643.0, 20592.0, 20573.0, 20603.0, 20657.0, 20666.0, 20615.0, 20586.0, 20593.0, 20608.0, 20627.0, 20628.0, 20628.0, 20615.0, 20612.0, 20637.0, 20652.0, 20670.0, 20679.0, 20679.0, 20651.0, 20669.0, 20712.0, 20714.0, 20655.0, 20610.0, 20589.0, 20618.0, 20626.0, 20621.0, 20598.0, 20602.0, 20645.0, 20644.0, 20613.0, 20633.0, 20607.0]
    },
    "slices": {}
  }
}