{
  "AcquisitionMatrixPE": 104,
  "AcquisitionNumber": 1,
  "AcquisitionTime": "15:19:21.207500",
  "BandwidthPerPixelPhaseEncode": 17.17,
  "BaseResolution": 104,
  "BodyPartExamined": "BRAIN",
  "CoilString": "HC1-7;NC1_2",
  "ConsistencyInfo": "N4_VE11C_LATEST_20160120",
  "ConversionSoftware": "dcm2niix",
  "ConversionSoftwareVersion": "v1.0.20190720  (JP2:OpenJPEG) GCC7.3.0",
  "DerivedVendorReportedEchoSpacing": 0.000560011,
  "DeviceSerialNumber": "167006",
  "DwellTime": 2.1e-06,
  "EchoTime": 0.037,
  "EchoTrainLength": 104,
  "EffectiveEchoSpacing": 0.000560011,
  "FlipAngle": 52,
  "ImageComments": "Unaliased_MB4_PE3_LB",
  "ImageOrientationPatientDICOM": [0.99993, -0.0110939, 0.0042184, 0.011868, 0.938812, -0.344225],
  "ImageType": [
    "ORIGINAL",
    "PRIMARY",
    "M",
    "MB",
    "ND",
    "MOSAIC"
],
  "ImagingFrequency": 123.259,
  "InPlanePhaseEncodingDirectionDICOM": "COL",
  "InstitutionAddress": "Chemin_Queen-Mary_4565_Montreal_District_CA_H3W_1W5",
  "InstitutionName": "IUGM",
  "InstitutionalDepartmentName": "Department",
  "MRAcquisitionType": "2D",
  "MagneticFieldStrength": 3,
  "Manufacturer": "Siemens",
  "ManufacturersModelName": "Prisma_fit",
  "Modality": "MR",
  "MultibandAccelerationFactor": 4,
  "PartialFourier": 1,
  "PatientPosition": "HFS",
  "PercentPhaseFOV": 100,
  "PhaseEncodingDirection": "j",
  "PhaseEncodingSteps": 104,
  "PhaseResolution": 1,
  "PixelBandwidth": 2290,
  "ProcedureStepDescription": "hcptrt_generic",
  "ProtocolName": "func_task-motor_run-1",
  "PulseSequenceDetails": "%CustomerSeq%_cmrr_mbep2d_bold",
  "ReceiveCoilActiveElements": "HC1-7;NC1,2",
  "ReceiveCoilName": "HeadNeck_64",
  "ReconMatrixPE": 104,
  "RepetitionTime": 1.49,
  "SAR": 0.0293879,
  "ScanOptions": "FS",
  "ScanningSequence": "EP",
  "SequenceName": "epfid2d1_104",
  "SequenceVariant": "SK_SS",
  "SeriesDescription": "func_task-motor_run-1",
  "SeriesNumber": 15,
  "ShimSetting": [633, -7155, -8805, 671, 40, 121, 0, 2],
  "SliceThickness": 2,
  "SliceTiming": [0, 0.785, 0.1, 0.8825, 0.1975, 0.98, 0.295, 1.08, 0.3925, 1.1775, 0.49, 1.275, 0.59, 1.3725, 0.6875, 0, 0.785, 0.1, 0.8825, 0.1975, 0.98, 0.295, 1.08, 0.3925, 1.1775, 0.49, 1.275, 0.59, 1.3725, 0.6875, 0, 0.785, 0.1, 0.8825, 0.1975, 0.98, 0.295, 1.08, 0.3925, 1.1775, 0.49, 1.275, 0.59, 1.3725, 0.6875, 0, 0.785, 0.1, 0.8825, 0.1975, 0.98, 0.295, 1.08, 0.3925, 1.1775, 0.49, 1.275, 0.59, 1.3725, 0.6875],
  "SoftwareVersions": "syngo_MR_E11",
  "SpacingBetweenSlices": 2,
  "StationName": "MRC35049",
  "TaskName": "motor",
  "TotalReadoutTime": 0.0576811,
  "TxRefAmp": 209.051,
  "WipMemBlock": "7de7c677-6d2f-43ec-bb1a-4f77303b98ba||Sequence: R016 ve11c/master r/e634e98; Dec 19 2017 11:00:25 by eja",
  "dcmmeta_affine": [
    [-1.999859094619751, 0.02373594045639038, 0.0002829869044944644, 104.77379608154297],
    [0.02218773029744625, 1.8776240348815918, -0.6885023713111877, -68.6028060913086],
    [0.008436797186732292, 0.6884507536888123, 1.8777551651000977, -65.5029296875],
    [0.0, 0.0, 0.0, 1.0]
],
  "dcmmeta_reorient_transform": [
    [0.0, -1.0, 0.0, 103.0],
    [1.0, 0.0, 0.0, 0.0],
    [0.0, 0.0, 1.0, 0.0],
    [0.0, 0.0, 0.0, 1.0]
],
  "dcmmeta_shape": [104, 104, 60, 144],
  "dcmmeta_slice_dim": 2,
  "dcmmeta_version": 0.6,
  "global": {
    "const": {
      "AcquisitionMatrix": [104, 0, 0, 104],
      "AngioFlag": "N",
      "BitsAllocated": 16,
      "BitsStored": 16,
      "BodyPartExamined": "BRAIN",
      "Columns": 832,
      "EchoNumbers": 1,
      "EchoTime": 37.0,
      "EchoTrainLength": 104,
      "FlipAngle": 52.0,
      "HighBit": 15,
      "ImageOrientationPatient": [0.99992956315163, -0.011093865348, 0.00421839863336, 0.0118679701295, 0.93881203758739, -0.344225375831],
      "ImagePositionPatient": [-843.80719922493, -800.17130133134, 252.93257893899],
      "ImageType": [
        "ORIGINAL",
        "PRIMARY",
        "M",
        "MB",
        "ND",
        "MOSAIC"
],
      "ImagedNucleus": "1H",
      "ImagingFrequency": 123.259327,
      "InPlanePhaseEncodingDirection": "COL",
      "MRAcquisitionType": "2D",
      "MagneticFieldStrength": 3.0,
      "Manufacturer": "SIEMENS",
      "ManufacturerModelName": "Prisma_fit",
      "Modality": "MR",
      "NumberOfAverages": 1.0,
      "NumberOfPhaseEncodingSteps": 104,
      "PercentPhaseFieldOfView": 100.0,
      "PercentSampling": 100.0,
      "PerformedProcedureStepStartTime": "143742.795000",
      "PhotometricInterpretation": "MONOCHROME2",
      "PixelBandwidth": 2290.0,
      "PixelRepresentation": 0,
      "PixelSpacing": [2.0, 2.0],
      "ProtocolName": "func_task-motor_run-1",
      "RepetitionTime": 1490.0,
      "Rows": 832,
      "SAR": 0.02938791831125,
      "SamplesPerPixel": 1,
      "ScanOptions": "FS",
      "ScanningSequence": "EP",
      "SequenceName": "epfid2d1_104",
      "SequenceVariant": [
        "SK",
        "SS"
],
      "SeriesDescription": "func_task-motor_run-1",
      "SeriesNumber": 15,
      "SeriesTime": "152043.942000",
      "SliceLocation": -37.867806638664,
      "SliceThickness": 2.0,
      "SmallestImagePixelValue": 0,
      "SoftwareVersions": "syngo MR E11",
      "SpacingBetweenSlices": 2.0000000115542,
      "SpecificCharacterSet": "ISO_IR 100",
      "StudyID": "1",
      "StudyTime": "143742.725000",
      "TransmitCoilName": "Body",
      "VariableFlipAngleFlag": "N",
      "WindowCenterWidthExplanation": "Algo1",
      "dBdt": 0.0},
    "slices": {}
  },
  "time": {
    "samples": {
      "AcquisitionNumber": [1, 2, 3, 4, 5, 6, 7, 8, 9, 10, 11, 12, 13, 14, 15, 16, 17, 18, 19, 20, 21, 22, 23, 24, 25, 26, 27, 28, 29, 30, 31, 32, 33, 34, 35, 36, 37, 38, 39, 40, 41, 42, 43, 44, 45, 46, 47, 48, 49, 50, 51, 52, 53, 54, 55, 56, 57, 58, 59, 60, 61, 62, 63, 64, 65, 66, 67, 68, 69, 70, 71, 72, 73, 74, 75, 76, 77, 78, 79, 80, 81, 82, 83, 84, 85, 86, 87, 88, 89, 90, 91, 92, 93, 94, 95, 96, 97, 98, 99, 100, 101, 102, 103, 104, 105, 106, 107, 108, 109, 110, 111, 112, 113, 114, 115, 116, 117, 118, 119, 120, 121, 122, 123, 124, 125, 126, 127, 128, 129, 130, 131, 132, 133, 134, 135, 136, 137, 138, 139, 140, 141, 142, 143, 144],
      "AcquisitionTime": ["151921.207500", "151922.697500", "151924.187500", "151925.677500", "151927.167500", "151928.657500", "151930.147500", "151931.637500", "151933.127500", "151934.617500", "151936.107500", "151937.597500", "151939.087500", "151940.577500", "151942.067500", "151943.557500", "151945.047500", "151946.537500", "151948.027500", "151949.517500", "151951.007500", "151952.497500", "151953.987500", "151955.477500", "151956.967500", "151958.457500", "151959.947500", "152001.437500", "152002.927500", "152004.417500", "152005.907500", "152007.397500", "152008.887500", "152010.377500", "152011.867500", "152013.357500", "152014.847500", "152016.337500", "152017.827500", "152019.317500", "152020.807500", "152022.297500", "152023.787500", "152025.277500", "152026.767500", "152028.257500", "152029.747500", "152031.237500", "152032.727500", "152034.217500", "152035.707500", "152037.197500", "152038.687500", "152040.177500", "152041.667500", "152043.157500", "152044.647500", "152046.137500", "152047.627500", "152049.117500", "152050.607500", "152052.097500", "152053.587500", "152055.077500", "152056.567500", "152058.057500", "152059.547500", "152101.037500", "152102.527500", "152104.017500", "152105.507500", "152106.997500", "152108.487500", "152109.977500", "152111.467500", "152112.957500", "152114.447500", "152115.937500", "152117.427500", "152118.917500", "152120.407500", "152121.897500", "152123.387500", "152124.877500", "152126.367500", "152127.857500", "152129.347500", "152130.837500", "152132.327500", "152133.817500", "152135.307500", "152136.797500", "152138.287500", "152139.777500", "152141.267500", "152142.757500", "152144.247500", "152145.737500", "152147.227500", "152148.717500", "152150.207500", "152151.697500", "152153.187500", "152154.677500", "152156.167500", "152157.657500", "152159.147500", "152200.637500", "152202.127500", "152203.617500", "152205.107500", "152206.597500", "152208.087500", "152209.577500", "152211.067500", "152212.557500", "152214.047500", "152215.537500", "152217.027500", "152218.517500", "152220.007500", "152221.497500", "152222.987500", "152224.477500", "152225.967500", "152227.457500", "152228.947500", "152230.437500", "152231.927500", "152233.417500", "152234.907500", "152236.397500", "152237.887500", "152239.377500", "152240.867500", "152242.357500", "152243.847500", "152245.337500", "152246.827500", "152248.317500", "152249.807500", "152251.297500", "152252.787500", "152254.277500"],
      "ContentTime": ["152043.945000", "152043.949000", "152043.960000", "152043.963000", "152043.966000", "152043.969000", "152043.972000", "152043.975000", "152043.983000", "152043.986000", "152043.989000", "152043.992000", "152043.995000", "152043.998000", "152044.002000", "152044.009000", "152044.012000", "152044.015000", "152044.017000", "152044.020000", "152044.023000", "152044.026000", "152044.029000", "152044.032000", "152044.035000", "152044.047000", "152044.050000", "152044.053000", "152103.910000", "152103.913000", "152103.916000", "152103.919000", "152103.922000", "152103.925000", "152103.928000", "152103.931000", "152103.934000", "152103.937000", "152103.940000", "152103.943000", "152103.946000", "152103.949000", "152103.951000", "152103.954000", "152103.957000", "152103.960000", "152103.963000", "152103.966000", "152123.910000", "152123.913000", "152123.916000", "152123.919000", "152123.922000", "152123.926000", "152123.929000", "152123.932000", "152123.935000", "152123.938000", "152123.941000", "152123.944000", "152123.947000", "152123.950000", "152123.953000", "152123.956000", "152123.959000", "152123.962000", "152123.965000", "152123.968000", "152143.910000", "152143.913000", "152143.916000", "152143.919000", "152143.922000", "152143.931000", "152143.934000", "152143.937000", "152143.940000", "152143.943000", "152143.946000", "152143.949000", "152143.952000", "152143.955000", "152143.958000", "152143.961000", "152143.972000", "152143.976000", "152143.978000", "152143.981000", "152143.984000", "152223.909000", "152223.912000", "152223.915000", "152223.918000", "152223.921000", "152223.924000", "152223.927000", "152223.930000", "152223.933000", "152223.936000", "152223.939000", "152223.942000", "152223.945000", "152223.948000", "152223.951000", "152223.954000", "152223.957000", "152223.960000", "152223.963000", "152223.966000", "152223.969000", "152223.972000", "152223.975000", "152223.978000", "152223.981000", "152223.984000", "152223.987000", "152223.990000", "152223.993000", "152223.996000", "152224.000000", "152224.003000", "152243.910000", "152243.913000", "152243.916000", "152243.919000", "152243.922000", "152243.925000", "152243.928000", "152243.931000", "152243.934000", "152243.937000", "152243.940000", "152243.943000", "152243.946000", "152243.949000", "152256.857000", "152256.860000", "152256.863000", "152256.866000", "152256.869000", "152256.872000", "152256.875000", "152256.878000", "152256.881000"],
      "InstanceCreationTime": ["152043.945000", "152043.949000", "152043.960000", "152043.963000", "152043.966000", "152043.969000", "152043.972000", "152043.975000", "152043.983000", "152043.986000", "152043.989000", "152043.992000", "152043.995000", "152043.998000", "152044.002000", "152044.009000", "152044.012000", "152044.015000", "152044.017000", "152044.020000", "152044.023000", "152044.026000", "152044.029000", "152044.032000", "152044.035000", "152044.047000", "152044.050000", "152044.053000", "152103.910000", "152103.913000", "152103.916000", "152103.919000", "152103.922000", "152103.925000", "152103.928000", "152103.931000", "152103.934000", "152103.937000", "152103.940000", "152103.943000", "152103.946000", "152103.949000", "152103.951000", "152103.954000", "152103.957000", "152103.960000", "152103.963000", "152103.966000", "152123.910000", "152123.913000", "152123.916000", "152123.919000", "152123.922000", "152123.926000", "152123.929000", "152123.932000", "152123.935000", "152123.938000", "152123.941000", "152123.944000", "152123.947000", "152123.950000", "152123.953000", "152123.956000", "152123.959000", "152123.962000", "152123.965000", "152123.968000", "152143.910000", "152143.913000", "152143.916000", "152143.919000", "152143.922000", "152143.931000", "152143.934000", "152143.937000", "152143.940000", "152143.943000", "152143.946000", "152143.949000", "152143.952000", "152143.955000", "152143.958000", "152143.961000", "152143.972000", "152143.976000", "152143.978000", "152143.981000", "152143.984000", "152223.909000", "152223.912000", "152223.915000", "152223.918000", "152223.921000", "152223.924000", "152223.927000", "152223.930000", "152223.933000", "152223.936000", "152223.939000", "152223.942000", "152223.945000", "152223.948000", "152223.951000", "152223.954000", "152223.957000", "152223.960000", "152223.963000", "152223.966000", "152223.969000", "152223.972000", "152223.975000", "152223.978000", "152223.981000", "152223.984000", "152223.987000", "152223.990000", "152223.993000", "152223.996000", "152224.000000", "152224.003000", "152243.910000", "152243.913000", "152243.916000", "152243.919000", "152243.922000", "152243.925000", "152243.928000", "152243.931000", "152243.934000", "152243.937000", "152243.940000", "152243.943000", "152243.946000", "152243.949000", "152256.857000", "152256.860000", "152256.863000", "152256.866000", "152256.869000", "152256.872000", "152256.875000", "152256.878000", "152256.881000"],
      "InstanceNumber": [1, 2, 3, 4, 5, 6, 7, 8, 9, 10, 11, 12, 13, 14, 15, 16, 17, 18, 19, 20, 21, 22, 23, 24, 25, 26, 27, 28, 29, 30, 31, 32, 33, 34, 35, 36, 37, 38, 39, 40, 41, 42, 43, 44, 45, 46, 47, 48, 49, 50, 51, 52, 53, 54, 55, 56, 57, 58, 59, 60, 61, 62, 63, 64, 65, 66, 67, 68, 69, 70, 71, 72, 73, 74, 75, 76, 77, 78, 79, 80, 81, 82, 83, 84, 85, 86, 87, 88, 89, 90, 91, 92, 93, 94, 95, 96, 97, 98, 99, 100, 101, 102, 103, 104, 105, 106, 107, 108, 109, 110, 111, 112, 113, 114, 115, 116, 117, 118, 119, 120, 121, 122, 123, 124, 125, 126, 127, 128, 129, 130, 131, 132, 133, 134, 135, 136, 137, 138, 139, 140, 141, 142, 143, 144],
      "LargestImagePixelValue": [40403, 39453, 38901, 37929, 37898, 37900, 37503, 37426, 37694, 37440, 37769, 37693, 37820, 37613, 37595, 38266, 38048, 37610, 37883, 37812, 37934, 38149, 38139, 37935, 37850, 37632, 37774, 37711, 37784, 37764, 37965, 37718, 37626, 38321, 37755, 37702, 37784, 37829, 37465, 37952, 37873, 38298, 37776, 37752, 38101, 37621, 37943, 37955, 37959, 37941, 38042, 37676, 38017, 37686, 37865, 38235, 37822, 38307, 37727, 37877, 37771, 37901, 38065, 38266, 37509, 37563, 38079, 37904, 37400, 37545, 37744, 37626, 37513, 38129, 37565, 37568, 37763, 37840, 37360, 38049, 37856, 37769, 37715, 38366, 37918, 37531, 37718, 38130, 37849, 38206, 37965, 37931, 38314, 37978, 38405, 37684, 37895, 38234, 37659, 37657, 38031, 37974, 38104, 38106, 38214, 38008, 37452, 37959, 38305, 37950, 38221, 38369, 38053, 38445, 38331, 38689, 38027, 37826, 37810, 38137, 38371, 38041, 37999, 38251, 37925, 38069, 38113, 38104, 38230, 37918, 38549, 38042, 37846, 37762, 38161, 37935, 37683, 38133, 37371, 37570, 38384, 37555, 37621, 37432],
      "WindowCenter": [9866.0, 9854.0, 9844.0, 9823.0, 9806.0, 9802.0, 9794.0, 9801.0, 9810.0, 9802.0, 9792.0, 9785.0, 9784.0, 9799.0, 9803.0, 9815.0, 9809.0, 9803.0, 9791.0, 9774.0, 9772.0, 9781.0, 9788.0, 9791.0, 9792.0, 9791.0, 9784.0, 9775.0, 9772.0, 9772.0, 9780.0, 9782.0, 9791.0, 9791.0, 9782.0, 9783.0, 9783.0, 9782.0, 9769.0, 9773.0, 9764.0, 9777.0, 9781.0, 9783.0, 9789.0, 9780.0, 9770.0, 9770.0, 9781.0, 9782.0, 9782.0, 9783.0, 9783.0, 9790.0, 9791.0, 9797.0, 9800.0, 9808.0, 9797.0, 9784.0, 9764.0, 9762.0, 9770.0, 9787.0, 9793.0, 9802.0, 9807.0, 9800.0, 9794.0, 9802.0, 9809.0, 9800.0, 9793.0, 9798.0, 9791.0, 9793.0, 9801.0, 9800.0, 9800.0, 9801.0, 9792.0, 9792.0, 9793.0, 9810.0, 9801.0, 9777.0, 9756.0, 9753.0, 9755.0, 9770.0, 9771.0, 9765.0, 9764.0, 9771.0, 9782.0, 9790.0, 9784.0, 9784.0, 9784.0, 9775.0, 9774.0, 9779.0, 9789.0, 9801.0, 9795.0, 9776.0, 9759.0, 9763.0, 9771.0, 9781.0, 9782.0, 9781.0, 9788.0, 9797.0, 9808.0, 9807.0, 9795.0, 9778.0, 9759.0, 9764.0, 9771.0, 9781.0, 9783.0, 9790.0, 9784.0, 9789.0, 9790.0, 9789.0, 9783.0, 9790.0, 9805.0, 9808.0, 9786.0, 9761.0, 9771.0, 9781.0, 9777.0, 9782.0, 9774.0, 9774.0, 9790.0, 9802.0, 9793.0, 9761.0],
      "WindowWidth": [20903.0, 20861.0, 20828.0, 20778.0, 20739.0, 20725.0, 20708.0, 20723.0, 20741.0, 20723.0, 20699.0, 20683.0, 20680.0, 20713.0, 20726.0, 20746.0, 20736.0, 20726.0, 20693.0, 20655.0, 20652.0, 20671.0, 20687.0, 20697.0, 20699.0, 20695.0, 20681.0, 20660.0, 20651.0, 20652.0, 20670.0, 20678.0, 20699.0, 20695.0, 20677.0, 20680.0, 20681.0, 20678.0, 20651.0, 20655.0, 20633.0, 20659.0, 20672.0, 20681.0, 20691.0, 20670.0, 20645.0, 20645.0, 20674.0, 20677.0, 20677.0, 20679.0, 20680.0, 20692.0, 20696.0, 20709.0, 20717.0, 20735.0, 20714.0, 20679.0, 20633.0, 20627.0, 20648.0, 20686.0, 20704.0, 20724.0, 20733.0, 20718.0, 20707.0, 20724.0, 20735.0, 20715.0, 20701.0, 20708.0, 20696.0, 20704.0, 20721.0, 20718.0, 20716.0, 20719.0, 20701.0, 20698.0, 20704.0, 20738.0, 20720.0, 20665.0, 20616.0, 20610.0, 20615.0, 20649.0, 20652.0, 20641.0, 20635.0, 20651.0, 20677.0, 20693.0, 20683.0, 20683.0, 20679.0, 20661.0, 20657.0, 20666.0, 20690.0, 20719.0, 20707.0, 20661.0, 20624.0, 20632.0, 20650.0, 20675.0, 20676.0, 20670.0, 20685.0, 20705.0, 20731.0, 20731.0, 20705.0, 20666.0, 20624.0, 20633.0, 20649.0, 20671.0, 20678.0, 20692.0, 20680.0, 20687.0, 20690.0, 20688.0, 20677.0, 20692.0, 20723.0, 20729.0, 20685.0, 20630.0, 20646.0, 20670.0, 20667.0, 20672.0, 20658.0, 20659.0, 20696.0, 20724.0, 20701.0, 20632.0]
    },
    "slices": {}
  }
}