{
  "AcquisitionMatrixPE": 104,
  "AcquisitionNumber": 1,
  "AcquisitionTime": "15:10:15.510000",
  "BandwidthPerPixelPhaseEncode": 17.17,
  "BaseResolution": 104,
  "BodyPartExamined": "BRAIN",
  "CoilString": "HC1-7;NC1_2",
  "ConsistencyInfo": "N4_VE11C_LATEST_20160120",
  "ConversionSoftware": "dcm2niix",
  "ConversionSoftwareVersion": "v1.0.20190720  (JP2:OpenJPEG) GCC7.3.0",
  "DerivedVendorReportedEchoSpacing": 0.000560011,
  "DeviceSerialNumber": "167006",
  "DwellTime": 2.1e-06,
  "EchoTime": 0.037,
  "EchoTrainLength": 104,
  "EffectiveEchoSpacing": 0.000560011,
  "FlipAngle": 52,
  "ImageComments": "Unaliased_MB4_PE3_LB",
  "ImageOrientationPatientDICOM": [0.99993, -0.0110939, 0.0042184, 0.011868, 0.938812, -0.344225],
  "ImageType": [
    "ORIGINAL",
    "PRIMARY",
    "M",
    "MB",
    "ND",
    "MOSAIC"
],
  "ImagingFrequency": 123.259,
  "InPlanePhaseEncodingDirectionDICOM": "COL",
  "InstitutionAddress": "Chemin_Queen-Mary_4565_Montreal_District_CA_H3W_1W5",
  "InstitutionName": "IUGM",
  "InstitutionalDepartmentName": "Department",
  "MRAcquisitionType": "2D",
  "MagneticFieldStrength": 3,
  "Manufacturer": "Siemens",
  "ManufacturersModelName": "Prisma_fit",
  "Modality": "MR",
  "MultibandAccelerationFactor": 4,
  "PartialFourier": 1,
  "PatientPosition": "HFS",
  "PercentPhaseFOV": 100,
  "PhaseEncodingDirection": "j",
  "PhaseEncodingSteps": 104,
  "PhaseResolution": 1,
  "PixelBandwidth": 2290,
  "ProcedureStepDescription": "hcptrt_generic",
  "ProtocolName": "func_task-relational_run-1",
  "PulseSequenceDetails": "%CustomerSeq%_cmrr_mbep2d_bold",
  "ReceiveCoilActiveElements": "HC1-7;NC1,2",
  "ReceiveCoilName": "HeadNeck_64",
  "ReconMatrixPE": 104,
  "RepetitionTime": 1.49,
  "SAR": 0.0293086,
  "ScanOptions": "FS",
  "ScanningSequence": "EP",
  "SequenceName": "epfid2d1_104",
  "SequenceVariant": "SK_SS",
  "SeriesDescription": "func_task-relational_run-1",
  "SeriesNumber": 11,
  "ShimSetting": [633, -7155, -8805, 671, 40, 121, 0, 2],
  "SliceThickness": 2,
  "SliceTiming": [0, 0.785, 0.0975, 0.8825, 0.1975, 0.98, 0.295, 1.0775, 0.3925, 1.175, 0.49, 1.275, 0.5875, 1.3725, 0.685, 0, 0.785, 0.0975, 0.8825, 0.1975, 0.98, 0.295, 1.0775, 0.3925, 1.175, 0.49, 1.275, 0.5875, 1.3725, 0.685, 0, 0.785, 0.0975, 0.8825, 0.1975, 0.98, 0.295, 1.0775, 0.3925, 1.175, 0.49, 1.275, 0.5875, 1.3725, 0.685, 0, 0.785, 0.0975, 0.8825, 0.1975, 0.98, 0.295, 1.0775, 0.3925, 1.175, 0.49, 1.275, 0.5875, 1.3725, 0.685],
  "SoftwareVersions": "syngo_MR_E11",
  "SpacingBetweenSlices": 2,
  "StationName": "MRC35049",
  "TaskName": "relational",
  "TotalReadoutTime": 0.0576811,
  "TxRefAmp": 209.051,
  "WipMemBlock": "b4f435a5-ad7c-4eaf-b1d5-1b3471cfb6b2||Sequence: R016 ve11c/master r/e634e98; Dec 19 2017 11:00:25 by eja",
  "dcmmeta_affine": [
    [-1.999859094619751, 0.02373594045639038, 0.0002829869044944644, 104.77379608154297],
    [0.02218773029744625, 1.8776240348815918, -0.6885023713111877, -68.6028060913086],
    [0.008436797186732292, 0.6884507536888123, 1.8777551651000977, -65.5029296875],
    [0.0, 0.0, 0.0, 1.0]
],
  "dcmmeta_reorient_transform": [
    [0.0, -1.0, 0.0, 103.0],
    [1.0, 0.0, 0.0, 0.0],
    [0.0, 0.0, 1.0, 0.0],
    [0.0, 0.0, 0.0, 1.0]
],
  "dcmmeta_shape": [104, 104, 60, 119],
  "dcmmeta_slice_dim": 2,
  "dcmmeta_version": 0.6,
  "global": {
    "const": {
      "AcquisitionMatrix": [104, 0, 0, 104],
      "AngioFlag": "N",
      "BitsAllocated": 16,
      "BitsStored": 16,
      "BodyPartExamined": "BRAIN",
      "Columns": 832,
      "EchoNumbers": 1,
      "EchoTime": 37.0,
      "EchoTrainLength": 104,
      "FlipAngle": 52.0,
      "HighBit": 15,
      "ImageOrientationPatient": [0.99992956315163, -0.011093865348, 0.00421839863336, 0.0118679701295, 0.93881203758739, -0.344225375831],
      "ImagePositionPatient": [-843.80719922493, -800.17130133134, 252.93257893899],
      "ImageType": [
        "ORIGINAL",
        "PRIMARY",
        "M",
        "MB",
        "ND",
        "MOSAIC"
],
      "ImagedNucleus": "1H",
      "ImagingFrequency": 123.259325,
      "InPlanePhaseEncodingDirection": "COL",
      "MRAcquisitionType": "2D",
      "MagneticFieldStrength": 3.0,
      "Manufacturer": "SIEMENS",
      "ManufacturerModelName": "Prisma_fit",
      "Modality": "MR",
      "NumberOfAverages": 1.0,
      "NumberOfPhaseEncodingSteps": 104,
      "PercentPhaseFieldOfView": 100.0,
      "PercentSampling": 100.0,
      "PerformedProcedureStepStartTime": "143742.795000",
      "PhotometricInterpretation": "MONOCHROME2",
      "PixelBandwidth": 2290.0,
      "PixelRepresentation": 0,
      "PixelSpacing": [2.0, 2.0],
      "ProtocolName": "func_task-relational_run-1",
      "RepetitionTime": 1490.0,
      "Rows": 832,
      "SAR": 0.02930861251606,
      "SamplesPerPixel": 1,
      "ScanOptions": "FS",
      "ScanningSequence": "EP",
      "SequenceName": "epfid2d1_104",
      "SequenceVariant": [
        "SK",
        "SS"
],
      "SeriesDescription": "func_task-relational_run-1",
      "SeriesNumber": 11,
      "SeriesTime": "151142.591000",
      "SliceLocation": -37.867806638664,
      "SliceThickness": 2.0,
      "SmallestImagePixelValue": 0,
      "SoftwareVersions": "syngo MR E11",
      "SpacingBetweenSlices": 2.0000000115542,
      "SpecificCharacterSet": "ISO_IR 100",
      "StudyID": "1",
      "StudyTime": "143742.725000",
      "TransmitCoilName": "Body",
      "VariableFlipAngleFlag": "N",
      "WindowCenterWidthExplanation": "Algo1",
      "dBdt": 0.0},
    "slices": {}
  },
  "time": {
    "samples": {
      "AcquisitionNumber": [1, 2, 3, 4, 5, 6, 7, 8, 9, 10, 11, 12, 13, 14, 15, 16, 17, 18, 19, 20, 21, 22, 23, 24, 25, 26, 27, 28, 29, 30, 31, 32, 33, 34, 35, 36, 37, 38, 39, 40, 41, 42, 43, 44, 45, 46, 47, 48, 49, 50, 51, 52, 53, 54, 55, 56, 57, 58, 59, 60, 61, 62, 63, 64, 65, 66, 67, 68, 69, 70, 71, 72, 73, 74, 75, 76, 77, 78, 79, 80, 81, 82, 83, 84, 85, 86, 87, 88, 89, 90, 91, 92, 93, 94, 95, 96, 97, 98, 99, 100, 101, 102, 103, 104, 105, 106, 107, 108, 109, 110, 111, 112, 113, 114, 115, 116, 117, 118, 119],
      "AcquisitionTime": ["151015.510000", "151017.000000", "151018.490000", "151019.980000", "151021.470000", "151022.960000", "151024.450000", "151025.940000", "151027.430000", "151028.920000", "151030.410000", "151031.900000", "151033.390000", "151034.880000", "151036.370000", "151037.860000", "151039.350000", "151040.840000", "151042.330000", "151043.820000", "151045.310000", "151046.800000", "151048.290000", "151049.780000", "151051.270000", "151052.760000", "151054.250000", "151055.740000", "151057.230000", "151058.720000", "151100.210000", "151101.700000", "151103.190000", "151104.680000", "151106.170000", "151107.660000", "151109.150000", "151110.640000", "151112.130000", "151113.620000", "151115.110000", "151116.600000", "151118.090000", "151119.580000", "151121.070000", "151122.560000", "151124.050000", "151125.540000", "151127.030000", "151128.520000", "151130.010000", "151131.500000", "151132.990000", "151134.480000", "151135.970000", "151137.460000", "151138.950000", "151140.440000", "151141.930000", "151143.420000", "151144.910000", "151146.400000", "151147.890000", "151149.380000", "151150.870000", "151152.360000", "151153.850000", "151155.340000", "151156.830000", "151158.320000", "151159.810000", "151201.300000", "151202.790000", "151204.280000", "151205.770000", "151207.260000", "151208.750000", "151210.240000", "151211.730000", "151213.220000", "151214.710000", "151216.200000", "151217.690000", "151219.180000", "151220.670000", "151222.160000", "151223.650000", "151225.140000", "151226.630000", "151228.120000", "151229.610000", "151231.100000", "151232.590000", "151234.080000", "151235.570000", "151237.060000", "151238.550000", "151240.040000", "151241.530000", "151243.020000", "151244.510000", "151246.000000", "151247.490000", "151248.980000", "151250.470000", "151251.960000", "151253.450000", "151254.940000", "151256.430000", "151257.920000", "151259.410000", "151300.900000", "151302.390000", "151303.880000", "151305.370000", "151306.860000", "151308.350000", "151309.840000", "151311.330000"],
      "ContentTime": ["151142.594000", "151142.597000", "151142.600000", "151142.603000", "151142.606000", "151142.609000", "151142.612000", "151142.615000", "151142.618000", "151142.621000", "151142.624000", "151142.636000", "151142.639000", "151142.642000", "151142.644000", "151142.647000", "151142.651000", "151142.653000", "151142.656000", "151142.659000", "151142.662000", "151142.665000", "151142.668000", "151142.671000", "151142.674000", "151142.677000", "151142.680000", "151142.683000", "151142.686000", "151142.689000", "151142.692000", "151142.698000", "151202.550000", "151202.553000", "151202.556000", "151202.559000", "151202.562000", "151202.565000", "151202.568000", "151202.571000", "151202.574000", "151202.577000", "151202.580000", "151202.583000", "151202.586000", "151202.589000", "151202.592000", "151202.595000", "151202.598000", "151202.601000", "151202.604000", "151202.607000", "151222.550000", "151222.553000", "151222.556000", "151222.559000", "151222.562000", "151222.565000", "151222.568000", "151222.571000", "151222.574000", "151222.577000", "151222.580000", "151222.583000", "151222.586000", "151222.589000", "151222.592000", "151222.595000", "151222.598000", "151222.601000", "151222.604000", "151222.607000", "151222.610000", "151242.550000", "151242.553000", "151242.556000", "151242.559000", "151242.562000", "151242.565000", "151242.574000", "151242.577000", "151242.580000", "151242.583000", "151242.586000", "151242.589000", "151242.592000", "151242.595000", "151242.598000", "151242.601000", "151242.604000", "151242.607000", "151242.610000", "151242.613000", "151313.337000", "151313.340000", "151313.343000", "151313.346000", "151313.349000", "151313.352000", "151313.355000", "151313.358000", "151313.361000", "151313.364000", "151313.366000", "151313.369000", "151313.373000", "151313.376000", "151313.379000", "151313.382000", "151313.385000", "151313.388000", "151313.391000", "151313.394000", "151313.397000", "151313.400000", "151313.403000", "151313.406000", "151313.409000", "151313.412000"],
      "InstanceCreationTime": ["151142.594000", "151142.597000", "151142.600000", "151142.603000", "151142.606000", "151142.609000", "151142.612000", "151142.615000", "151142.618000", "151142.621000", "151142.624000", "151142.636000", "151142.639000", "151142.642000", "151142.644000", "151142.647000", "151142.651000", "151142.653000", "151142.656000", "151142.659000", "151142.662000", "151142.665000", "151142.668000", "151142.671000", "151142.674000", "151142.677000", "151142.680000", "151142.683000", "151142.686000", "151142.689000", "151142.692000", "151142.698000", "151202.550000", "151202.553000", "151202.556000", "151202.559000", "151202.562000", "151202.565000", "151202.568000", "151202.571000", "151202.574000", "151202.577000", "151202.580000", "151202.583000", "151202.586000", "151202.589000", "151202.592000", "151202.595000", "151202.598000", "151202.601000", "151202.604000", "151202.607000", "151222.550000", "151222.553000", "151222.556000", "151222.559000", "151222.562000", "151222.565000", "151222.568000", "151222.571000", "151222.574000", "151222.577000", "151222.580000", "151222.583000", "151222.586000", "151222.589000", "151222.592000", "151222.595000", "151222.598000", "151222.601000", "151222.604000", "151222.607000", "151222.610000", "151242.550000", "151242.553000", "151242.556000", "151242.559000", "151242.562000", "151242.565000", "151242.574000", "151242.577000", "151242.580000", "151242.583000", "151242.586000", "151242.589000", "151242.592000", "151242.595000", "151242.598000", "151242.601000", "151242.604000", "151242.607000", "151242.610000", "151242.613000", "151313.337000", "151313.340000", "151313.343000", "151313.346000", "151313.349000", "151313.352000", "151313.355000", "151313.358000", "151313.361000", "151313.364000", "151313.366000", "151313.369000", "151313.373000", "151313.376000", "151313.379000", "151313.382000", "151313.385000", "151313.388000", "151313.391000", "151313.394000", "151313.397000", "151313.400000", "151313.403000", "151313.406000", "151313.409000", "151313.412000"],
      "InstanceNumber": [1, 2, 3, 4, 5, 6, 7, 8, 9, 10, 11, 12, 13, 14, 15, 16, 17, 18, 19, 20, 21, 22, 23, 24, 25, 26, 27, 28, 29, 30, 31, 32, 33, 34, 35, 36, 37, 38, 39, 40, 41, 42, 43, 44, 45, 46, 47, 48, 49, 50, 51, 52, 53, 54, 55, 56, 57, 58, 59, 60, 61, 62, 63, 64, 65, 66, 67, 68, 69, 70, 71, 72, 73, 74, 75, 76, 77, 78, 79, 80, 81, 82, 83, 84, 85, 86, 87, 88, 89, 90, 91, 92, 93, 94, 95, 96, 97, 98, 99, 100, 101, 102, 103, 104, 105, 106, 107, 108, 109, 110, 111, 112, 113, 114, 115, 116, 117, 118, 119],
      "LargestImagePixelValue": [40653, 39267, 38577, 38343, 38745, 38046, 37966, 37737, 38266, 38306, 38359, 38288, 38139, 37541, 38069, 37951, 38248, 37885, 38160, 38073, 37925, 38393, 38197, 38208, 37794, 38167, 37494, 38093, 38033, 38122, 37579, 38509, 37699, 37882, 38053, 38082, 38241, 37931, 38538, 38137, 38370, 38113, 38259, 37995, 38494, 38138, 37937, 38070, 37906, 37937, 37943, 37925, 38255, 38125, 37892, 37842, 38480, 38077, 38639, 37892, 37821, 37654, 37624, 38171, 38183, 37901, 38055, 38416, 38047, 38249, 38302, 38149, 38354, 38277, 38136, 38245, 37936, 38138, 38494, 38392, 38271, 38136, 37895, 38152, 38133, 38104, 37871, 37617, 37730, 38283, 37822, 38293, 38710, 38192, 38177, 38168, 38580, 38111, 38094, 37847, 37807, 37561, 37752, 37892, 37819, 37853, 37848, 37659, 37808, 38047, 37560, 37914, 37549, 38079, 38216, 37961, 38322, 37879, 38120],
      "WindowCenter": [9894.0, 9865.0, 9855.0, 9840.0, 9833.0, 9833.0, 9841.0, 9829.0, 9823.0, 9814.0, 9814.0, 9816.0, 9825.0, 9837.0, 9845.0, 9845.0, 9836.0, 9819.0, 9814.0, 9799.0, 9802.0, 9812.0, 9816.0, 9825.0, 9825.0, 9833.0, 9819.0, 9815.0, 9816.0, 9816.0, 9817.0, 9823.0, 9810.0, 9800.0, 9805.0, 9798.0, 9796.0, 9788.0, 9794.0, 9805.0, 9813.0, 9806.0, 9795.0, 9795.0, 9819.0, 9833.0, 9827.0, 9825.0, 9825.0, 9826.0, 9826.0, 9824.0, 9824.0, 9824.0, 9811.0, 9799.0, 9788.0, 9796.0, 9811.0, 9817.0, 9826.0, 9818.0, 9808.0, 9797.0, 9796.0, 9790.0, 9795.0, 9801.0, 9804.0, 9797.0, 9796.0, 9797.0, 9802.0, 9802.0, 9797.0, 9795.0, 9780.0, 9785.0, 9801.0, 9812.0, 9814.0, 9807.0, 9799.0, 9807.0, 9822.0, 9833.0, 9821.0, 9809.0, 9808.0, 9806.0, 9791.0, 9794.0, 9801.0, 9805.0, 9800.0, 9800.0, 9812.0, 9806.0, 9805.0, 9801.0, 9800.0, 9802.0, 9801.0, 9792.0, 9782.0, 9786.0, 9783.0, 9791.0, 9800.0, 9798.0, 9794.0, 9792.0, 9792.0, 9798.0, 9801.0, 9800.0, 9809.0, 9818.0, 9817.0],
      "WindowWidth": [20968.0, 20885.0, 20852.0, 20816.0, 20791.0, 20790.0, 20805.0, 20782.0, 20766.0, 20747.0, 20746.0, 20753.0, 20774.0, 20802.0, 20822.0, 20822.0, 20799.0, 20758.0, 20745.0, 20716.0, 20718.0, 20739.0, 20753.0, 20774.0, 20775.0, 20790.0, 20763.0, 20751.0, 20751.0, 20752.0, 20756.0, 20767.0, 20742.0, 20717.0, 20722.0, 20709.0, 20706.0, 20689.0, 20699.0, 20726.0, 20741.0, 20727.0, 20700.0, 20704.0, 20757.0, 20791.0, 20781.0, 20772.0, 20775.0, 20778.0, 20780.0, 20772.0, 20769.0, 20772.0, 20745.0, 20715.0, 20687.0, 20709.0, 20739.0, 20759.0, 20776.0, 20760.0, 20735.0, 20708.0, 20707.0, 20696.0, 20704.0, 20715.0, 20722.0, 20707.0, 20706.0, 20705.0, 20715.0, 20716.0, 20708.0, 20702.0, 20671.0, 20680.0, 20716.0, 20741.0, 20747.0, 20733.0, 20717.0, 20732.0, 20766.0, 20793.0, 20769.0, 20739.0, 20732.0, 20728.0, 20698.0, 20699.0, 20713.0, 20728.0, 20719.0, 20721.0, 20740.0, 20731.0, 20729.0, 20722.0, 20719.0, 20724.0, 20721.0, 20700.0, 20676.0, 20683.0, 20682.0, 20700.0, 20717.0, 20713.0, 20706.0, 20701.0, 20702.0, 20714.0, 20721.0, 20720.0, 20738.0, 20759.0, 20752.0]
    },
    "slices": {}
  }
}