{
  "AcquisitionMatrixPE": 104,
  "AcquisitionNumber": 1,
  "AcquisitionTime": "15:14:8.777500",
  "BandwidthPerPixelPhaseEncode": 17.17,
  "BaseResolution": 104,
  "BodyPartExamined": "BRAIN",
  "CoilString": "HC1-7;NC1_2",
  "ConsistencyInfo": "N4_VE11C_LATEST_20160120",
  "ConversionSoftware": "dcm2niix",
  "ConversionSoftwareVersion": "v1.0.20190720  (JP2:OpenJPEG) GCC7.3.0",
  "DerivedVendorReportedEchoSpacing": 0.000560011,
  "DeviceSerialNumber": "167006",
  "DwellTime": 2.1e-06,
  "EchoTime": 0.037,
  "EchoTrainLength": 104,
  "EffectiveEchoSpacing": 0.000560011,
  "FlipAngle": 52,
  "ImageComments": "Unaliased_MB4_PE3_LB",
  "ImageOrientationPatientDICOM": [0.99993, -0.0110939, 0.0042184, 0.011868, 0.938812, -0.344225],
  "ImageType": [
    "ORIGINAL",
    "PRIMARY",
    "M",
    "MB",
    "ND",
    "MOSAIC"
],
  "ImagingFrequency": 123.259,
  "InPlanePhaseEncodingDirectionDICOM": "COL",
  "InstitutionAddress": "Chemin_Queen-Mary_4565_Montreal_District_CA_H3W_1W5",
  "InstitutionName": "IUGM",
  "InstitutionalDepartmentName": "Department",
  "MRAcquisitionType": "2D",
  "MagneticFieldStrength": 3,
  "Manufacturer": "Siemens",
  "ManufacturersModelName": "Prisma_fit",
  "Modality": "MR",
  "MultibandAccelerationFactor": 4,
  "PartialFourier": 1,
  "PatientPosition": "HFS",
  "PercentPhaseFOV": 100,
  "PhaseEncodingDirection": "j",
  "PhaseEncodingSteps": 104,
  "PhaseResolution": 1,
  "PixelBandwidth": 2290,
  "ProcedureStepDescription": "hcptrt_generic",
  "ProtocolName": "func_task-gambling_run-1",
  "PulseSequenceDetails": "%CustomerSeq%_cmrr_mbep2d_bold",
  "ReceiveCoilActiveElements": "HC1-7;NC1,2",
  "ReceiveCoilName": "HeadNeck_64",
  "ReconMatrixPE": 104,
  "RepetitionTime": 1.49,
  "SAR": 0.0293438,
  "ScanOptions": "FS",
  "ScanningSequence": "EP",
  "SequenceName": "epfid2d1_104",
  "SequenceVariant": "SK_SS",
  "SeriesDescription": "func_task-gambling_run-1",
  "SeriesNumber": 13,
  "ShimSetting": [633, -7155, -8805, 671, 40, 121, 0, 2],
  "SliceThickness": 2,
  "SliceTiming": [0, 0.7825, 0.0975, 0.8825, 0.195, 0.98, 0.2925, 1.0775, 0.3925, 1.175, 0.49, 1.2725, 0.5875, 1.3725, 0.685, 0, 0.7825, 0.0975, 0.8825, 0.195, 0.98, 0.2925, 1.0775, 0.3925, 1.175, 0.49, 1.2725, 0.5875, 1.3725, 0.685, 0, 0.7825, 0.0975, 0.8825, 0.195, 0.98, 0.2925, 1.0775, 0.3925, 1.175, 0.49, 1.2725, 0.5875, 1.3725, 0.685, 0, 0.7825, 0.0975, 0.8825, 0.195, 0.98, 0.2925, 1.0775, 0.3925, 1.175, 0.49, 1.2725, 0.5875, 1.3725, 0.685],
  "SoftwareVersions": "syngo_MR_E11",
  "SpacingBetweenSlices": 2,
  "StationName": "MRC35049",
  "TaskName": "gambling",
  "TotalReadoutTime": 0.0576811,
  "TxRefAmp": 209.051,
  "WipMemBlock": "18084104-d7f4-40b9-81fc-534d4eb2a1a0||Sequence: R016 ve11c/master r/e634e98; Dec 19 2017 11:00:25 by eja",
  "dcmmeta_affine": [
    [-1.999859094619751, 0.02373594045639038, 0.0002829869044944644, 104.77379608154297],
    [0.02218773029744625, 1.8776240348815918, -0.6885023713111877, -68.6028060913086],
    [0.008436797186732292, 0.6884507536888123, 1.8777551651000977, -65.5029296875],
    [0.0, 0.0, 0.0, 1.0]
],
  "dcmmeta_reorient_transform": [
    [0.0, -1.0, 0.0, 103.0],
    [1.0, 0.0, 0.0, 0.0],
    [0.0, 0.0, 1.0, 0.0],
    [0.0, 0.0, 0.0, 1.0]
],
  "dcmmeta_shape": [104, 104, 60, 129],
  "dcmmeta_slice_dim": 2,
  "dcmmeta_version": 0.6,
  "global": {
    "const": {
      "AcquisitionMatrix": [104, 0, 0, 104],
      "AngioFlag": "N",
      "BitsAllocated": 16,
      "BitsStored": 16,
      "BodyPartExamined": "BRAIN",
      "Columns": 832,
      "EchoNumbers": 1,
      "EchoTime": 37.0,
      "EchoTrainLength": 104,
      "FlipAngle": 52.0,
      "HighBit": 15,
      "ImageOrientationPatient": [0.99992956315163, -0.011093865348, 0.00421839863336, 0.0118679701295, 0.93881203758739, -0.344225375831],
      "ImagePositionPatient": [-843.80719922493, -800.17130133134, 252.93257893899],
      "ImageType": [
        "ORIGINAL",
        "PRIMARY",
        "M",
        "MB",
        "ND",
        "MOSAIC"
],
      "ImagedNucleus": "1H",
      "ImagingFrequency": 123.259326,
      "InPlanePhaseEncodingDirection": "COL",
      "MRAcquisitionType": "2D",
      "MagneticFieldStrength": 3.0,
      "Manufacturer": "SIEMENS",
      "ManufacturerModelName": "Prisma_fit",
      "Modality": "MR",
      "NumberOfAverages": 1.0,
      "NumberOfPhaseEncodingSteps": 104,
      "PercentPhaseFieldOfView": 100.0,
      "PercentSampling": 100.0,
      "PerformedProcedureStepStartTime": "143742.795000",
      "PhotometricInterpretation": "MONOCHROME2",
      "PixelBandwidth": 2290.0,
      "PixelRepresentation": 0,
      "PixelSpacing": [2.0, 2.0],
      "ProtocolName": "func_task-gambling_run-1",
      "RepetitionTime": 1490.0,
      "Rows": 832,
      "SAR": 0.02934383178817,
      "SamplesPerPixel": 1,
      "ScanOptions": "FS",
      "ScanningSequence": "EP",
      "SequenceName": "epfid2d1_104",
      "SequenceVariant": [
        "SK",
        "SS"
],
      "SeriesDescription": "func_task-gambling_run-1",
      "SeriesNumber": 13,
      "SeriesTime": "151540.405000",
      "SliceLocation": -37.867806638664,
      "SliceThickness": 2.0,
      "SmallestImagePixelValue": 0,
      "SoftwareVersions": "syngo MR E11",
      "SpacingBetweenSlices": 2.0000000115542,
      "SpecificCharacterSet": "ISO_IR 100",
      "StudyID": "1",
      "StudyTime": "143742.725000",
      "TransmitCoilName": "Body",
      "VariableFlipAngleFlag": "N",
      "WindowCenterWidthExplanation": "Algo1",
      "dBdt": 0.0},
    "slices": {}
  },
  "time": {
    "samples": {
      "AcquisitionNumber": [1, 2, 3, 4, 5, 6, 7, 8, 9, 10, 11, 12, 13, 14, 15, 16, 17, 18, 19, 20, 21, 22, 23, 24, 25, 26, 27, 28, 29, 30, 31, 32, 33, 34, 35, 36, 37, 38, 39, 40, 41, 42, 43, 44, 45, 46, 47, 48, 49, 50, 51, 52, 53, 54, 55, 56, 57, 58, 59, 60, 61, 62, 63, 64, 65, 66, 67, 68, 69, 70, 71, 72, 73, 74, 75, 76, 77, 78, 79, 80, 81, 82, 83, 84, 85, 86, 87, 88, 89, 90, 91, 92, 93, 94, 95, 96, 97, 98, 99, 100, 101, 102, 103, 104, 105, 106, 107, 108, 109, 110, 111, 112, 113, 114, 115, 116, 117, 118, 119, 120, 121, 122, 123, 124, 125, 126, 127, 128, 129],
      "AcquisitionTime": ["151408.777500", "151410.267500", "151411.757500", "151413.247500", "151414.737500", "151416.227500", "151417.717500", "151419.207500", "151420.697500", "151422.187500", "151423.677500", "151425.167500", "151426.657500", "151428.147500", "151429.637500", "151431.127500", "151432.617500", "151434.107500", "151435.597500", "151437.087500", "151438.577500", "151440.067500", "151441.557500", "151443.047500", "151444.537500", "151446.027500", "151447.517500", "151449.007500", "151450.497500", "151451.987500", "151453.477500", "151454.967500", "151456.457500", "151457.947500", "151459.437500", "151500.927500", "151502.417500", "151503.907500", "151505.397500", "151506.887500", "151508.377500", "151509.867500", "151511.357500", "151512.847500", "151514.337500", "151515.827500", "151517.317500", "151518.807500", "151520.297500", "151521.787500", "151523.277500", "151524.767500", "151526.257500", "151527.747500", "151529.237500", "151530.727500", "151532.217500", "151533.707500", "151535.197500", "151536.687500", "151538.177500", "151539.667500", "151541.157500", "151542.647500", "151544.137500", "151545.627500", "151547.117500", "151548.607500", "151550.097500", "151551.587500", "151553.077500", "151554.567500", "151556.057500", "151557.547500", "151559.037500", "151600.527500", "151602.017500", "151603.507500", "151604.997500", "151606.487500", "151607.977500", "151609.467500", "151610.957500", "151612.447500", "151613.937500", "151615.427500", "151616.917500", "151618.407500", "151619.897500", "151621.387500", "151622.877500", "151624.367500", "151625.857500", "151627.347500", "151628.837500", "151630.327500", "151631.817500", "151633.307500", "151634.797500", "151636.287500", "151637.777500", "151639.267500", "151640.757500", "151642.247500", "151643.737500", "151645.227500", "151646.717500", "151648.207500", "151649.697500", "151651.187500", "151652.677500", "151654.167500", "151655.657500", "151657.147500", "151658.637500", "151700.127500", "151701.617500", "151703.107500", "151704.597500", "151706.087500", "151707.577500", "151709.067500", "151710.557500", "151712.047500", "151713.537500", "151715.027500", "151716.517500", "151718.007500", "151719.497500"],
      "ContentTime": ["151540.408000", "151540.412000", "151540.415000", "151540.425000", "151540.428000", "151540.431000", "151540.434000", "151540.437000", "151540.440000", "151540.443000", "151540.446000", "151540.449000", "151540.452000", "151540.455000", "151540.458000", "151540.461000", "151540.464000", "151540.467000", "151540.470000", "151540.473000", "151540.475000", "151540.479000", "151540.481000", "151540.490000", "151540.493000", "151540.496000", "151540.499000", "151540.501000", "151540.504000", "151540.507000", "151540.510000", "151540.513000", "151540.516000", "151540.519000", "151540.522000", "151540.525000", "151540.528000", "151540.531000", "151600.378000", "151600.381000", "151600.384000", "151600.387000", "151600.390000", "151600.393000", "151600.396000", "151600.399000", "151600.402000", "151600.405000", "151600.408000", "151600.411000", "151600.414000", "151600.417000", "151600.420000", "151600.423000", "151600.425000", "151600.428000", "151600.442000", "151600.445000", "151620.378000", "151620.381000", "151620.384000", "151620.387000", "151620.390000", "151620.393000", "151620.396000", "151620.399000", "151620.402000", "151620.405000", "151620.408000", "151620.410000", "151620.413000", "151620.416000", "151620.419000", "151620.422000", "151620.425000", "151620.428000", "151620.431000", "151620.434000", "151620.437000", "151640.378000", "151640.381000", "151640.384000", "151640.387000", "151640.390000", "151640.393000", "151640.396000", "151640.399000", "151640.402000", "151640.405000", "151640.408000", "151640.411000", "151640.413000", "151640.417000", "151640.419000", "151640.423000", "151640.425000", "151640.428000", "151640.431000", "151640.439000", "151720.378000", "151720.381000", "151720.384000", "151720.387000", "151720.390000", "151720.393000", "151720.396000", "151720.399000", "151720.402000", "151720.405000", "151720.408000", "151720.411000", "151720.414000", "151720.417000", "151720.420000", "151720.423000", "151720.426000", "151720.429000", "151720.432000", "151720.435000", "151720.438000", "151720.441000", "151720.444000", "151720.447000", "151720.449000", "151720.453000", "151720.455000", "151720.458000", "151720.461000", "151721.216000"],
      "InstanceCreationTime": ["151540.408000", "151540.412000", "151540.415000", "151540.425000", "151540.428000", "151540.431000", "151540.434000", "151540.437000", "151540.440000", "151540.443000", "151540.446000", "151540.449000", "151540.452000", "151540.455000", "151540.458000", "151540.461000", "151540.464000", "151540.467000", "151540.470000", "151540.473000", "151540.475000", "151540.479000", "151540.481000", "151540.490000", "151540.493000", "151540.496000", "151540.499000", "151540.501000", "151540.504000", "151540.507000", "151540.510000", "151540.513000", "151540.516000", "151540.519000", "151540.522000", "151540.525000", "151540.528000", "151540.531000", "151600.378000", "151600.381000", "151600.384000", "151600.387000", "151600.390000", "151600.393000", "151600.396000", "151600.399000", "151600.402000", "151600.405000", "151600.408000", "151600.411000", "151600.414000", "151600.417000", "151600.420000", "151600.423000", "151600.425000", "151600.428000", "151600.442000", "151600.445000", "151620.378000", "151620.381000", "151620.384000", "151620.387000", "151620.390000", "151620.393000", "151620.396000", "151620.399000", "151620.402000", "151620.405000", "151620.408000", "151620.410000", "151620.413000", "151620.416000", "151620.419000", "151620.422000", "151620.425000", "151620.428000", "151620.431000", "151620.434000", "151620.437000", "151640.378000", "151640.381000", "151640.384000", "151640.387000", "151640.390000", "151640.393000", "151640.396000", "151640.399000", "151640.402000", "151640.405000", "151640.408000", "151640.411000", "151640.413000", "151640.417000", "151640.419000", "151640.423000", "151640.425000", "151640.428000", "151640.431000", "151640.439000", "151720.378000", "151720.381000", "151720.384000", "151720.387000", "151720.390000", "151720.393000", "151720.396000", "151720.399000", "151720.402000", "151720.405000", "151720.408000", "151720.411000", "151720.414000", "151720.417000", "151720.420000", "151720.423000", "151720.426000", "151720.429000", "151720.432000", "151720.435000", "151720.438000", "151720.441000", "151720.444000", "151720.447000", "151720.449000", "151720.453000", "151720.455000", "151720.458000", "151720.461000", "151721.216000"],
      "InstanceNumber": [1, 2, 3, 4, 5, 6, 7, 8, 9, 10, 11, 12, 13, 14, 15, 16, 17, 18, 19, 20, 21, 22, 23, 24, 25, 26, 27, 28, 29, 30, 31, 32, 33, 34, 35, 36, 37, 38, 39, 40, 41, 42, 43, 44, 45, 46, 47, 48, 49, 50, 51, 52, 53, 54, 55, 56, 57, 58, 59, 60, 61, 62, 63, 64, 65, 66, 67, 68, 69, 70, 71, 72, 73, 74, 75, 76, 77, 78, 79, 80, 81, 82, 83, 84, 85, 86, 87, 88, 89, 90, 91, 92, 93, 94, 95, 96, 97, 98, 99, 100, 101, 102, 103, 104, 105, 106, 107, 108, 109, 110, 111, 112, 113, 114, 115, 116, 117, 118, 119, 120, 121, 122, 123, 124, 125, 126, 127, 128, 129],
      "LargestImagePixelValue": [40623, 39378, 38557, 38438, 38122, 37625, 37666, 37427, 37431, 37778, 37624, 37403, 37904, 37553, 37912, 37945, 37641, 37472, 37812, 37547, 37169, 37232, 37467, 37478, 38134, 37734, 37948, 37914, 38082, 37883, 37890, 37532, 37781, 37640, 37820, 37876, 37794, 37975, 37870, 37771, 37568, 37883, 37403, 37633, 37713, 37592, 37336, 37514, 37823, 37045, 37505, 37927, 37503, 37433, 37765, 37524, 37812, 37822, 37208, 37608, 37730, 37769, 37958, 37232, 37455, 37114, 37776, 37586, 37735, 37663, 37647, 37839, 37750, 37662, 37483, 37423, 37047, 36976, 37674, 37595, 37204, 37786, 37543, 37360, 37261, 37801, 37284, 37308, 37531, 37761, 37569, 37520, 37536, 37537, 37834, 37737, 37835, 37984, 37972, 37706, 38029, 37693, 37290, 37328, 37432, 37638, 37676, 37339, 37088, 37659, 37721, 38066, 37874, 37385, 37551, 38291, 37756, 37574, 37455, 37897, 37754, 37751, 37625, 37563, 37453, 37586, 37545, 37650, 37418],
      "WindowCenter": [9886.0, 9857.0, 9839.0, 9830.0, 9821.0, 9828.0, 9830.0, 9824.0, 9823.0, 9822.0, 9820.0, 9821.0, 9828.0, 9820.0, 9821.0, 9834.0, 9828.0, 9820.0, 9827.0, 9832.0, 9840.0, 9842.0, 9825.0, 9819.0, 9817.0, 9810.0, 9809.0, 9809.0, 9808.0, 9800.0, 9801.0, 9804.0, 9811.0, 9803.0, 9792.0, 9782.0, 9789.0, 9798.0, 9798.0, 9792.0, 9784.0, 9784.0, 9790.0, 9807.0, 9818.0, 9813.0, 9812.0, 9812.0, 9812.0, 9804.0, 9804.0, 9803.0, 9793.0, 9792.0, 9800.0, 9802.0, 9810.0, 9804.0, 9798.0, 9808.0, 9801.0, 9803.0, 9826.0, 9814.0, 9804.0, 9780.0, 9776.0, 9776.0, 9782.0, 9784.0, 9793.0, 9801.0, 9801.0, 9794.0, 9802.0, 9821.0, 9823.0, 9809.0, 9804.0, 9795.0, 9796.0, 9812.0, 9823.0, 9824.0, 9823.0, 9821.0, 9814.0, 9802.0, 9786.0, 9776.0, 9783.0, 9800.0, 9813.0, 9807.0, 9788.0, 9774.0, 9765.0, 9779.0, 9796.0, 9802.0, 9810.0, 9811.0, 9804.0, 9804.0, 9801.0, 9802.0, 9803.0, 9804.0, 9797.0, 9794.0, 9794.0, 9809.0, 9819.0, 9813.0, 9797.0, 9805.0, 9793.0, 9786.0, 9793.0, 9796.0, 9802.0, 9795.0, 9796.0, 9795.0, 9800.0, 9802.0, 9795.0, 9801.0, 9805.0],
      "WindowWidth": [20949.0, 20866.0, 20818.0, 20792.0, 20772.0, 20783.0, 20790.0, 20777.0, 20776.0, 20772.0, 20766.0, 20767.0, 20781.0, 20768.0, 20769.0, 20795.0, 20785.0, 20765.0, 20779.0, 20795.0, 20813.0, 20817.0, 20780.0, 20760.0, 20753.0, 20740.0, 20737.0, 20737.0, 20732.0, 20715.0, 20720.0, 20728.0, 20745.0, 20727.0, 20701.0, 20677.0, 20690.0, 20710.0, 20711.0, 20697.0, 20684.0, 20685.0, 20695.0, 20730.0, 20759.0, 20752.0, 20750.0, 20751.0, 20748.0, 20729.0, 20728.0, 20725.0, 20704.0, 20700.0, 20718.0, 20724.0, 20739.0, 20730.0, 20719.0, 20733.0, 20722.0, 20728.0, 20772.0, 20751.0, 20724.0, 20673.0, 20663.0, 20664.0, 20676.0, 20685.0, 20706.0, 20722.0, 20718.0, 20705.0, 20725.0, 20770.0, 20775.0, 20744.0, 20729.0, 20709.0, 20712.0, 20749.0, 20775.0, 20779.0, 20773.0, 20765.0, 20748.0, 20719.0, 20685.0, 20664.0, 20677.0, 20716.0, 20746.0, 20735.0, 20690.0, 20654.0, 20636.0, 20664.0, 20705.0, 20724.0, 20741.0, 20743.0, 20730.0, 20728.0, 20718.0, 20720.0, 20723.0, 20725.0, 20713.0, 20705.0, 20703.0, 20734.0, 20759.0, 20747.0, 20712.0, 20721.0, 20701.0, 20685.0, 20701.0, 20711.0, 20720.0, 20706.0, 20708.0, 20708.0, 20714.0, 20719.0, 20707.0, 20719.0, 20730.0]
    },
    "slices": {}
  }
}