{
  "AcquisitionMatrixPE": 104,
  "AcquisitionNumber": 1,
  "AcquisitionTime": "09:50:57.142500",
  "BandwidthPerPixelPhaseEncode": 17.17,
  "BaseResolution": 104,
  "BodyPartExamined": "BRAIN",
  "CoilString": "HC1-7;NC1_2",
  "ConsistencyInfo": "N4_VE11C_LATEST_20160120",
  "ConversionSoftware": "dcm2niix",
  "ConversionSoftwareVersion": "v1.0.20200427",
  "DerivedVendorReportedEchoSpacing": 0.000560011,
  "DeviceSerialNumber": "167006",
  "DwellTime": 2.1e-06,
  "EchoTime": 0.037,
  "EchoTrainLength": 104,
  "EffectiveEchoSpacing": 0.000560011,
  "FlipAngle": 52,
  "ImageComments": "Unaliased_MB4_PE3_LB",
  "ImageOrientationPatientDICOM": [0.999975, -0.00154907, -0.00689834, -0.00104712, 0.932493, -0.361187],
  "ImageType": [
    "ORIGINAL",
    "PRIMARY",
    "M",
    "MB",
    "ND",
    "MOSAIC"
],
  "ImagingFrequency": 123.259,
  "InPlanePhaseEncodingDirectionDICOM": "COL",
  "InstitutionAddress": "Chemin_Queen-Mary_4565_Montreal_District_CA_H3W_1W5",
  "InstitutionName": "IUGM",
  "InstitutionalDepartmentName": "Department",
  "MRAcquisitionType": "2D",
  "MagneticFieldStrength": 3,
  "Manufacturer": "Siemens",
  "ManufacturersModelName": "Prisma_fit",
  "Modality": "MR",
  "MultibandAccelerationFactor": 4,
  "PartialFourier": 1,
  "PatientPosition": "HFS",
  "PercentPhaseFOV": 100,
  "PercentSampling": 100,
  "PhaseEncodingDirection": "j",
  "PhaseEncodingSteps": 104,
  "PhaseResolution": 1,
  "PixelBandwidth": 2290,
  "ProcedureStepDescription": "hcptrt_generic",
  "ProtocolName": "func_task-language_run-1",
  "PulseSequenceDetails": "%CustomerSeq%_cmrr_mbep2d_bold",
  "ReceiveCoilActiveElements": "HC1-7;NC1,2",
  "ReceiveCoilName": "HeadNeck_64",
  "ReconMatrixPE": 104,
  "RepetitionTime": 1.49,
  "SAR": 0.030244,
  "ScanOptions": "FS",
  "ScanningSequence": "EP",
  "SequenceName": "epfid2d1_104",
  "SequenceVariant": "SK_SS",
  "SeriesDescription": "func_task-language_run-1",
  "SeriesNumber": 10,
  "ShimSetting": [637, -7253, -8856, 587, 30, -211, -102, -9],
  "SliceThickness": 2,
  "SliceTiming": [0, 0.7825, 0.0975, 0.88, 0.195, 0.98, 0.2925, 1.0775, 0.39, 1.175, 0.49, 1.2725, 0.5875, 1.37, 0.685, 0, 0.7825, 0.0975, 0.88, 0.195, 0.98, 0.2925, 1.0775, 0.39, 1.175, 0.49, 1.2725, 0.5875, 1.37, 0.685, 0, 0.7825, 0.0975, 0.88, 0.195, 0.98, 0.2925, 1.0775, 0.39, 1.175, 0.49, 1.2725, 0.5875, 1.37, 0.685, 0, 0.7825, 0.0975, 0.88, 0.195, 0.98, 0.2925, 1.0775, 0.39, 1.175, 0.49, 1.2725, 0.5875, 1.37, 0.685],
  "SoftwareVersions": "syngo_MR_E11",
  "SpacingBetweenSlices": 2,
  "StationName": "MRC35049",
  "TaskName": "language",
  "TotalReadoutTime": 0.0576811,
  "TxRefAmp": 219.732,
  "WipMemBlock": "027d65d1-8bfa-463a-b96f-473d5aeae93d||Sequence: R016 ve11c/master r/e634e98; Dec 19 2017 11:00:25 by eja",
  "dcmmeta_affine": [
    [-1.9999500513076782, -0.0020942322444170713, -0.013984314166009426, 106.61715698242188],
    [0.0030981439631432295, 1.8649858236312866, -0.7223697900772095, -62.48273468017578],
    [-0.013796679675579071, 0.7223734259605408, 1.8649359941482544, -73.12247467041016],
    [0.0, 0.0, 0.0, 1.0]
],
  "dcmmeta_reorient_transform": [
    [0.0, -1.0, 0.0, 103.0],
    [1.0, 0.0, 0.0, 0.0],
    [0.0, 0.0, 1.0, 0.0],
    [0.0, 0.0, 0.0, 1.0]
],
  "dcmmeta_shape": [104, 104, 60, 159],
  "dcmmeta_slice_dim": 2,
  "dcmmeta_version": 0.6,
  "global": {
    "const": {
      "AcquisitionMatrix": [104, 0, 0, 104],
      "AngioFlag": "N",
      "BitsAllocated": 16,
      "BitsStored": 16,
      "BodyPartExamined": "BRAIN",
      "Columns": 832,
      "EchoNumbers": 1,
      "EchoTime": 37.0,
      "EchoTrainLength": 104,
      "FlipAngle": 52.0,
      "HighBit": 15,
      "ImageOrientationPatient": [0.99997500632933, -0.0015490719793, -0.0068983398476, -0.0010471161268, 0.93249293235975, -0.3611867033086],
      "ImagePositionPatient": [-833.62095697627, -807.33794015199, 269.24789650047],
      "ImageType": [
        "ORIGINAL",
        "PRIMARY",
        "M",
        "MB",
        "ND",
        "MOSAIC"
],
      "ImagedNucleus": "1H",
      "ImagingFrequency": 123.259112,
      "InPlanePhaseEncodingDirection": "COL",
      "MRAcquisitionType": "2D",
      "MagneticFieldStrength": 3.0,
      "Manufacturer": "SIEMENS",
      "ManufacturerModelName": "Prisma_fit",
      "Modality": "MR",
      "NumberOfAverages": 1.0,
      "NumberOfPhaseEncodingSteps": 104,
      "PercentPhaseFieldOfView": 100.0,
      "PercentSampling": 100.0,
      "PerformedProcedureStepStartTime": "085603.726000",
      "PhotometricInterpretation": "MONOCHROME2",
      "PixelBandwidth": 2290.0,
      "PixelRepresentation": 0,
      "PixelSpacing": [2.0, 2.0],
      "ProtocolName": "func_task-language_run-1",
      "RepetitionTime": 1490.0,
      "Rows": 832,
      "SAR": 0.03024402630218,
      "SamplesPerPixel": 1,
      "ScanOptions": "FS",
      "ScanningSequence": "EP",
      "SequenceName": "epfid2d1_104",
      "SequenceVariant": [
        "SK",
        "SS"
],
      "SeriesDescription": "func_task-language_run-1",
      "SeriesNumber": 10,
      "SeriesTime": "095223.471000",
      "SliceLocation": -46.362032913069,
      "SliceThickness": 2.0,
      "SmallestImagePixelValue": 0,
      "SoftwareVersions": "syngo MR E11",
      "SpacingBetweenSlices": 1.9999999617408,
      "SpecificCharacterSet": "ISO_IR 100",
      "StudyID": "1",
      "StudyTime": "085603.615000",
      "TransmitCoilName": "Body",
      "VariableFlipAngleFlag": "N",
      "WindowCenterWidthExplanation": "Algo1",
      "dBdt": 0.0},
    "slices": {}
  },
  "time": {
    "samples": {
      "AcquisitionNumber": [1, 2, 3, 4, 5, 6, 7, 8, 9, 10, 11, 12, 13, 14, 15, 16, 17, 18, 19, 20, 21, 22, 23, 24, 25, 26, 27, 28, 29, 30, 31, 32, 33, 34, 35, 36, 37, 38, 39, 40, 41, 42, 43, 44, 45, 46, 47, 48, 49, 50, 51, 52, 53, 54, 55, 56, 57, 58, 59, 60, 61, 62, 63, 64, 65, 66, 67, 68, 69, 70, 71, 72, 73, 74, 75, 76, 77, 78, 79, 80, 81, 82, 83, 84, 85, 86, 87, 88, 89, 90, 91, 92, 93, 94, 95, 96, 97, 98, 99, 100, 101, 102, 103, 104, 105, 106, 107, 108, 109, 110, 111, 112, 113, 114, 115, 116, 117, 118, 119, 120, 121, 122, 123, 124, 125, 126, 127, 128, 129, 130, 131, 132, 133, 134, 135, 136, 137, 138, 139, 140, 141, 142, 143, 144, 145, 146, 147, 148, 149, 150, 151, 152, 153, 154, 155, 156, 157, 158, 159],
      "AcquisitionTime": ["095057.142500", "095058.632500", "095100.122500", "095101.612500", "095103.102500", "095104.592500", "095106.082500", "095107.572500", "095109.062500", "095110.552500", "095112.042500", "095113.532500", "095115.022500", "095116.512500", "095118.002500", "095119.492500", "095120.982500", "095122.472500", "095123.962500", "095125.452500", "095126.942500", "095128.432500", "095129.922500", "095131.412500", "095132.902500", "095134.392500", "095135.882500", "095137.372500", "095138.862500", "095140.352500", "095141.842500", "095143.332500", "095144.822500", "095146.312500", "095147.802500", "095149.292500", "095150.782500", "095152.272500", "095153.762500", "095155.252500", "095156.742500", "095158.232500", "095159.722500", "095201.212500", "095202.702500", "095204.192500", "095205.682500", "095207.172500", "095208.662500", "095210.152500", "095211.642500", "095213.132500", "095214.622500", "095216.112500", "095217.602500", "095219.092500", "095220.582500", "095222.072500", "095223.562500", "095225.052500", "095226.542500", "095228.032500", "095229.522500", "095231.012500", "095232.502500", "095233.992500", "095235.482500", "095236.972500", "095238.462500", "095239.952500", "095241.442500", "095242.932500", "095244.422500", "095245.912500", "095247.402500", "095248.892500", "095250.382500", "095251.872500", "095253.362500", "095254.852500", "095256.342500", "095257.832500", "095259.322500", "095300.812500", "095302.302500", "095303.792500", "095305.282500", "095306.772500", "095308.262500", "095309.752500", "095311.242500", "095312.732500", "095314.222500", "095315.712500", "095317.202500", "095318.692500", "095320.182500", "095321.672500", "095323.162500", "095324.652500", "095326.142500", "095327.632500", "095329.122500", "095330.612500", "095332.102500", "095333.592500", "095335.082500", "095336.572500", "095338.062500", "095339.552500", "095341.042500", "095342.532500", "095344.022500", "095345.512500", "095347.002500", "095348.492500", "095349.982500", "095351.472500", "095352.962500", "095354.452500", "095355.942500", "095357.432500", "095358.922500", "095400.412500", "095401.902500", "095403.392500", "095404.882500", "095406.372500", "095407.862500", "095409.352500", "095410.842500", "095412.332500", "095413.822500", "095415.312500", "095416.802500", "095418.292500", "095419.782500", "095421.272500", "095422.762500", "095424.252500", "095425.742500", "095427.232500", "095428.722500", "095430.212500", "095431.702500", "095433.192500", "095434.682500", "095436.172500", "095437.662500", "095439.152500", "095440.642500", "095442.132500", "095443.622500", "095445.112500", "095446.602500", "095448.092500", "095449.582500", "095451.072500", "095452.562500"],
      "ContentTime": ["095223.474000", "095223.477000", "095223.487000", "095223.490000", "095223.493000", "095223.496000", "095223.499000", "095223.502000", "095223.506000", "095223.508000", "095223.511000", "095223.514000", "095223.517000", "095223.520000", "095223.523000", "095223.526000", "095223.529000", "095223.532000", "095223.535000", "095223.538000", "095223.541000", "095223.543000", "095223.546000", "095223.549000", "095223.552000", "095223.555000", "095223.558000", "095243.434000", "095243.437000", "095243.440000", "095243.443000", "095243.445000", "095243.448000", "095243.451000", "095243.454000", "095243.457000", "095243.460000", "095243.463000", "095243.466000", "095243.468000", "095243.471000", "095243.474000", "095243.477000", "095243.480000", "095243.483000", "095243.485000", "095243.496000", "095243.499000", "095303.435000", "095303.438000", "095303.441000", "095303.444000", "095303.446000", "095303.449000", "095303.452000", "095303.455000", "095303.458000", "095303.461000", "095303.464000", "095303.466000", "095303.469000", "095303.472000", "095303.475000", "095303.478000", "095303.481000", "095303.483000", "095303.486000", "095303.489000", "095323.434000", "095323.437000", "095323.440000", "095323.443000", "095323.445000", "095323.448000", "095323.451000", "095323.454000", "095323.457000", "095323.460000", "095323.463000", "095323.466000", "095323.468000", "095323.471000", "095323.474000", "095323.477000", "095323.480000", "095323.483000", "095323.486000", "095323.488000", "095343.434000", "095343.437000", "095343.453000", "095343.457000", "095343.459000", "095343.462000", "095343.465000", "095343.468000", "095343.471000", "095343.474000", "095343.477000", "095343.479000", "095343.482000", "095343.485000", "095343.488000", "095343.491000", "095343.494000", "095343.497000", "095343.500000", "095343.507000", "095423.434000", "095423.437000", "095423.440000", "095423.442000", "095423.446000", "095423.448000", "095423.451000", "095423.454000", "095423.457000", "095423.460000", "095423.463000", "095423.466000", "095423.469000", "095423.471000", "095423.474000", "095423.477000", "095423.480000", "095423.483000", "095423.486000", "095423.489000", "095423.500000", "095423.503000", "095423.506000", "095423.509000", "095423.512000", "095423.515000", "095423.518000", "095423.520000", "095423.523000", "095455.037000", "095455.041000", "095455.044000", "095455.054000", "095455.057000", "095455.060000", "095455.063000", "095455.066000", "095455.068000", "095455.072000", "095455.075000", "095455.078000", "095455.080000", "095455.083000", "095455.086000", "095455.089000", "095455.092000", "095455.095000", "095455.098000", "095455.101000", "095455.105000", "095455.108000"],
      "InstanceCreationTime": ["095223.474000", "095223.477000", "095223.487000", "095223.490000", "095223.493000", "095223.496000", "095223.499000", "095223.502000", "095223.506000", "095223.508000", "095223.511000", "095223.514000", "095223.517000", "095223.520000", "095223.523000", "095223.526000", "095223.529000", "095223.532000", "095223.535000", "095223.538000", "095223.541000", "095223.543000", "095223.546000", "095223.549000", "095223.552000", "095223.555000", "095223.558000", "095243.434000", "095243.437000", "095243.440000", "095243.443000", "095243.445000", "095243.448000", "095243.451000", "095243.454000", "095243.457000", "095243.460000", "095243.463000", "095243.466000", "095243.468000", "095243.471000", "095243.474000", "095243.477000", "095243.480000", "095243.483000", "095243.485000", "095243.496000", "095243.499000", "095303.435000", "095303.438000", "095303.441000", "095303.444000", "095303.446000", "095303.449000", "095303.452000", "095303.455000", "095303.458000", "095303.461000", "095303.464000", "095303.466000", "095303.469000", "095303.472000", "095303.475000", "095303.478000", "095303.481000", "095303.483000", "095303.486000", "095303.489000", "095323.434000", "095323.437000", "095323.440000", "095323.443000", "095323.445000", "095323.448000", "095323.451000", "095323.454000", "095323.457000", "095323.460000", "095323.463000", "095323.466000", "095323.468000", "095323.471000", "095323.474000", "095323.477000", "095323.480000", "095323.483000", "095323.486000", "095323.488000", "095343.434000", "095343.437000", "095343.453000", "095343.457000", "095343.459000", "095343.462000", "095343.465000", "095343.468000", "095343.471000", "095343.474000", "095343.477000", "095343.479000", "095343.482000", "095343.485000", "095343.488000", "095343.491000", "095343.494000", "095343.497000", "095343.500000", "095343.507000", "095423.434000", "095423.437000", "095423.440000", "095423.442000", "095423.446000", "095423.448000", "095423.451000", "095423.454000", "095423.457000", "095423.460000", "095423.463000", "095423.466000", "095423.469000", "095423.471000", "095423.474000", "095423.477000", "095423.480000", "095423.483000", "095423.486000", "095423.489000", "095423.500000", "095423.503000", "095423.506000", "095423.509000", "095423.512000", "095423.515000", "095423.518000", "095423.520000", "095423.523000", "095455.037000", "095455.041000", "095455.044000", "095455.054000", "095455.057000", "095455.060000", "095455.063000", "095455.066000", "095455.068000", "095455.072000", "095455.075000", "095455.078000", "095455.080000", "095455.083000", "095455.086000", "095455.089000", "095455.092000", "095455.095000", "095455.098000", "095455.101000", "095455.105000", "095455.108000"],
      "InstanceNumber": [1, 2, 3, 4, 5, 6, 7, 8, 9, 10, 11, 12, 13, 14, 15, 16, 17, 18, 19, 20, 21, 22, 23, 24, 25, 26, 27, 28, 29, 30, 31, 32, 33, 34, 35, 36, 37, 38, 39, 40, 41, 42, 43, 44, 45, 46, 47, 48, 49, 50, 51, 52, 53, 54, 55, 56, 57, 58, 59, 60, 61, 62, 63, 64, 65, 66, 67, 68, 69, 70, 71, 72, 73, 74, 75, 76, 77, 78, 79, 80, 81, 82, 83, 84, 85, 86, 87, 88, 89, 90, 91, 92, 93, 94, 95, 96, 97, 98, 99, 100, 101, 102, 103, 104, 105, 106, 107, 108, 109, 110, 111, 112, 113, 114, 115, 116, 117, 118, 119, 120, 121, 122, 123, 124, 125, 126, 127, 128, 129, 130, 131, 132, 133, 134, 135, 136, 137, 138, 139, 140, 141, 142, 143, 144, 145, 146, 147, 148, 149, 150, 151, 152, 153, 154, 155, 156, 157, 158, 159],
      "LargestImagePixelValue": [45053, 43718, 42563, 41851, 41309, 41028, 42449, 41807, 41749, 41552, 41338, 41556, 41499, 41644, 41403, 41450, 41715, 41425, 41327, 41789, 40826, 40891, 41374, 41264, 40630, 41057, 41365, 41552, 41702, 41363, 41754, 41406, 41473, 42255, 41533, 41963, 41335, 40719, 41399, 41280, 41382, 41057, 41465, 40951, 40438, 41724, 41407, 41748, 41832, 41800, 41740, 41387, 41972, 42316, 42620, 42471, 42559, 41944, 42354, 41896, 42210, 41869, 42642, 41978, 43046, 42067, 42314, 41998, 41706, 42115, 41313, 41442, 42851, 41983, 42511, 42491, 42723, 42042, 42123, 42753, 41226, 40839, 42059, 41522, 40920, 42490, 42041, 42945, 42274, 42019, 42176, 41814, 42580, 41675, 41614, 42743, 41910, 41728, 41939, 41875, 42613, 41853, 42083, 42468, 41553, 41887, 41935, 41842, 42007, 41685, 40440, 40734, 41495, 42438, 42697, 42980, 42067, 41853, 41757, 42167, 41673, 41691, 42285, 42124, 42096, 42266, 42495, 42377, 42836, 42710, 42839, 42094, 42938, 42466, 42652, 42332, 42345, 41991, 42214, 41361, 42200, 41692, 41486, 42634, 41544, 42009, 42264, 41996, 42761, 41704, 42120, 41931, 41272, 42045, 40801, 42071, 40894, 41826, 42164],
      "WindowCenter": [10176.0, 10123.0, 10110.0, 10133.0, 10155.0, 10164.0, 10150.0, 10131.0, 10122.0, 10116.0, 10122.0, 10123.0, 10118.0, 10108.0, 10092.0, 10090.0, 10092.0, 10090.0, 10091.0, 10098.0, 10094.0, 10088.0, 10085.0, 10083.0, 10087.0, 10102.0, 10101.0, 10099.0, 10099.0, 10094.0, 10103.0, 10096.0, 10106.0, 10120.0, 10115.0, 10107.0, 10085.0, 10078.0, 10083.0, 10089.0, 10099.0, 10084.0, 10066.0, 10064.0, 10067.0, 10093.0, 10090.0, 10103.0, 10103.0, 10097.0, 10112.0, 10132.0, 10140.0, 10132.0, 10120.0, 10111.0, 10109.0, 10105.0, 10105.0, 10106.0, 10104.0, 10097.0, 10100.0, 10087.0, 10106.0, 10098.0, 10104.0, 10097.0, 10090.0, 10113.0, 10116.0, 10124.0, 10119.0, 10100.0, 10097.0, 10088.0, 10092.0, 10086.0, 10081.0, 10085.0, 10073.0, 10078.0, 10094.0, 10083.0, 10091.0, 10111.0, 10105.0, 10117.0, 10113.0, 10113.0, 10129.0, 10115.0, 10119.0, 10109.0, 10115.0, 10125.0, 10105.0, 10093.0, 10097.0, 10095.0, 10095.0, 10095.0, 10103.0, 10101.0, 10074.0, 10078.0, 10078.0, 10079.0, 10094.0, 10104.0, 10090.0, 10080.0, 10089.0, 10091.0, 10101.0, 10091.0, 10063.0, 10062.0, 10071.0, 10091.0, 10101.0, 10113.0, 10127.0, 10120.0, 10114.0, 10121.0, 10135.0, 10124.0, 10128.0, 10126.0, 10116.0, 10104.0, 10100.0, 10099.0, 10105.0, 10101.0, 10104.0, 10090.0, 10088.0, 10072.0, 10092.0, 10096.0, 10098.0, 10102.0, 10082.0, 10094.0, 10094.0, 10096.0, 10100.0, 10076.0, 10086.0, 10081.0, 10088.0, 10093.0, 10083.0, 10091.0, 10075.0, 10085.0, 10076.0],
      "WindowWidth": [21905.0, 21756.0, 21706.0, 21747.0, 21797.0, 21816.0, 21779.0, 21733.0, 21710.0, 21701.0, 21714.0, 21716.0, 21706.0, 21683.0, 21646.0, 21639.0, 21644.0, 21640.0, 21642.0, 21655.0, 21647.0, 21638.0, 21630.0, 21623.0, 21636.0, 21669.0, 21666.0, 21660.0, 21658.0, 21650.0, 21664.0, 21652.0, 21676.0, 21703.0, 21696.0, 21675.0, 21630.0, 21616.0, 21623.0, 21635.0, 21659.0, 21629.0, 21589.0, 21582.0, 21595.0, 21646.0, 21644.0, 21668.0, 21668.0, 21654.0, 21687.0, 21737.0, 21752.0, 21732.0, 21703.0, 21682.0, 21679.0, 21672.0, 21674.0, 21673.0, 21670.0, 21655.0, 21658.0, 21635.0, 21669.0, 21658.0, 21668.0, 21652.0, 21642.0, 21687.0, 21701.0, 21720.0, 21702.0, 21660.0, 21651.0, 21633.0, 21637.0, 21626.0, 21617.0, 21621.0, 21599.0, 21615.0, 21647.0, 21622.0, 21640.0, 21680.0, 21667.0, 21689.0, 21686.0, 21690.0, 21723.0, 21694.0, 21699.0, 21682.0, 21697.0, 21712.0, 21670.0, 21646.0, 21654.0, 21648.0, 21648.0, 21648.0, 21661.0, 21656.0, 21605.0, 21609.0, 21611.0, 21614.0, 21646.0, 21668.0, 21647.0, 21622.0, 21634.0, 21634.0, 21655.0, 21633.0, 21574.0, 21573.0, 21596.0, 21637.0, 21665.0, 21692.0, 21719.0, 21704.0, 21693.0, 21709.0, 21735.0, 21715.0, 21720.0, 21716.0, 21692.0, 21668.0, 21660.0, 21657.0, 21669.0, 21661.0, 21668.0, 21637.0, 21631.0, 21600.0, 21638.0, 21650.0, 21659.0, 21662.0, 21623.0, 21647.0, 21646.0, 21651.0, 21654.0, 21607.0, 21625.0, 21616.0, 21632.0, 21642.0, 21625.0, 21638.0, 21610.0, 21624.0, 21602.0]
    },
    "slices": {}
  }
}