{
  "AcquisitionMatrixPE": 104,
  "AcquisitionNumber": 1,
  "AcquisitionTime": "10:04:53.615000",
  "BandwidthPerPixelPhaseEncode": 17.17,
  "BaseResolution": 104,
  "BodyPartExamined": "BRAIN",
  "CoilString": "HC1-7;NC1_2",
  "ConsistencyInfo": "N4_VE11C_LATEST_20160120",
  "ConversionSoftware": "dcm2niix",
  "ConversionSoftwareVersion": "v1.0.20200427",
  "DerivedVendorReportedEchoSpacing": 0.000560011,
  "DeviceSerialNumber": "167006",
  "DwellTime": 2.1e-06,
  "EchoTime": 0.037,
  "EchoTrainLength": 104,
  "EffectiveEchoSpacing": 0.000560011,
  "FlipAngle": 52,
  "ImageComments": "Unaliased_MB4_PE3_LB",
  "ImageOrientationPatientDICOM": [0.999975, -0.00154907, -0.00689834, -0.00104712, 0.932493, -0.361187],
  "ImageType": [
    "ORIGINAL",
    "PRIMARY",
    "M",
    "MB",
    "ND",
    "MOSAIC"
],
  "ImagingFrequency": 123.259,
  "InPlanePhaseEncodingDirectionDICOM": "COL",
  "InstitutionAddress": "Chemin_Queen-Mary_4565_Montreal_District_CA_H3W_1W5",
  "InstitutionName": "IUGM",
  "InstitutionalDepartmentName": "Department",
  "MRAcquisitionType": "2D",
  "MagneticFieldStrength": 3,
  "Manufacturer": "Siemens",
  "ManufacturersModelName": "Prisma_fit",
  "Modality": "MR",
  "MultibandAccelerationFactor": 4,
  "PartialFourier": 1,
  "PatientPosition": "HFS",
  "PercentPhaseFOV": 100,
  "PercentSampling": 100,
  "PhaseEncodingDirection": "j",
  "PhaseEncodingSteps": 104,
  "PhaseResolution": 1,
  "PixelBandwidth": 2290,
  "ProcedureStepDescription": "hcptrt_generic",
  "ProtocolName": "func_task-wm_run-1",
  "PulseSequenceDetails": "%CustomerSeq%_cmrr_mbep2d_bold",
  "ReceiveCoilActiveElements": "HC1-7;NC1,2",
  "ReceiveCoilName": "HeadNeck_64",
  "ReconMatrixPE": 104,
  "RepetitionTime": 1.49,
  "SAR": 0.0303209,
  "ScanOptions": "FS",
  "ScanningSequence": "EP",
  "SequenceName": "epfid2d1_104",
  "SequenceVariant": "SK_SS",
  "SeriesDescription": "func_task-wm_run-1",
  "SeriesNumber": 16,
  "ShimSetting": [637, -7253, -8856, 586, 30, -212, -103, -9],
  "SliceThickness": 2,
  "SliceTiming": [0, 0.785, 0.1, 0.8825, 0.1975, 0.98, 0.295, 1.08, 0.3925, 1.1775, 0.49, 1.275, 0.59, 1.3725, 0.6875, 0, 0.785, 0.1, 0.8825, 0.1975, 0.98, 0.295, 1.08, 0.3925, 1.1775, 0.49, 1.275, 0.59, 1.3725, 0.6875, 0, 0.785, 0.1, 0.8825, 0.1975, 0.98, 0.295, 1.08, 0.3925, 1.1775, 0.49, 1.275, 0.59, 1.3725, 0.6875, 0, 0.785, 0.1, 0.8825, 0.1975, 0.98, 0.295, 1.08, 0.3925, 1.1775, 0.49, 1.275, 0.59, 1.3725, 0.6875],
  "SoftwareVersions": "syngo_MR_E11",
  "SpacingBetweenSlices": 2,
  "StationName": "MRC35049",
  "TaskName": "wm",
  "TotalReadoutTime": 0.0576811,
  "TxRefAmp": 219.732,
  "WipMemBlock": "6e36e2bb-1969-4de2-a1cf-76f2cf1e90e9||Sequence: R016 ve11c/master r/e634e98; Dec 19 2017 11:00:25 by eja",
  "dcmmeta_affine": [
    [-1.9999500513076782, -0.0020942322444170713, -0.013984314166009426, 106.61715698242188],
    [0.0030981439631432295, 1.8649858236312866, -0.7223697900772095, -62.48273468017578],
    [-0.013796679675579071, 0.7223734259605408, 1.8649359941482544, -73.12247467041016],
    [0.0, 0.0, 0.0, 1.0]
],
  "dcmmeta_reorient_transform": [
    [0.0, -1.0, 0.0, 103.0],
    [1.0, 0.0, 0.0, 0.0],
    [0.0, 0.0, 1.0, 0.0],
    [0.0, 0.0, 0.0, 1.0]
],
  "dcmmeta_shape": [104, 104, 60, 202],
  "dcmmeta_slice_dim": 2,
  "dcmmeta_version": 0.6,
  "global": {
    "const": {
      "AcquisitionMatrix": [104, 0, 0, 104],
      "AngioFlag": "N",
      "BitsAllocated": 16,
      "BitsStored": 16,
      "BodyPartExamined": "BRAIN",
      "Columns": 832,
      "EchoNumbers": 1,
      "EchoTime": 37.0,
      "EchoTrainLength": 104,
      "FlipAngle": 52.0,
      "HighBit": 15,
      "ImageOrientationPatient": [0.99997500632933, -0.0015490719793, -0.0068983398476, -0.0010471161268, 0.93249293235975, -0.3611867033086],
      "ImagePositionPatient": [-833.62095697627, -807.33794015199, 269.24789650047],
      "ImageType": [
        "ORIGINAL",
        "PRIMARY",
        "M",
        "MB",
        "ND",
        "MOSAIC"
],
      "ImagedNucleus": "1H",
      "ImagingFrequency": 123.259119,
      "InPlanePhaseEncodingDirection": "COL",
      "MRAcquisitionType": "2D",
      "MagneticFieldStrength": 3.0,
      "Manufacturer": "SIEMENS",
      "ManufacturerModelName": "Prisma_fit",
      "Modality": "MR",
      "NumberOfAverages": 1.0,
      "NumberOfPhaseEncodingSteps": 104,
      "PercentPhaseFieldOfView": 100.0,
      "PercentSampling": 100.0,
      "PerformedProcedureStepStartTime": "085603.726000",
      "PhotometricInterpretation": "MONOCHROME2",
      "PixelBandwidth": 2290.0,
      "PixelRepresentation": 0,
      "PixelSpacing": [2.0, 2.0],
      "ProtocolName": "func_task-wm_run-1",
      "RepetitionTime": 1490.0,
      "Rows": 832,
      "SAR": 0.03032091773376,
      "SamplesPerPixel": 1,
      "ScanOptions": "FS",
      "ScanningSequence": "EP",
      "SequenceName": "epfid2d1_104",
      "SequenceVariant": [
        "SK",
        "SS"
],
      "SeriesDescription": "func_task-wm_run-1",
      "SeriesNumber": 16,
      "SeriesTime": "100623.459000",
      "SliceLocation": -46.362032913069,
      "SliceThickness": 2.0,
      "SmallestImagePixelValue": 0,
      "SoftwareVersions": "syngo MR E11",
      "SpacingBetweenSlices": 1.9999999617408,
      "SpecificCharacterSet": "ISO_IR 100",
      "StudyID": "1",
      "StudyTime": "085603.615000",
      "TransmitCoilName": "Body",
      "VariableFlipAngleFlag": "N",
      "WindowCenterWidthExplanation": "Algo1",
      "dBdt": 0.0},
    "slices": {}
  },
  "time": {
    "samples": {
      "AcquisitionNumber": [1, 2, 3, 4, 5, 6, 7, 8, 9, 10, 11, 12, 13, 14, 15, 16, 17, 18, 19, 20, 21, 22, 23, 24, 25, 26, 27, 28, 29, 30, 31, 32, 33, 34, 35, 36, 37, 38, 39, 40, 41, 42, 43, 44, 45, 46, 47, 48, 49, 50, 51, 52, 53, 54, 55, 56, 57, 58, 59, 60, 61, 62, 63, 64, 65, 66, 67, 68, 69, 70, 71, 72, 73, 74, 75, 76, 77, 78, 79, 80, 81, 82, 83, 84, 85, 86, 87, 88, 89, 90, 91, 92, 93, 94, 95, 96, 97, 98, 99, 100, 101, 102, 103, 104, 105, 106, 107, 108, 109, 110, 111, 112, 113, 114, 115, 116, 117, 118, 119, 120, 121, 122, 123, 124, 125, 126, 127, 128, 129, 130, 131, 132, 133, 134, 135, 136, 137, 138, 139, 140, 141, 142, 143, 144, 145, 146, 147, 148, 149, 150, 151, 152, 153, 154, 155, 156, 157, 158, 159, 160, 161, 162, 163, 164, 165, 166, 167, 168, 169, 170, 171, 172, 173, 174, 175, 176, 177, 178, 179, 180, 181, 182, 183, 184, 185, 186, 187, 188, 189, 190, 191, 192, 193, 194, 195, 196, 197, 198, 199, 200, 201, 202],
      "AcquisitionTime": ["100453.615000", "100455.105000", "100456.595000", "100458.085000", "100459.575000", "100501.065000", "100502.555000", "100504.045000", "100505.535000", "100507.025000", "100508.515000", "100510.005000", "100511.495000", "100512.985000", "100514.475000", "100515.965000", "100517.455000", "100518.945000", "100520.435000", "100521.925000", "100523.415000", "100524.905000", "100526.395000", "100527.885000", "100529.375000", "100530.865000", "100532.355000", "100533.845000", "100535.335000", "100536.825000", "100538.315000", "100539.805000", "100541.295000", "100542.785000", "100544.275000", "100545.765000", "100547.255000", "100548.745000", "100550.235000", "100551.725000", "100553.215000", "100554.705000", "100556.195000", "100557.685000", "100559.175000", "100600.665000", "100602.155000", "100603.645000", "100605.135000", "100606.625000", "100608.115000", "100609.605000", "100611.095000", "100612.585000", "100614.075000", "100615.565000", "100617.055000", "100618.545000", "100620.035000", "100621.525000", "100623.015000", "100624.505000", "100625.995000", "100627.485000", "100628.975000", "100630.465000", "100631.955000", "100633.445000", "100634.935000", "100636.425000", "100637.915000", "100639.405000", "100640.895000", "100642.385000", "100643.875000", "100645.365000", "100646.855000", "100648.345000", "100649.835000", "100651.325000", "100652.815000", "100654.305000", "100655.795000", "100657.285000", "100658.775000", "100700.265000", "100701.755000", "100703.245000", "100704.735000", "100706.225000", "100707.715000", "100709.205000", "100710.695000", "100712.185000", "100713.675000", "100715.165000", "100716.655000", "100718.145000", "100719.635000", "100721.125000", "100722.615000", "100724.105000", "100725.595000", "100727.085000", "100728.575000", "100730.065000", "100731.555000", "100733.045000", "100734.535000", "100736.025000", "100737.515000", "100739.005000", "100740.495000", "100741.985000", "100743.475000", "100744.965000", "100746.455000", "100747.945000", "100749.435000", "100750.925000", "100752.415000", "100753.905000", "100755.395000", "100756.885000", "100758.375000", "100759.865000", "100801.355000", "100802.845000", "100804.335000", "100805.825000", "100807.315000", "100808.805000", "100810.295000", "100811.785000", "100813.275000", "100814.765000", "100816.255000", "100817.745000", "100819.235000", "100820.725000", "100822.215000", "100823.705000", "100825.195000", "100826.685000", "100828.175000", "100829.665000", "100831.155000", "100832.645000", "100834.135000", "100835.625000", "100837.115000", "100838.605000", "100840.095000", "100841.585000", "100843.075000", "100844.565000", "100846.055000", "100847.545000", "100849.035000", "100850.525000", "100852.015000", "100853.505000", "100854.995000", "100856.485000", "100857.975000", "100859.465000", "100900.955000", "100902.445000", "100903.935000", "100905.425000", "100906.915000", "100908.405000", "100909.895000", "100911.385000", "100912.875000", "100914.365000", "100915.855000", "100917.345000", "100918.835000", "100920.325000", "100921.815000", "100923.305000", "100924.795000", "100926.285000", "100927.775000", "100929.265000", "100930.755000", "100932.245000", "100933.735000", "100935.225000", "100936.715000", "100938.205000", "100939.695000", "100941.185000", "100942.675000", "100944.165000", "100945.655000", "100947.145000", "100948.635000", "100950.125000", "100951.615000", "100953.105000"],
      "ContentTime": ["100623.462000", "100623.465000", "100623.468000", "100623.471000", "100623.474000", "100623.477000", "100623.480000", "100623.483000", "100623.486000", "100623.489000", "100623.492000", "100623.495000", "100623.497000", "100623.500000", "100623.503000", "100623.506000", "100623.509000", "100623.512000", "100623.515000", "100623.518000", "100623.525000", "100623.528000", "100623.531000", "100623.534000", "100623.537000", "100623.540000", "100623.543000", "100623.546000", "100623.548000", "100623.551000", "100623.554000", "100623.557000", "100623.560000", "100643.434000", "100643.437000", "100643.440000", "100643.443000", "100643.446000", "100643.449000", "100643.451000", "100643.454000", "100643.457000", "100643.460000", "100643.463000", "100643.466000", "100643.469000", "100643.471000", "100643.474000", "100643.477000", "100643.480000", "100643.483000", "100643.500000", "100643.503000", "100703.435000", "100703.438000", "100703.441000", "100703.444000", "100703.447000", "100703.449000", "100703.452000", "100703.455000", "100703.458000", "100703.461000", "100703.464000", "100703.467000", "100703.470000", "100703.472000", "100703.475000", "100703.478000", "100703.481000", "100703.484000", "100703.487000", "100703.489000", "100703.492000", "100723.434000", "100723.437000", "100723.440000", "100723.443000", "100723.445000", "100723.448000", "100723.451000", "100723.454000", "100723.457000", "100723.463000", "100723.466000", "100723.469000", "100723.472000", "100723.475000", "100723.478000", "100723.480000", "100723.483000", "100723.486000", "100723.489000", "100723.492000", "100803.434000", "100803.437000", "100803.440000", "100803.443000", "100803.446000", "100803.449000", "100803.451000", "100803.454000", "100803.457000", "100803.460000", "100803.463000", "100803.466000", "100803.469000", "100803.472000", "100803.474000", "100803.477000", "100803.480000", "100803.483000", "100803.486000", "100803.489000", "100803.491000", "100803.494000", "100803.497000", "100803.500000", "100803.503000", "100803.506000", "100803.509000", "100803.511000", "100803.514000", "100803.517000", "100803.520000", "100803.523000", "100843.434000", "100843.437000", "100843.440000", "100843.443000", "100843.446000", "100843.448000", "100843.451000", "100843.454000", "100843.457000", "100843.460000", "100843.463000", "100843.466000", "100843.468000", "100843.471000", "100843.474000", "100843.477000", "100843.480000", "100843.483000", "100843.486000", "100843.489000", "100843.491000", "100843.494000", "100843.497000", "100843.500000", "100843.503000", "100843.506000", "100843.508000", "100923.435000", "100923.438000", "100923.441000", "100923.444000", "100923.447000", "100923.449000", "100923.452000", "100923.455000", "100923.458000", "100923.461000", "100923.464000", "100923.467000", "100923.469000", "100923.472000", "100923.475000", "100923.478000", "100923.481000", "100923.484000", "100923.487000", "100923.489000", "100923.492000", "100923.495000", "100923.498000", "100923.501000", "100923.504000", "100923.511000", "100923.514000", "100955.683000", "100955.687000", "100955.689000", "100955.700000", "100955.702000", "100955.705000", "100955.708000", "100955.711000", "100955.714000", "100955.717000", "100955.720000", "100955.723000", "100955.726000", "100955.729000", "100955.732000", "100955.735000", "100955.738000", "100955.741000", "100955.744000", "100955.747000", "100955.750000", "100955.752000"],
      "InstanceCreationTime": ["100623.462000", "100623.465000", "100623.468000", "100623.471000", "100623.474000", "100623.477000", "100623.480000", "100623.483000", "100623.486000", "100623.489000", "100623.492000", "100623.495000", "100623.497000", "100623.500000", "100623.503000", "100623.506000", "100623.509000", "100623.512000", "100623.515000", "100623.518000", "100623.525000", "100623.528000", "100623.531000", "100623.534000", "100623.537000", "100623.540000", "100623.543000", "100623.546000", "100623.548000", "100623.551000", "100623.554000", "100623.557000", "100623.560000", "100643.434000", "100643.437000", "100643.440000", "100643.443000", "100643.446000", "100643.449000", "100643.451000", "100643.454000", "100643.457000", "100643.460000", "100643.463000", "100643.466000", "100643.469000", "100643.471000", "100643.474000", "100643.477000", "100643.480000", "100643.483000", "100643.500000", "100643.503000", "100703.435000", "100703.438000", "100703.441000", "100703.444000", "100703.447000", "100703.449000", "100703.452000", "100703.455000", "100703.458000", "100703.461000", "100703.464000", "100703.467000", "100703.470000", "100703.472000", "100703.475000", "100703.478000", "100703.481000", "100703.484000", "100703.487000", "100703.489000", "100703.492000", "100723.434000", "100723.437000", "100723.440000", "100723.443000", "100723.445000", "100723.448000", "100723.451000", "100723.454000", "100723.457000", "100723.463000", "100723.466000", "100723.469000", "100723.472000", "100723.475000", "100723.478000", "100723.480000", "100723.483000", "100723.486000", "100723.489000", "100723.492000", "100803.434000", "100803.437000", "100803.440000", "100803.443000", "100803.446000", "100803.449000", "100803.451000", "100803.454000", "100803.457000", "100803.460000", "100803.463000", "100803.466000", "100803.469000", "100803.472000", "100803.474000", "100803.477000", "100803.480000", "100803.483000", "100803.486000", "100803.489000", "100803.491000", "100803.494000", "100803.497000", "100803.500000", "100803.503000", "100803.506000", "100803.509000", "100803.511000", "100803.514000", "100803.517000", "100803.520000", "100803.523000", "100843.434000", "100843.437000", "100843.440000", "100843.443000", "100843.446000", "100843.448000", "100843.451000", "100843.454000", "100843.457000", "100843.460000", "100843.463000", "100843.466000", "100843.468000", "100843.471000", "100843.474000", "100843.477000", "100843.480000", "100843.483000", "100843.486000", "100843.489000", "100843.491000", "100843.494000", "100843.497000", "100843.500000", "100843.503000", "100843.506000", "100843.508000", "100923.435000", "100923.438000", "100923.441000", "100923.444000", "100923.447000", "100923.449000", "100923.452000", "100923.455000", "100923.458000", "100923.461000", "100923.464000", "100923.467000", "100923.469000", "100923.472000", "100923.475000", "100923.478000", "100923.481000", "100923.484000", "100923.487000", "100923.489000", "100923.492000", "100923.495000", "100923.498000", "100923.501000", "100923.504000", "100923.511000", "100923.514000", "100955.683000", "100955.687000", "100955.689000", "100955.700000", "100955.702000", "100955.705000", "100955.708000", "100955.711000", "100955.714000", "100955.717000", "100955.720000", "100955.723000", "100955.726000", "100955.729000", "100955.732000", "100955.735000", "100955.738000", "100955.741000", "100955.744000", "100955.747000", "100955.750000", "100955.752000"],
      "InstanceNumber": [1, 2, 3, 4, 5, 6, 7, 8, 9, 10, 11, 12, 13, 14, 15, 16, 17, 18, 19, 20, 21, 22, 23, 24, 25, 26, 27, 28, 29, 30, 31, 32, 33, 34, 35, 36, 37, 38, 39, 40, 41, 42, 43, 44, 45, 46, 47, 48, 49, 50, 51, 52, 53, 54, 55, 56, 57, 58, 59, 60, 61, 62, 63, 64, 65, 66, 67, 68, 69, 70, 71, 72, 73, 74, 75, 76, 77, 78, 79, 80, 81, 82, 83, 84, 85, 86, 87, 88, 89, 90, 91, 92, 93, 94, 95, 96, 97, 98, 99, 100, 101, 102, 103, 104, 105, 106, 107, 108, 109, 110, 111, 112, 113, 114, 115, 116, 117, 118, 119, 120, 121, 122, 123, 124, 125, 126, 127, 128, 129, 130, 131, 132, 133, 134, 135, 136, 137, 138, 139, 140, 141, 142, 143, 144, 145, 146, 147, 148, 149, 150, 151, 152, 153, 154, 155, 156, 157, 158, 159, 160, 161, 162, 163, 164, 165, 166, 167, 168, 169, 170, 171, 172, 173, 174, 175, 176, 177, 178, 179, 180, 181, 182, 183, 184, 185, 186, 187, 188, 189, 190, 191, 192, 193, 194, 195, 196, 197, 198, 199, 200, 201, 202],
      "LargestImagePixelValue": [44479, 42501, 41571, 41721, 41151, 40769, 40005, 39521, 40441, 39608, 39885, 39746, 39500, 39536, 40148, 39087, 39673, 39948, 39021, 38832, 39247, 39626, 39007, 39412, 39161, 39002, 39159, 39563, 39709, 39176, 38917, 39562, 39466, 39999, 39428, 39544, 39595, 39557, 39511, 39110, 39222, 39300, 39760, 39645, 39286, 39635, 39250, 39068, 39879, 40010, 38846, 39785, 39205, 39900, 39680, 39611, 39586, 39420, 39716, 39285, 39824, 39994, 39700, 39958, 39618, 39442, 39598, 39378, 40049, 39965, 39609, 39594, 39462, 39455, 39881, 39987, 40062, 39552, 39850, 40424, 39241, 39878, 39503, 39863, 40232, 39728, 40309, 39493, 39734, 39755, 39702, 39775, 39684, 39822, 39809, 39337, 39534, 40080, 39891, 39720, 39783, 39489, 39510, 39799, 40017, 40119, 39718, 40445, 40243, 39904, 39877, 40167, 40533, 40032, 40673, 39743, 40116, 40161, 40389, 40690, 40128, 40424, 40446, 40016, 40443, 40131, 39969, 39984, 40120, 40299, 40042, 40360, 40259, 40344, 40613, 39978, 40140, 40017, 40284, 40110, 39821, 40053, 40501, 40492, 40076, 39772, 40170, 40194, 39796, 39951, 40520, 40255, 40251, 40463, 39689, 40202, 40339, 39833, 40037, 40178, 39801, 40123, 40016, 40242, 40119, 40108, 40372, 40117, 40509, 40348, 40356, 40325, 40437, 40565, 40533, 40191, 40870, 40117, 40284, 40607, 40579, 40353, 39611, 40238, 40695, 40267, 40692, 40052, 40247, 40824, 40009, 40299, 40454, 40053, 39897, 40400, 40355, 40500, 40412, 40124, 40142, 40078],
      "WindowCenter": [10088.0, 10043.0, 10023.0, 10028.0, 10022.0, 10016.0, 10024.0, 10034.0, 10031.0, 10025.0, 10032.0, 10041.0, 10045.0, 10052.0, 10058.0, 10046.0, 10046.0, 10043.0, 10022.0, 10030.0, 10034.0, 10019.0, 10005.0, 10002.0, 9994.0, 9993.0, 10000.0, 10023.0, 10027.0, 10020.0, 10017.0, 10016.0, 10019.0, 10023.0, 10009.0, 10009.0, 10006.0, 10014.0, 10010.0, 10002.0, 9994.0, 9999.0, 10006.0, 10015.0, 10023.0, 10023.0, 10011.0, 10013.0, 10018.0, 10008.0, 9987.0, 9994.0, 10004.0, 10030.0, 10024.0, 10014.0, 9999.0, 10004.0, 10006.0, 10006.0, 10007.0, 9997.0, 9990.0, 9988.0, 9988.0, 9982.0, 9988.0, 9997.0, 10012.0, 10013.0, 10007.0, 10000.0, 9999.0, 10005.0, 10015.0, 10022.0, 10024.0, 10024.0, 10017.0, 10023.0, 10011.0, 10014.0, 10002.0, 10013.0, 10021.0, 10014.0, 10007.0, 9992.0, 9997.0, 9997.0, 10004.0, 10006.0, 10006.0, 9998.0, 9984.0, 9989.0, 10012.0, 10024.0, 10008.0, 9983.0, 9973.0, 9965.0, 9979.0, 9997.0, 10013.0, 10014.0, 10002.0, 10011.0, 10013.0, 10015.0, 10013.0, 10014.0, 10020.0, 10022.0, 10022.0, 10009.0, 10006.0, 10011.0, 10019.0, 10020.0, 10009.0, 10013.0, 10014.0, 10022.0, 10015.0, 9998.0, 9983.0, 9981.0, 9988.0, 10003.0, 10005.0, 10005.0, 9999.0, 10004.0, 10011.0, 10006.0, 10007.0, 10001.0, 10005.0, 9997.0, 9991.0, 9999.0, 10012.0, 10013.0, 10000.0, 9985.0, 9993.0, 10004.0, 10002.0, 10013.0, 10014.0, 10016.0, 10015.0, 10014.0, 10001.0, 10005.0, 10003.0, 9991.0, 9983.0, 9973.0, 9972.0, 9973.0, 9980.0, 9987.0, 9987.0, 9991.0, 9997.0, 9998.0, 10010.0, 10005.0, 10013.0, 10021.0, 10023.0, 10030.0, 10032.0, 10030.0, 10029.0, 10016.0, 10013.0, 10020.0, 10019.0, 10006.0, 10000.0, 9998.0, 10004.0, 10003.0, 10002.0, 9990.0, 9988.0, 9985.0, 9973.0, 9980.0, 9980.0, 9982.0, 9982.0, 9986.0, 10002.0, 10012.0, 10014.0, 10007.0, 9999.0, 10009.0],
      "WindowWidth": [21700.0, 21568.0, 21501.0, 21497.0, 21482.0, 21469.0, 21482.0, 21503.0, 21496.0, 21482.0, 21496.0, 21516.0, 21527.0, 21539.0, 21552.0, 21533.0, 21530.0, 21524.0, 21482.0, 21497.0, 21501.0, 21469.0, 21441.0, 21434.0, 21417.0, 21415.0, 21430.0, 21478.0, 21489.0, 21474.0, 21466.0, 21465.0, 21474.0, 21477.0, 21449.0, 21449.0, 21441.0, 21457.0, 21454.0, 21434.0, 21416.0, 21425.0, 21439.0, 21460.0, 21475.0, 21476.0, 21455.0, 21461.0, 21468.0, 21445.0, 21402.0, 21409.0, 21437.0, 21495.0, 21481.0, 21454.0, 21423.0, 21431.0, 21435.0, 21438.0, 21440.0, 21418.0, 21404.0, 21398.0, 21398.0, 21384.0, 21398.0, 21419.0, 21446.0, 21449.0, 21438.0, 21423.0, 21421.0, 21433.0, 21457.0, 21474.0, 21478.0, 21480.0, 21465.0, 21475.0, 21453.0, 21456.0, 21433.0, 21453.0, 21470.0, 21458.0, 21440.0, 21411.0, 21416.0, 21420.0, 21432.0, 21438.0, 21439.0, 21420.0, 21393.0, 21399.0, 21447.0, 21480.0, 21445.0, 21388.0, 21364.0, 21348.0, 21374.0, 21419.0, 21449.0, 21453.0, 21432.0, 21444.0, 21453.0, 21459.0, 21453.0, 21455.0, 21465.0, 21470.0, 21471.0, 21446.0, 21435.0, 21445.0, 21462.0, 21465.0, 21449.0, 21453.0, 21456.0, 21471.0, 21456.0, 21420.0, 21386.0, 21378.0, 21395.0, 21426.0, 21434.0, 21433.0, 21423.0, 21432.0, 21446.0, 21437.0, 21440.0, 21430.0, 21434.0, 21417.0, 21406.0, 21422.0, 21449.0, 21451.0, 21424.0, 21393.0, 21404.0, 21430.0, 21433.0, 21453.0, 21453.0, 21461.0, 21457.0, 21453.0, 21429.0, 21434.0, 21425.0, 21400.0, 21382.0, 21361.0, 21359.0, 21365.0, 21379.0, 21391.0, 21394.0, 21404.0, 21415.0, 21418.0, 21441.0, 21431.0, 21448.0, 21467.0, 21476.0, 21489.0, 21496.0, 21489.0, 21486.0, 21460.0, 21449.0, 21465.0, 21462.0, 21435.0, 21423.0, 21417.0, 21431.0, 21428.0, 21425.0, 21402.0, 21392.0, 21384.0, 21362.0, 21374.0, 21376.0, 21381.0, 21381.0, 21390.0, 21422.0, 21443.0, 21448.0, 21436.0, 21420.0, 21443.0]
    },
    "slices": {}
  }
}