{
  "AcquisitionMatrixPE": 104,
  "AcquisitionNumber": 1,
  "AcquisitionTime": "14:48:55.600000",
  "BandwidthPerPixelPhaseEncode": 17.17,
  "BaseResolution": 104,
  "BodyPartExamined": "BRAIN",
  "CoilString": "HC1-7;NC1_2",
  "ConsistencyInfo": "N4_VE11C_LATEST_20160120",
  "ConversionSoftware": "dcm2niix",
  "ConversionSoftwareVersion": "v1.0.20190720  (JP2:OpenJPEG) GCC7.3.0",
  "DerivedVendorReportedEchoSpacing": 0.000560011,
  "DeviceSerialNumber": "167006",
  "DwellTime": 2.1e-06,
  "EchoTime": 0.037,
  "EchoTrainLength": 104,
  "EffectiveEchoSpacing": 0.000560011,
  "FlipAngle": 52,
  "ImageComments": "Unaliased_MB4_PE3_LB",
  "ImageOrientationPatientDICOM": [0.999065, 0.03456, 0.0259595, -0.0244166, 0.946824, -0.320825],
  "ImageType": [
    "ORIGINAL",
    "PRIMARY",
    "M",
    "MB",
    "ND",
    "MOSAIC"
],
  "ImagingFrequency": 123.259,
  "InPlanePhaseEncodingDirectionDICOM": "COL",
  "InstitutionAddress": "Chemin_Queen-Mary_4565_Montreal_District_CA_H3W_1W5",
  "InstitutionName": "IUGM",
  "InstitutionalDepartmentName": "Department",
  "MRAcquisitionType": "2D",
  "MagneticFieldStrength": 3,
  "Manufacturer": "Siemens",
  "ManufacturersModelName": "Prisma_fit",
  "Modality": "MR",
  "MultibandAccelerationFactor": 4,
  "PartialFourier": 1,
  "PatientPosition": "HFS",
  "PercentPhaseFOV": 100,
  "PhaseEncodingDirection": "j",
  "PhaseEncodingSteps": 104,
  "PhaseResolution": 1,
  "PixelBandwidth": 2290,
  "ProcedureStepDescription": "hcptrt_generic",
  "ProtocolName": "func_task-gambling_run-1",
  "PulseSequenceDetails": "%CustomerSeq%_cmrr_mbep2d_bold",
  "ReceiveCoilActiveElements": "HC1-7;NC1,2",
  "ReceiveCoilName": "HeadNeck_64",
  "ReconMatrixPE": 104,
  "RepetitionTime": 1.49,
  "SAR": 0.0387482,
  "ScanOptions": "FS",
  "ScanningSequence": "EP",
  "SequenceName": "epfid2d1_104",
  "SequenceVariant": "SK_SS",
  "SeriesDescription": "func_task-gambling_run-1",
  "SeriesNumber": 11,
  "ShimSetting": [641, -7194, -8821, 702, 117, 37, -24, -31],
  "SliceThickness": 2,
  "SliceTiming": [0, 0.785, 0.0975, 0.8825, 0.1975, 0.98, 0.295, 1.0775, 0.3925, 1.1775, 0.49, 1.275, 0.5875, 1.3725, 0.6875, 0, 0.785, 0.0975, 0.8825, 0.1975, 0.98, 0.295, 1.0775, 0.3925, 1.1775, 0.49, 1.275, 0.5875, 1.3725, 0.6875, 0, 0.785, 0.0975, 0.8825, 0.1975, 0.98, 0.295, 1.0775, 0.3925, 1.1775, 0.49, 1.275, 0.5875, 1.3725, 0.6875, 0, 0.785, 0.0975, 0.8825, 0.1975, 0.98, 0.295, 1.0775, 0.3925, 1.1775, 0.49, 1.275, 0.5875, 1.3725, 0.6875],
  "SoftwareVersions": "syngo_MR_E11",
  "SpacingBetweenSlices": 2,
  "StationName": "MRC35049",
  "TaskName": "gambling",
  "TotalReadoutTime": 0.0576811,
  "TxRefAmp": 250.405,
  "WipMemBlock": "1f697a3b-72d4-45af-92ec-942e8d5ae616||Sequence: R016 ve11c/master r/e634e98; Dec 19 2017 11:00:25 by eja",
  "dcmmeta_affine": [
    [-1.9981307983398438, -0.048833224922418594, 0.07133347541093826, 105.27405548095703],
    [-0.06911998987197876, 1.8936476707458496, -0.6397818922996521, -64.06088256835938],
    [0.05191892758011818, 0.6416492462158203, 1.8935656547546387, -61.996150970458984],
    [0.0, 0.0, 0.0, 1.0]
],
  "dcmmeta_reorient_transform": [
    [0.0, -1.0, 0.0, 103.0],
    [1.0, 0.0, 0.0, 0.0],
    [0.0, 0.0, 1.0, 0.0],
    [0.0, 0.0, 0.0, 1.0]
],
  "dcmmeta_shape": [104, 104, 60, 129],
  "dcmmeta_slice_dim": 2,
  "dcmmeta_version": 0.6,
  "global": {
    "const": {
      "AcquisitionMatrix": [104, 0, 0, 104],
      "AngioFlag": "N",
      "BitsAllocated": 16,
      "BitsStored": 16,
      "BodyPartExamined": "BRAIN",
      "Columns": 832,
      "EchoNumbers": 1,
      "EchoTime": 37.0,
      "EchoTrainLength": 104,
      "FlipAngle": 52.0,
      "HighBit": 15,
      "ImageOrientationPatient": [0.99906541971497, 0.03455999626606, 0.02595946432099, -0.0244166127848, 0.94682384660254, -0.3208246133402],
      "ImagePositionPatient": [-809.7885644593, -845.43227096296, 218.75554598838],
      "ImageType": [
        "ORIGINAL",
        "PRIMARY",
        "M",
        "MB",
        "ND",
        "MOSAIC"
],
      "ImagedNucleus": "1H",
      "ImagingFrequency": 123.259261,
      "InPlanePhaseEncodingDirection": "COL",
      "MRAcquisitionType": "2D",
      "MagneticFieldStrength": 3.0,
      "Manufacturer": "SIEMENS",
      "ManufacturerModelName": "Prisma_fit",
      "Modality": "MR",
      "NumberOfAverages": 1.0,
      "NumberOfPhaseEncodingSteps": 104,
      "PercentPhaseFieldOfView": 100.0,
      "PercentSampling": 100.0,
      "PerformedProcedureStepStartTime": "140825.708000",
      "PhotometricInterpretation": "MONOCHROME2",
      "PixelBandwidth": 2290.0,
      "PixelRepresentation": 0,
      "PixelSpacing": [2.0, 2.0],
      "ProtocolName": "func_task-gambling_run-1",
      "RepetitionTime": 1490.0,
      "Rows": 832,
      "SAR": 0.03874816934456,
      "SamplesPerPixel": 1,
      "ScanOptions": "FS",
      "ScanningSequence": "EP",
      "SequenceName": "epfid2d1_104",
      "SequenceVariant": [
        "SK",
        "SS"
],
      "SeriesDescription": "func_task-gambling_run-1",
      "SeriesNumber": 11,
      "SeriesTime": "145015.215000",
      "SliceLocation": -34.449614733977,
      "SliceThickness": 2.0,
      "SmallestImagePixelValue": 0,
      "SoftwareVersions": "syngo MR E11",
      "SpacingBetweenSlices": 2.0000000627189,
      "SpecificCharacterSet": "ISO_IR 100",
      "StudyID": "1",
      "StudyTime": "140825.622000",
      "TransmitCoilName": "Body",
      "VariableFlipAngleFlag": "N",
      "WindowCenterWidthExplanation": "Algo1",
      "dBdt": 0.0},
    "slices": {}
  },
  "time": {
    "samples": {
      "AcquisitionNumber": [1, 2, 3, 4, 5, 6, 7, 8, 9, 10, 11, 12, 13, 14, 15, 16, 17, 18, 19, 20, 21, 22, 23, 24, 25, 26, 27, 28, 29, 30, 31, 32, 33, 34, 35, 36, 37, 38, 39, 40, 41, 42, 43, 44, 45, 46, 47, 48, 49, 50, 51, 52, 53, 54, 55, 56, 57, 58, 59, 60, 61, 62, 63, 64, 65, 66, 67, 68, 69, 70, 71, 72, 73, 74, 75, 76, 77, 78, 79, 80, 81, 82, 83, 84, 85, 86, 87, 88, 89, 90, 91, 92, 93, 94, 95, 96, 97, 98, 99, 100, 101, 102, 103, 104, 105, 106, 107, 108, 109, 110, 111, 112, 113, 114, 115, 116, 117, 118, 119, 120, 121, 122, 123, 124, 125, 126, 127, 128, 129],
      "AcquisitionTime": ["144855.600000", "144857.090000", "144858.580000", "144900.070000", "144901.560000", "144903.050000", "144904.540000", "144906.030000", "144907.520000", "144909.010000", "144910.500000", "144911.990000", "144913.480000", "144914.970000", "144916.460000", "144917.950000", "144919.440000", "144920.930000", "144922.420000", "144923.910000", "144925.400000", "144926.890000", "144928.380000", "144929.870000", "144931.360000", "144932.850000", "144934.340000", "144935.830000", "144937.320000", "144938.810000", "144940.300000", "144941.790000", "144943.280000", "144944.770000", "144946.260000", "144947.750000", "144949.240000", "144950.730000", "144952.220000", "144953.710000", "144955.200000", "144956.690000", "144958.180000", "144959.670000", "145001.160000", "145002.650000", "145004.140000", "145005.630000", "145007.120000", "145008.610000", "145010.100000", "145011.590000", "145013.080000", "145014.570000", "145016.060000", "145017.550000", "145019.040000", "145020.530000", "145022.020000", "145023.510000", "145025.000000", "145026.490000", "145027.980000", "145029.470000", "145030.960000", "145032.450000", "145033.940000", "145035.430000", "145036.920000", "145038.410000", "145039.900000", "145041.390000", "145042.880000", "145044.370000", "145045.860000", "145047.350000", "145048.840000", "145050.330000", "145051.820000", "145053.310000", "145054.800000", "145056.290000", "145057.780000", "145059.270000", "145100.760000", "145102.250000", "145103.740000", "145105.230000", "145106.720000", "145108.210000", "145109.700000", "145111.190000", "145112.680000", "145114.170000", "145115.660000", "145117.150000", "145118.640000", "145120.130000", "145121.620000", "145123.110000", "145124.600000", "145126.090000", "145127.580000", "145129.070000", "145130.560000", "145132.050000", "145133.540000", "145135.030000", "145136.520000", "145138.010000", "145139.500000", "145140.990000", "145142.480000", "145143.970000", "145145.460000", "145146.950000", "145148.440000", "145149.930000", "145151.420000", "145152.910000", "145154.400000", "145155.890000", "145157.380000", "145158.870000", "145200.360000", "145201.850000", "145203.340000", "145204.830000", "145206.320000"],
      "ContentTime": ["145015.218000", "145015.222000", "145015.225000", "145015.227000", "145015.230000", "145015.234000", "145015.237000", "145015.239000", "145015.242000", "145015.245000", "145015.248000", "145015.251000", "145015.254000", "145015.257000", "145015.260000", "145015.263000", "145015.266000", "145015.269000", "145015.272000", "145015.275000", "145015.278000", "145015.281000", "145015.284000", "145015.286000", "145015.289000", "145015.292000", "145015.295000", "145035.191000", "145035.194000", "145035.197000", "145035.200000", "145035.203000", "145035.206000", "145035.209000", "145035.212000", "145035.215000", "145035.218000", "145035.221000", "145035.228000", "145035.232000", "145035.235000", "145035.238000", "145035.241000", "145035.243000", "145035.246000", "145035.249000", "145035.252000", "145055.190000", "145055.193000", "145055.196000", "145055.199000", "145055.202000", "145055.205000", "145055.208000", "145055.214000", "145055.217000", "145055.220000", "145055.223000", "145055.226000", "145055.229000", "145055.232000", "145055.235000", "145055.238000", "145055.240000", "145055.244000", "145055.246000", "145055.249000", "145115.190000", "145115.193000", "145115.196000", "145115.199000", "145115.202000", "145115.205000", "145115.208000", "145115.211000", "145115.214000", "145115.217000", "145115.220000", "145115.223000", "145115.226000", "145115.229000", "145115.232000", "145115.234000", "145115.237000", "145115.240000", "145115.243000", "145115.246000", "145155.191000", "145155.198000", "145155.201000", "145155.204000", "145155.207000", "145155.210000", "145155.213000", "145155.216000", "145155.219000", "145155.222000", "145155.225000", "145155.228000", "145155.231000", "145155.234000", "145155.237000", "145155.240000", "145155.243000", "145155.246000", "145155.249000", "145155.252000", "145155.255000", "145155.258000", "145155.261000", "145155.264000", "145155.267000", "145155.269000", "145155.272000", "145155.275000", "145155.278000", "145155.281000", "145155.284000", "145155.287000", "145155.290000", "145208.247000", "145208.250000", "145208.253000", "145208.257000", "145208.270000", "145208.274000", "145208.277000", "145208.281000", "145208.284000"],
      "InstanceCreationTime": ["145015.218000", "145015.222000", "145015.225000", "145015.227000", "145015.230000", "145015.234000", "145015.237000", "145015.239000", "145015.242000", "145015.245000", "145015.248000", "145015.251000", "145015.254000", "145015.257000", "145015.260000", "145015.263000", "145015.266000", "145015.269000", "145015.272000", "145015.275000", "145015.278000", "145015.281000", "145015.284000", "145015.286000", "145015.289000", "145015.292000", "145015.295000", "145035.191000", "145035.194000", "145035.197000", "145035.200000", "145035.203000", "145035.206000", "145035.209000", "145035.212000", "145035.215000", "145035.218000", "145035.221000", "145035.228000", "145035.232000", "145035.235000", "145035.238000", "145035.241000", "145035.243000", "145035.246000", "145035.249000", "145035.252000", "145055.190000", "145055.193000", "145055.196000", "145055.199000", "145055.202000", "145055.205000", "145055.208000", "145055.214000", "145055.217000", "145055.220000", "145055.223000", "145055.226000", "145055.229000", "145055.232000", "145055.235000", "145055.238000", "145055.240000", "145055.244000", "145055.246000", "145055.249000", "145115.190000", "145115.193000", "145115.196000", "145115.199000", "145115.202000", "145115.205000", "145115.208000", "145115.211000", "145115.214000", "145115.217000", "145115.220000", "145115.223000", "145115.226000", "145115.229000", "145115.232000", "145115.234000", "145115.237000", "145115.240000", "145115.243000", "145115.246000", "145155.191000", "145155.198000", "145155.201000", "145155.204000", "145155.207000", "145155.210000", "145155.213000", "145155.216000", "145155.219000", "145155.222000", "145155.225000", "145155.228000", "145155.231000", "145155.234000", "145155.237000", "145155.240000", "145155.243000", "145155.246000", "145155.249000", "145155.252000", "145155.255000", "145155.258000", "145155.261000", "145155.264000", "145155.267000", "145155.269000", "145155.272000", "145155.275000", "145155.278000", "145155.281000", "145155.284000", "145155.287000", "145155.290000", "145208.247000", "145208.250000", "145208.253000", "145208.257000", "145208.270000", "145208.274000", "145208.277000", "145208.281000", "145208.284000"],
      "InstanceNumber": [1, 2, 3, 4, 5, 6, 7, 8, 9, 10, 11, 12, 13, 14, 15, 16, 17, 18, 19, 20, 21, 22, 23, 24, 25, 26, 27, 28, 29, 30, 31, 32, 33, 34, 35, 36, 37, 38, 39, 40, 41, 42, 43, 44, 45, 46, 47, 48, 49, 50, 51, 52, 53, 54, 55, 56, 57, 58, 59, 60, 61, 62, 63, 64, 65, 66, 67, 68, 69, 70, 71, 72, 73, 74, 75, 76, 77, 78, 79, 80, 81, 82, 83, 84, 85, 86, 87, 88, 89, 90, 91, 92, 93, 94, 95, 96, 97, 98, 99, 100, 101, 102, 103, 104, 105, 106, 107, 108, 109, 110, 111, 112, 113, 114, 115, 116, 117, 118, 119, 120, 121, 122, 123, 124, 125, 126, 127, 128, 129],
      "LargestImagePixelValue": [45723, 44694, 44133, 43540, 42510, 42926, 43476, 43717, 44143, 43059, 43841, 43571, 43683, 43715, 43355, 43201, 43898, 44040, 43763, 43909, 43255, 43714, 43504, 43535, 44256, 43367, 43570, 43565, 43824, 43974, 43791, 43878, 44423, 44222, 43864, 43321, 43415, 43386, 43582, 43809, 43713, 43654, 44061, 44018, 44392, 44094, 44065, 44491, 44503, 44055, 44163, 44262, 43497, 43641, 44390, 43783, 43934, 44142, 44278, 44090, 44107, 43956, 44151, 44205, 44269, 44385, 44064, 43980, 43622, 43795, 43766, 43724, 43064, 43741, 43546, 43707, 43371, 43004, 43830, 43703, 44092, 44134, 43396, 44145, 44129, 44225, 43812, 43743, 43281, 43885, 44366, 43800, 43793, 44038, 43913, 43779, 44136, 43677, 43849, 43787, 44111, 44168, 43466, 44106, 43712, 43754, 43854, 43195, 43419, 43382, 43991, 43930, 43944, 43642, 43755, 43763, 43619, 44061, 43811, 44076, 43751, 43325, 43819, 43378, 43588, 43017, 43546, 43296, 42937],
      "WindowCenter": [10139.0, 10115.0, 10115.0, 10101.0, 10087.0, 10093.0, 10103.0, 10099.0, 10096.0, 10093.0, 10108.0, 10129.0, 10136.0, 10118.0, 10105.0, 10102.0, 10108.0, 10133.0, 10117.0, 10107.0, 10093.0, 10113.0, 10126.0, 10106.0, 10098.0, 10076.0, 10084.0, 10097.0, 10108.0, 10092.0, 10080.0, 10078.0, 10095.0, 10106.0, 10100.0, 10091.0, 10089.0, 10088.0, 10101.0, 10107.0, 10097.0, 10104.0, 10116.0, 10141.0, 10118.0, 10097.0, 10078.0, 10082.0, 10102.0, 10104.0, 10105.0, 10105.0, 10111.0, 10105.0, 10096.0, 10080.0, 10079.0, 10103.0, 10115.0, 10106.0, 10090.0, 10089.0, 10096.0, 10087.0, 10085.0, 10108.0, 10122.0, 10107.0, 10100.0, 10125.0, 10136.0, 10117.0, 10085.0, 10078.0, 10081.0, 10106.0, 10118.0, 10105.0, 10109.0, 10101.0, 10082.0, 10066.0, 10052.0, 10076.0, 10106.0, 10100.0, 10090.0, 10078.0, 10066.0, 10088.0, 10096.0, 10081.0, 10081.0, 10089.0, 10090.0, 10097.0, 10112.0, 10117.0, 10116.0, 10101.0, 10104.0, 10115.0, 10117.0, 10123.0, 10127.0, 10129.0, 10116.0, 10093.0, 10110.0, 10131.0, 10127.0, 10109.0, 10090.0, 10083.0, 10087.0, 10099.0, 10101.0, 10098.0, 10081.0, 10078.0, 10082.0, 10095.0, 10100.0, 10081.0, 10089.0, 10104.0, 10138.0, 10118.0, 10093.0],
      "WindowWidth": [21428.0, 21364.0, 21357.0, 21326.0, 21289.0, 21304.0, 21329.0, 21314.0, 21304.0, 21303.0, 21335.0, 21388.0, 21398.0, 21356.0, 21333.0, 21319.0, 21335.0, 21392.0, 21354.0, 21329.0, 21302.0, 21343.0, 21377.0, 21334.0, 21306.0, 21262.0, 21286.0, 21308.0, 21335.0, 21301.0, 21270.0, 21263.0, 21304.0, 21329.0, 21314.0, 21292.0, 21285.0, 21283.0, 21320.0, 21329.0, 21307.0, 21322.0, 21352.0, 21407.0, 21354.0, 21302.0, 21261.0, 21270.0, 21319.0, 21324.0, 21326.0, 21325.0, 21345.0, 21331.0, 21303.0, 21268.0, 21265.0, 21321.0, 21348.0, 21327.0, 21292.0, 21297.0, 21307.0, 21285.0, 21277.0, 21328.0, 21368.0, 21328.0, 21310.0, 21375.0, 21398.0, 21351.0, 21280.0, 21260.0, 21274.0, 21329.0, 21363.0, 21331.0, 21334.0, 21319.0, 21272.0, 21232.0, 21203.0, 21256.0, 21331.0, 21314.0, 21288.0, 21261.0, 21241.0, 21288.0, 21305.0, 21270.0, 21272.0, 21291.0, 21293.0, 21307.0, 21337.0, 21356.0, 21347.0, 21322.0, 21323.0, 21350.0, 21358.0, 21368.0, 21380.0, 21384.0, 21351.0, 21300.0, 21337.0, 21390.0, 21378.0, 21335.0, 21291.0, 21278.0, 21281.0, 21313.0, 21322.0, 21310.0, 21272.0, 21266.0, 21284.0, 21320.0, 21328.0, 21274.0, 21301.0, 21341.0, 21413.0, 21368.0, 21311.0]
    },
    "slices": {}
  }
}