{
  "AcquisitionMatrixPE": 104,
  "AcquisitionNumber": 1,
  "AcquisitionTime": "14:56:45.302500",
  "BandwidthPerPixelPhaseEncode": 17.17,
  "BaseResolution": 104,
  "BodyPartExamined": "BRAIN",
  "CoilString": "HC1-7;NC1_2",
  "ConsistencyInfo": "N4_VE11C_LATEST_20160120",
  "ConversionSoftware": "dcm2niix",
  "ConversionSoftwareVersion": "v1.0.20190720  (JP2:OpenJPEG) GCC7.3.0",
  "DerivedVendorReportedEchoSpacing": 0.000560011,
  "DeviceSerialNumber": "167006",
  "DwellTime": 2.1e-06,
  "EchoTime": 0.037,
  "EchoTrainLength": 104,
  "EffectiveEchoSpacing": 0.000560011,
  "FlipAngle": 52,
  "ImageComments": "Unaliased_MB4_PE3_LB",
  "ImageOrientationPatientDICOM": [0.999065, 0.03456, 0.0259595, -0.0244166, 0.946824, -0.320825],
  "ImageType": [
    "ORIGINAL",
    "PRIMARY",
    "M",
    "MB",
    "ND",
    "MOSAIC"
],
  "ImagingFrequency": 123.259,
  "InPlanePhaseEncodingDirectionDICOM": "COL",
  "InstitutionAddress": "Chemin_Queen-Mary_4565_Montreal_District_CA_H3W_1W5",
  "InstitutionName": "IUGM",
  "InstitutionalDepartmentName": "Department",
  "MRAcquisitionType": "2D",
  "MagneticFieldStrength": 3,
  "Manufacturer": "Siemens",
  "ManufacturersModelName": "Prisma_fit",
  "Modality": "MR",
  "MultibandAccelerationFactor": 4,
  "PartialFourier": 1,
  "PatientPosition": "HFS",
  "PercentPhaseFOV": 100,
  "PhaseEncodingDirection": "j",
  "PhaseEncodingSteps": 104,
  "PhaseResolution": 1,
  "PixelBandwidth": 2290,
  "ProcedureStepDescription": "hcptrt_generic",
  "ProtocolName": "func_task-social_run-1",
  "PulseSequenceDetails": "%CustomerSeq%_cmrr_mbep2d_bold",
  "ReceiveCoilActiveElements": "HC1-7;NC1,2",
  "ReceiveCoilName": "HeadNeck_64",
  "ReconMatrixPE": 104,
  "RepetitionTime": 1.49,
  "SAR": 0.0387883,
  "ScanOptions": "FS",
  "ScanningSequence": "EP",
  "SequenceName": "epfid2d1_104",
  "SequenceVariant": "SK_SS",
  "SeriesDescription": "func_task-social_run-1",
  "SeriesNumber": 15,
  "ShimSetting": [641, -7194, -8821, 702, 117, 37, -24, -31],
  "SliceThickness": 2,
  "SliceTiming": [0, 0.7825, 0.0975, 0.8825, 0.195, 0.98, 0.2925, 1.0775, 0.3925, 1.175, 0.49, 1.2725, 0.5875, 1.3725, 0.685, 0, 0.7825, 0.0975, 0.8825, 0.195, 0.98, 0.2925, 1.0775, 0.3925, 1.175, 0.49, 1.2725, 0.5875, 1.3725, 0.685, 0, 0.7825, 0.0975, 0.8825, 0.195, 0.98, 0.2925, 1.0775, 0.3925, 1.175, 0.49, 1.2725, 0.5875, 1.3725, 0.685, 0, 0.7825, 0.0975, 0.8825, 0.195, 0.98, 0.2925, 1.0775, 0.3925, 1.175, 0.49, 1.2725, 0.5875, 1.3725, 0.685],
  "SoftwareVersions": "syngo_MR_E11",
  "SpacingBetweenSlices": 2,
  "StationName": "MRC35049",
  "TaskName": "social",
  "TotalReadoutTime": 0.0576811,
  "TxRefAmp": 250.405,
  "WipMemBlock": "a49277fd-7340-4247-8068-4be3f31249ad||Sequence: R016 ve11c/master r/e634e98; Dec 19 2017 11:00:25 by eja",
  "dcmmeta_affine": [
    [-1.9981307983398438, -0.048833224922418594, 0.07133347541093826, 105.27405548095703],
    [-0.06911998987197876, 1.8936476707458496, -0.6397818922996521, -64.06088256835938],
    [0.05191892758011818, 0.6416492462158203, 1.8935656547546387, -61.996150970458984],
    [0.0, 0.0, 0.0, 1.0]
],
  "dcmmeta_reorient_transform": [
    [0.0, -1.0, 0.0, 103.0],
    [1.0, 0.0, 0.0, 0.0],
    [0.0, 0.0, 1.0, 0.0],
    [0.0, 0.0, 0.0, 1.0]
],
  "dcmmeta_shape": [104, 104, 60, 139],
  "dcmmeta_slice_dim": 2,
  "dcmmeta_version": 0.6,
  "global": {
    "const": {
      "AcquisitionMatrix": [104, 0, 0, 104],
      "AngioFlag": "N",
      "BitsAllocated": 16,
      "BitsStored": 16,
      "BodyPartExamined": "BRAIN",
      "Columns": 832,
      "EchoNumbers": 1,
      "EchoTime": 37.0,
      "EchoTrainLength": 104,
      "FlipAngle": 52.0,
      "HighBit": 15,
      "ImageOrientationPatient": [0.99906541971497, 0.03455999626606, 0.02595946432099, -0.0244166127848, 0.94682384660254, -0.3208246133402],
      "ImagePositionPatient": [-809.7885644593, -845.43227096296, 218.75554598838],
      "ImageType": [
        "ORIGINAL",
        "PRIMARY",
        "M",
        "MB",
        "ND",
        "MOSAIC"
],
      "ImagedNucleus": "1H",
      "ImagingFrequency": 123.259264,
      "InPlanePhaseEncodingDirection": "COL",
      "MRAcquisitionType": "2D",
      "MagneticFieldStrength": 3.0,
      "Manufacturer": "SIEMENS",
      "ManufacturerModelName": "Prisma_fit",
      "Modality": "MR",
      "NumberOfAverages": 1.0,
      "NumberOfPhaseEncodingSteps": 104,
      "PercentPhaseFieldOfView": 100.0,
      "PercentSampling": 100.0,
      "PerformedProcedureStepStartTime": "140825.708000",
      "PhotometricInterpretation": "MONOCHROME2",
      "PixelBandwidth": 2290.0,
      "PixelRepresentation": 0,
      "PixelSpacing": [2.0, 2.0],
      "ProtocolName": "func_task-social_run-1",
      "RepetitionTime": 1490.0,
      "Rows": 832,
      "SAR": 0.03878831053688,
      "SamplesPerPixel": 1,
      "ScanOptions": "FS",
      "ScanningSequence": "EP",
      "SequenceName": "epfid2d1_104",
      "SequenceVariant": [
        "SK",
        "SS"
],
      "SeriesDescription": "func_task-social_run-1",
      "SeriesNumber": 15,
      "SeriesTime": "145808.455000",
      "SliceLocation": -34.449614733977,
      "SliceThickness": 2.0,
      "SmallestImagePixelValue": 0,
      "SoftwareVersions": "syngo MR E11",
      "SpacingBetweenSlices": 2.0000000627189,
      "SpecificCharacterSet": "ISO_IR 100",
      "StudyID": "1",
      "StudyTime": "140825.622000",
      "TransmitCoilName": "Body",
      "VariableFlipAngleFlag": "N",
      "WindowCenterWidthExplanation": "Algo1",
      "dBdt": 0.0},
    "slices": {}
  },
  "time": {
    "samples": {
      "AcquisitionNumber": [1, 2, 3, 4, 5, 6, 7, 8, 9, 10, 11, 12, 13, 14, 15, 16, 17, 18, 19, 20, 21, 22, 23, 24, 25, 26, 27, 28, 29, 30, 31, 32, 33, 34, 35, 36, 37, 38, 39, 40, 41, 42, 43, 44, 45, 46, 47, 48, 49, 50, 51, 52, 53, 54, 55, 56, 57, 58, 59, 60, 61, 62, 63, 64, 65, 66, 67, 68, 69, 70, 71, 72, 73, 74, 75, 76, 77, 78, 79, 80, 81, 82, 83, 84, 85, 86, 87, 88, 89, 90, 91, 92, 93, 94, 95, 96, 97, 98, 99, 100, 101, 102, 103, 104, 105, 106, 107, 108, 109, 110, 111, 112, 113, 114, 115, 116, 117, 118, 119, 120, 121, 122, 123, 124, 125, 126, 127, 128, 129, 130, 131, 132, 133, 134, 135, 136, 137, 138, 139],
      "AcquisitionTime": ["145645.302500", "145646.792500", "145648.282500", "145649.772500", "145651.262500", "145652.752500", "145654.242500", "145655.732500", "145657.222500", "145658.712500", "145700.202500", "145701.692500", "145703.182500", "145704.672500", "145706.162500", "145707.652500", "145709.142500", "145710.632500", "145712.122500", "145713.612500", "145715.102500", "145716.592500", "145718.082500", "145719.572500", "145721.062500", "145722.552500", "145724.042500", "145725.532500", "145727.022500", "145728.512500", "145730.002500", "145731.492500", "145732.982500", "145734.472500", "145735.962500", "145737.452500", "145738.942500", "145740.432500", "145741.922500", "145743.412500", "145744.902500", "145746.392500", "145747.882500", "145749.372500", "145750.862500", "145752.352500", "145753.842500", "145755.332500", "145756.822500", "145758.312500", "145759.802500", "145801.292500", "145802.782500", "145804.272500", "145805.762500", "145807.252500", "145808.742500", "145810.232500", "145811.722500", "145813.212500", "145814.702500", "145816.192500", "145817.682500", "145819.172500", "145820.662500", "145822.152500", "145823.642500", "145825.132500", "145826.622500", "145828.112500", "145829.602500", "145831.092500", "145832.582500", "145834.072500", "145835.562500", "145837.052500", "145838.542500", "145840.032500", "145841.522500", "145843.012500", "145844.502500", "145845.992500", "145847.482500", "145848.972500", "145850.462500", "145851.952500", "145853.442500", "145854.932500", "145856.422500", "145857.912500", "145859.402500", "145900.892500", "145902.382500", "145903.872500", "145905.362500", "145906.852500", "145908.342500", "145909.832500", "145911.322500", "145912.812500", "145914.302500", "145915.792500", "145917.282500", "145918.772500", "145920.262500", "145921.752500", "145923.242500", "145924.732500", "145926.222500", "145927.712500", "145929.202500", "145930.692500", "145932.182500", "145933.672500", "145935.162500", "145936.652500", "145938.142500", "145939.632500", "145941.122500", "145942.612500", "145944.102500", "145945.592500", "145947.082500", "145948.572500", "145950.062500", "145951.552500", "145953.042500", "145954.532500", "145956.022500", "145957.512500", "145959.002500", "150000.492500", "150001.982500", "150003.472500", "150004.962500", "150006.452500", "150007.942500", "150009.432500", "150010.922500"],
      "ContentTime": ["145808.457000", "145808.464000", "145808.467000", "145808.470000", "145808.473000", "145808.476000", "145808.479000", "145808.482000", "145808.485000", "145808.488000", "145808.491000", "145808.494000", "145808.497000", "145808.500000", "145808.503000", "145808.506000", "145808.509000", "145808.512000", "145808.522000", "145808.526000", "145808.529000", "145808.531000", "145808.535000", "145808.538000", "145808.540000", "145808.544000", "145808.547000", "145808.550000", "145808.553000", "145828.417000", "145828.420000", "145828.423000", "145828.426000", "145828.429000", "145828.432000", "145828.435000", "145828.438000", "145828.441000", "145828.444000", "145828.447000", "145828.450000", "145828.453000", "145828.456000", "145828.459000", "145828.462000", "145828.465000", "145828.468000", "145828.471000", "145828.474000", "145828.477000", "145848.417000", "145848.420000", "145848.423000", "145848.426000", "145848.429000", "145848.432000", "145848.435000", "145848.438000", "145848.441000", "145848.443000", "145848.446000", "145848.449000", "145848.452000", "145848.455000", "145848.474000", "145848.477000", "145848.480000", "145848.483000", "145848.486000", "145848.489000", "145908.417000", "145908.420000", "145908.423000", "145908.426000", "145908.429000", "145908.432000", "145908.435000", "145908.460000", "145908.464000", "145908.467000", "145908.470000", "145908.473000", "145908.476000", "145908.479000", "145908.482000", "145908.485000", "145908.488000", "145908.491000", "145908.494000", "145908.497000", "145948.418000", "145948.421000", "145948.424000", "145948.427000", "145948.430000", "145948.433000", "145948.436000", "145948.439000", "145948.442000", "145948.445000", "145948.448000", "145948.451000", "145948.454000", "145948.457000", "145948.460000", "145948.463000", "145948.466000", "145948.469000", "145948.472000", "145948.475000", "145948.478000", "145948.481000", "145948.484000", "145948.487000", "145948.490000", "145948.493000", "145948.496000", "145948.499000", "145948.502000", "145948.505000", "145948.508000", "145948.511000", "150008.418000", "150008.421000", "150008.424000", "150008.427000", "150008.430000", "150008.433000", "150008.436000", "150008.439000", "150008.442000", "150008.445000", "150008.448000", "150008.451000", "150008.454000", "150013.145000", "150013.148000", "150013.151000", "150013.154000"],
      "InstanceCreationTime": ["145808.457000", "145808.464000", "145808.467000", "145808.470000", "145808.473000", "145808.476000", "145808.479000", "145808.482000", "145808.485000", "145808.488000", "145808.491000", "145808.494000", "145808.497000", "145808.500000", "145808.503000", "145808.506000", "145808.509000", "145808.512000", "145808.522000", "145808.526000", "145808.529000", "145808.531000", "145808.535000", "145808.538000", "145808.540000", "145808.544000", "145808.547000", "145808.550000", "145808.553000", "145828.417000", "145828.420000", "145828.423000", "145828.426000", "145828.429000", "145828.432000", "145828.435000", "145828.438000", "145828.441000", "145828.444000", "145828.447000", "145828.450000", "145828.453000", "145828.456000", "145828.459000", "145828.462000", "145828.465000", "145828.468000", "145828.471000", "145828.474000", "145828.477000", "145848.417000", "145848.420000", "145848.423000", "145848.426000", "145848.429000", "145848.432000", "145848.435000", "145848.438000", "145848.441000", "145848.443000", "145848.446000", "145848.449000", "145848.452000", "145848.455000", "145848.474000", "145848.477000", "145848.480000", "145848.483000", "145848.486000", "145848.489000", "145908.417000", "145908.420000", "145908.423000", "145908.426000", "145908.429000", "145908.432000", "145908.435000", "145908.460000", "145908.464000", "145908.467000", "145908.470000", "145908.473000", "145908.476000", "145908.479000", "145908.482000", "145908.485000", "145908.488000", "145908.491000", "145908.494000", "145908.497000", "145948.418000", "145948.421000", "145948.424000", "145948.427000", "145948.430000", "145948.433000", "145948.436000", "145948.439000", "145948.442000", "145948.445000", "145948.448000", "145948.451000", "145948.454000", "145948.457000", "145948.460000", "145948.463000", "145948.466000", "145948.469000", "145948.472000", "145948.475000", "145948.478000", "145948.481000", "145948.484000", "145948.487000", "145948.490000", "145948.493000", "145948.496000", "145948.499000", "145948.502000", "145948.505000", "145948.508000", "145948.511000", "150008.418000", "150008.421000", "150008.424000", "150008.427000", "150008.430000", "150008.433000", "150008.436000", "150008.439000", "150008.442000", "150008.445000", "150008.448000", "150008.451000", "150008.454000", "150013.145000", "150013.148000", "150013.151000", "150013.154000"],
      "InstanceNumber": [1, 2, 3, 4, 5, 6, 7, 8, 9, 10, 11, 12, 13, 14, 15, 16, 17, 18, 19, 20, 21, 22, 23, 24, 25, 26, 27, 28, 29, 30, 31, 32, 33, 34, 35, 36, 37, 38, 39, 40, 41, 42, 43, 44, 45, 46, 47, 48, 49, 50, 51, 52, 53, 54, 55, 56, 57, 58, 59, 60, 61, 62, 63, 64, 65, 66, 67, 68, 69, 70, 71, 72, 73, 74, 75, 76, 77, 78, 79, 80, 81, 82, 83, 84, 85, 86, 87, 88, 89, 90, 91, 92, 93, 94, 95, 96, 97, 98, 99, 100, 101, 102, 103, 104, 105, 106, 107, 108, 109, 110, 111, 112, 113, 114, 115, 116, 117, 118, 119, 120, 121, 122, 123, 124, 125, 126, 127, 128, 129, 130, 131, 132, 133, 134, 135, 136, 137, 138, 139],
      "LargestImagePixelValue": [46300, 44872, 44565, 44637, 43818, 43966, 43886, 43242, 43175, 42808, 43410, 42961, 43221, 42893, 43287, 43086, 43212, 42634, 42883, 43324, 42569, 42909, 43217, 43569, 43355, 43535, 43546, 43603, 43152, 43298, 43283, 43491, 43460, 43048, 43577, 42616, 42950, 43319, 43493, 43332, 43585, 43133, 43539, 43272, 42886, 42528, 42811, 42298, 41833, 42523, 42722, 42708, 42899, 42679, 42789, 42382, 42960, 42544, 42953, 43137, 42968, 43009, 42870, 43443, 43057, 42877, 43024, 42847, 42681, 43268, 42873, 43590, 42993, 43354, 43224, 43064, 42818, 42594, 42826, 42864, 42762, 43026, 42639, 43075, 42974, 42639, 41765, 42467, 42819, 43239, 42919, 42754, 42611, 42955, 42665, 42286, 42666, 42624, 42033, 42182, 42183, 42102, 42621, 43105, 42464, 42456, 43036, 42934, 42540, 42350, 42640, 42983, 42334, 42318, 42651, 43125, 43151, 42554, 42762, 42819, 42449, 42659, 42931, 42588, 42989, 42892, 42598, 43032, 42186, 42581, 42745, 42531, 42630, 42454, 42525, 41952, 42085, 41825, 42135],
      "WindowCenter": [10204.0, 10151.0, 10131.0, 10103.0, 10084.0, 10086.0, 10102.0, 10090.0, 10088.0, 10095.0, 10096.0, 10081.0, 10085.0, 10097.0, 10117.0, 10116.0, 10106.0, 10111.0, 10119.0, 10116.0, 10110.0, 10128.0, 10146.0, 10146.0, 10139.0, 10121.0, 10100.0, 10089.0, 10098.0, 10109.0, 10111.0, 10110.0, 10100.0, 10093.0, 10080.0, 10063.0, 10077.0, 10114.0, 10126.0, 10109.0, 10097.0, 10104.0, 10115.0, 10117.0, 10094.0, 10092.0, 10090.0, 10075.0, 10074.0, 10089.0, 10110.0, 10094.0, 10073.0, 10073.0, 10080.0, 10074.0, 10088.0, 10110.0, 10108.0, 10096.0, 10077.0, 10077.0, 10096.0, 10112.0, 10113.0, 10116.0, 10106.0, 10095.0, 10098.0, 10113.0, 10122.0, 10133.0, 10124.0, 10108.0, 10106.0, 10098.0, 10083.0, 10083.0, 10099.0, 10091.0, 10090.0, 10100.0, 10085.0, 10079.0, 10088.0, 10090.0, 10076.0, 10088.0, 10115.0, 10114.0, 10097.0, 10089.0, 10082.0, 10096.0, 10110.0, 10105.0, 10086.0, 10073.0, 10064.0, 10071.0, 10099.0, 10105.0, 10105.0, 10108.0, 10077.0, 10064.0, 10069.0, 10099.0, 10090.0, 10081.0, 10081.0, 10079.0, 10062.0, 10061.0, 10088.0, 10122.0, 10116.0, 10100.0, 10091.0, 10114.0, 10110.0, 10107.0, 10107.0, 10111.0, 10108.0, 10106.0, 10104.0, 10095.0, 10080.0, 10086.0, 10110.0, 10097.0, 10078.0, 10069.0, 10079.0, 10075.0, 10076.0, 10081.0, 10079.0],
      "WindowWidth": [21577.0, 21444.0, 21390.0, 21323.0, 21274.0, 21281.0, 21316.0, 21293.0, 21283.0, 21301.0, 21304.0, 21270.0, 21278.0, 21311.0, 21355.0, 21350.0, 21329.0, 21345.0, 21362.0, 21352.0, 21340.0, 21381.0, 21420.0, 21421.0, 21407.0, 21364.0, 21315.0, 21291.0, 21313.0, 21337.0, 21341.0, 21338.0, 21315.0, 21302.0, 21266.0, 21228.0, 21258.0, 21346.0, 21372.0, 21335.0, 21300.0, 21322.0, 21349.0, 21356.0, 21303.0, 21296.0, 21291.0, 21258.0, 21255.0, 21289.0, 21341.0, 21302.0, 21253.0, 21256.0, 21273.0, 21258.0, 21287.0, 21341.0, 21335.0, 21306.0, 21259.0, 21262.0, 21308.0, 21340.0, 21345.0, 21353.0, 21326.0, 21303.0, 21314.0, 21343.0, 21365.0, 21388.0, 21367.0, 21331.0, 21326.0, 21312.0, 21279.0, 21280.0, 21317.0, 21296.0, 21299.0, 21323.0, 21286.0, 21268.0, 21291.0, 21294.0, 21265.0, 21289.0, 21349.0, 21345.0, 21308.0, 21290.0, 21274.0, 21306.0, 21345.0, 21332.0, 21284.0, 21253.0, 21236.0, 21249.0, 21317.0, 21333.0, 21330.0, 21333.0, 21267.0, 21232.0, 21245.0, 21324.0, 21294.0, 21269.0, 21272.0, 21262.0, 21226.0, 21226.0, 21288.0, 21364.0, 21350.0, 21316.0, 21295.0, 21345.0, 21341.0, 21330.0, 21329.0, 21343.0, 21330.0, 21323.0, 21324.0, 21303.0, 21271.0, 21284.0, 21340.0, 21309.0, 21263.0, 21251.0, 21282.0, 21274.0, 21261.0, 21285.0, 21280.0]
    },
    "slices": {}
  }
}