{
  "AcquisitionMatrixPE": 104,
  "AcquisitionNumber": 1,
  "AcquisitionTime": "14:52:56.527500",
  "BandwidthPerPixelPhaseEncode": 17.17,
  "BaseResolution": 104,
  "BodyPartExamined": "BRAIN",
  "CoilString": "HC1-7;NC1_2",
  "ConsistencyInfo": "N4_VE11C_LATEST_20160120",
  "ConversionSoftware": "dcm2niix",
  "ConversionSoftwareVersion": "v1.0.20190720  (JP2:OpenJPEG) GCC7.3.0",
  "DerivedVendorReportedEchoSpacing": 0.000560011,
  "DeviceSerialNumber": "167006",
  "DwellTime": 2.1e-06,
  "EchoTime": 0.037,
  "EchoTrainLength": 104,
  "EffectiveEchoSpacing": 0.000560011,
  "FlipAngle": 52,
  "ImageComments": "Unaliased_MB4_PE3_LB",
  "ImageOrientationPatientDICOM": [0.999065, 0.03456, 0.0259595, -0.0244166, 0.946824, -0.320825],
  "ImageType": [
    "ORIGINAL",
    "PRIMARY",
    "M",
    "MB",
    "ND",
    "MOSAIC"
],
  "ImagingFrequency": 123.259,
  "InPlanePhaseEncodingDirectionDICOM": "COL",
  "InstitutionAddress": "Chemin_Queen-Mary_4565_Montreal_District_CA_H3W_1W5",
  "InstitutionName": "IUGM",
  "InstitutionalDepartmentName": "Department",
  "MRAcquisitionType": "2D",
  "MagneticFieldStrength": 3,
  "Manufacturer": "Siemens",
  "ManufacturersModelName": "Prisma_fit",
  "Modality": "MR",
  "MultibandAccelerationFactor": 4,
  "PartialFourier": 1,
  "PatientPosition": "HFS",
  "PercentPhaseFOV": 100,
  "PhaseEncodingDirection": "j",
  "PhaseEncodingSteps": 104,
  "PhaseResolution": 1,
  "PixelBandwidth": 2290,
  "ProcedureStepDescription": "hcptrt_generic",
  "ProtocolName": "func_task-relational_run-1",
  "PulseSequenceDetails": "%CustomerSeq%_cmrr_mbep2d_bold",
  "ReceiveCoilActiveElements": "HC1-7;NC1,2",
  "ReceiveCoilName": "HeadNeck_64",
  "ReconMatrixPE": 104,
  "RepetitionTime": 1.49,
  "SAR": 0.0387017,
  "ScanOptions": "FS",
  "ScanningSequence": "EP",
  "SequenceName": "epfid2d1_104",
  "SequenceVariant": "SK_SS",
  "SeriesDescription": "func_task-relational_run-1",
  "SeriesNumber": 13,
  "ShimSetting": [641, -7194, -8821, 702, 117, 37, -24, -31],
  "SliceThickness": 2,
  "SliceTiming": [0, 0.785, 0.0975, 0.8825, 0.195, 0.98, 0.295, 1.0775, 0.3925, 1.175, 0.49, 1.2725, 0.5875, 1.3725, 0.685, 0, 0.785, 0.0975, 0.8825, 0.195, 0.98, 0.295, 1.0775, 0.3925, 1.175, 0.49, 1.2725, 0.5875, 1.3725, 0.685, 0, 0.785, 0.0975, 0.8825, 0.195, 0.98, 0.295, 1.0775, 0.3925, 1.175, 0.49, 1.2725, 0.5875, 1.3725, 0.685, 0, 0.785, 0.0975, 0.8825, 0.195, 0.98, 0.295, 1.0775, 0.3925, 1.175, 0.49, 1.2725, 0.5875, 1.3725, 0.685],
  "SoftwareVersions": "syngo_MR_E11",
  "SpacingBetweenSlices": 2,
  "StationName": "MRC35049",
  "TaskName": "relational",
  "TotalReadoutTime": 0.0576811,
  "TxRefAmp": 250.405,
  "WipMemBlock": "79652b71-9a3b-49ef-94f8-2765ae6d474a||Sequence: R016 ve11c/master r/e634e98; Dec 19 2017 11:00:25 by eja",
  "dcmmeta_affine": [
    [-1.9981307983398438, -0.048833224922418594, 0.07133347541093826, 105.27405548095703],
    [-0.06911998987197876, 1.8936476707458496, -0.6397818922996521, -64.06088256835938],
    [0.05191892758011818, 0.6416492462158203, 1.8935656547546387, -61.996150970458984],
    [0.0, 0.0, 0.0, 1.0]
],
  "dcmmeta_reorient_transform": [
    [0.0, -1.0, 0.0, 103.0],
    [1.0, 0.0, 0.0, 0.0],
    [0.0, 0.0, 1.0, 0.0],
    [0.0, 0.0, 0.0, 1.0]
],
  "dcmmeta_shape": [104, 104, 60, 119],
  "dcmmeta_slice_dim": 2,
  "dcmmeta_version": 0.6,
  "global": {
    "const": {
      "AcquisitionMatrix": [104, 0, 0, 104],
      "AngioFlag": "N",
      "BitsAllocated": 16,
      "BitsStored": 16,
      "BodyPartExamined": "BRAIN",
      "Columns": 832,
      "EchoNumbers": 1,
      "EchoTime": 37.0,
      "EchoTrainLength": 104,
      "FlipAngle": 52.0,
      "HighBit": 15,
      "ImageOrientationPatient": [0.99906541971497, 0.03455999626606, 0.02595946432099, -0.0244166127848, 0.94682384660254, -0.3208246133402],
      "ImagePositionPatient": [-809.7885644593, -845.43227096296, 218.75554598838],
      "ImageType": [
        "ORIGINAL",
        "PRIMARY",
        "M",
        "MB",
        "ND",
        "MOSAIC"
],
      "ImagedNucleus": "1H",
      "ImagingFrequency": 123.259264,
      "InPlanePhaseEncodingDirection": "COL",
      "MRAcquisitionType": "2D",
      "MagneticFieldStrength": 3.0,
      "Manufacturer": "SIEMENS",
      "ManufacturerModelName": "Prisma_fit",
      "Modality": "MR",
      "NumberOfAverages": 1.0,
      "NumberOfPhaseEncodingSteps": 104,
      "PercentPhaseFieldOfView": 100.0,
      "PercentSampling": 100.0,
      "PerformedProcedureStepStartTime": "140825.708000",
      "PhotometricInterpretation": "MONOCHROME2",
      "PixelBandwidth": 2290.0,
      "PixelRepresentation": 0,
      "PixelSpacing": [2.0, 2.0],
      "ProtocolName": "func_task-relational_run-1",
      "RepetitionTime": 1490.0,
      "Rows": 832,
      "SAR": 0.0387016638057,
      "SamplesPerPixel": 1,
      "ScanOptions": "FS",
      "ScanningSequence": "EP",
      "SequenceName": "epfid2d1_104",
      "SequenceVariant": [
        "SK",
        "SS"
],
      "SeriesDescription": "func_task-relational_run-1",
      "SeriesNumber": 13,
      "SeriesTime": "145420.783000",
      "SliceLocation": -34.449614733977,
      "SliceThickness": 2.0,
      "SmallestImagePixelValue": 0,
      "SoftwareVersions": "syngo MR E11",
      "SpacingBetweenSlices": 2.0000000627189,
      "SpecificCharacterSet": "ISO_IR 100",
      "StudyID": "1",
      "StudyTime": "140825.622000",
      "TransmitCoilName": "Body",
      "VariableFlipAngleFlag": "N",
      "WindowCenterWidthExplanation": "Algo1",
      "dBdt": 0.0},
    "slices": {}
  },
  "time": {
    "samples": {
      "AcquisitionNumber": [1, 2, 3, 4, 5, 6, 7, 8, 9, 10, 11, 12, 13, 14, 15, 16, 17, 18, 19, 20, 21, 22, 23, 24, 25, 26, 27, 28, 29, 30, 31, 32, 33, 34, 35, 36, 37, 38, 39, 40, 41, 42, 43, 44, 45, 46, 47, 48, 49, 50, 51, 52, 53, 54, 55, 56, 57, 58, 59, 60, 61, 62, 63, 64, 65, 66, 67, 68, 69, 70, 71, 72, 73, 74, 75, 76, 77, 78, 79, 80, 81, 82, 83, 84, 85, 86, 87, 88, 89, 90, 91, 92, 93, 94, 95, 96, 97, 98, 99, 100, 101, 102, 103, 104, 105, 106, 107, 108, 109, 110, 111, 112, 113, 114, 115, 116, 117, 118, 119],
      "AcquisitionTime": ["145256.527500", "145258.017500", "145259.507500", "145300.997500", "145302.487500", "145303.977500", "145305.467500", "145306.957500", "145308.447500", "145309.937500", "145311.427500", "145312.917500", "145314.407500", "145315.897500", "145317.387500", "145318.877500", "145320.367500", "145321.857500", "145323.347500", "145324.837500", "145326.327500", "145327.817500", "145329.307500", "145330.797500", "145332.287500", "145333.777500", "145335.267500", "145336.757500", "145338.247500", "145339.737500", "145341.227500", "145342.717500", "145344.207500", "145345.697500", "145347.187500", "145348.677500", "145350.167500", "145351.657500", "145353.147500", "145354.637500", "145356.127500", "145357.617500", "145359.107500", "145400.597500", "145402.087500", "145403.577500", "145405.067500", "145406.557500", "145408.047500", "145409.537500", "145411.027500", "145412.517500", "145414.007500", "145415.497500", "145416.987500", "145418.477500", "145419.967500", "145421.457500", "145422.947500", "145424.437500", "145425.927500", "145427.417500", "145428.907500", "145430.397500", "145431.887500", "145433.377500", "145434.867500", "145436.357500", "145437.847500", "145439.337500", "145440.827500", "145442.317500", "145443.807500", "145445.297500", "145446.787500", "145448.277500", "145449.767500", "145451.257500", "145452.747500", "145454.237500", "145455.727500", "145457.217500", "145458.707500", "145500.197500", "145501.687500", "145503.177500", "145504.667500", "145506.157500", "145507.647500", "145509.137500", "145510.627500", "145512.117500", "145513.607500", "145515.097500", "145516.587500", "145518.077500", "145519.567500", "145521.057500", "145522.547500", "145524.037500", "145525.527500", "145527.017500", "145528.507500", "145529.997500", "145531.487500", "145532.977500", "145534.467500", "145535.957500", "145537.447500", "145538.937500", "145540.427500", "145541.917500", "145543.407500", "145544.897500", "145546.387500", "145547.877500", "145549.367500", "145550.857500", "145552.347500"],
      "ContentTime": ["145420.786000", "145420.789000", "145420.796000", "145420.799000", "145420.802000", "145420.805000", "145420.808000", "145420.811000", "145420.814000", "145420.817000", "145420.819000", "145420.834000", "145420.843000", "145420.846000", "145420.849000", "145420.860000", "145420.863000", "145420.866000", "145420.869000", "145420.872000", "145420.875000", "145420.878000", "145420.881000", "145420.884000", "145420.887000", "145420.890000", "145420.893000", "145420.896000", "145420.899000", "145420.902000", "145420.905000", "145440.754000", "145440.757000", "145440.760000", "145440.763000", "145440.766000", "145440.769000", "145440.772000", "145440.775000", "145440.778000", "145440.781000", "145440.784000", "145440.787000", "145440.790000", "145440.793000", "145440.796000", "145440.799000", "145440.802000", "145440.805000", "145440.808000", "145440.811000", "145500.753000", "145500.756000", "145500.759000", "145500.762000", "145500.765000", "145500.768000", "145500.771000", "145500.773000", "145500.776000", "145500.779000", "145500.782000", "145500.785000", "145500.788000", "145500.797000", "145500.800000", "145500.803000", "145500.806000", "145500.818000", "145500.821000", "145500.824000", "145520.753000", "145520.756000", "145520.759000", "145520.762000", "145520.765000", "145520.768000", "145520.771000", "145520.774000", "145520.777000", "145520.779000", "145520.782000", "145520.786000", "145520.789000", "145520.794000", "145520.797000", "145520.801000", "145520.804000", "145520.807000", "145520.810000", "145520.813000", "145554.901000", "145554.904000", "145554.907000", "145554.910000", "145554.913000", "145554.916000", "145554.919000", "145554.922000", "145554.925000", "145554.929000", "145554.932000", "145554.935000", "145554.938000", "145554.942000", "145554.945000", "145554.948000", "145554.958000", "145554.962000", "145554.965000", "145554.968000", "145554.972000", "145554.976000", "145554.979000", "145554.982000", "145554.986000", "145554.989000", "145554.992000", "145554.997000"],
      "InstanceCreationTime": ["145420.786000", "145420.789000", "145420.796000", "145420.799000", "145420.802000", "145420.805000", "145420.808000", "145420.811000", "145420.814000", "145420.817000", "145420.819000", "145420.834000", "145420.843000", "145420.846000", "145420.849000", "145420.860000", "145420.863000", "145420.866000", "145420.869000", "145420.872000", "145420.875000", "145420.878000", "145420.881000", "145420.884000", "145420.887000", "145420.890000", "145420.893000", "145420.896000", "145420.899000", "145420.902000", "145420.905000", "145440.754000", "145440.757000", "145440.760000", "145440.763000", "145440.766000", "145440.769000", "145440.772000", "145440.775000", "145440.778000", "145440.781000", "145440.784000", "145440.787000", "145440.790000", "145440.793000", "145440.796000", "145440.799000", "145440.802000", "145440.805000", "145440.808000", "145440.811000", "145500.753000", "145500.756000", "145500.759000", "145500.762000", "145500.765000", "145500.768000", "145500.771000", "145500.773000", "145500.776000", "145500.779000", "145500.782000", "145500.785000", "145500.788000", "145500.797000", "145500.800000", "145500.803000", "145500.806000", "145500.818000", "145500.821000", "145500.824000", "145520.753000", "145520.756000", "145520.759000", "145520.762000", "145520.765000", "145520.768000", "145520.771000", "145520.774000", "145520.777000", "145520.779000", "145520.782000", "145520.786000", "145520.789000", "145520.794000", "145520.797000", "145520.801000", "145520.804000", "145520.807000", "145520.810000", "145520.813000", "145554.901000", "145554.904000", "145554.907000", "145554.910000", "145554.913000", "145554.916000", "145554.919000", "145554.922000", "145554.925000", "145554.929000", "145554.932000", "145554.935000", "145554.938000", "145554.942000", "145554.945000", "145554.948000", "145554.958000", "145554.962000", "145554.965000", "145554.968000", "145554.972000", "145554.976000", "145554.979000", "145554.982000", "145554.986000", "145554.989000", "145554.992000", "145554.997000"],
      "InstanceNumber": [1, 2, 3, 4, 5, 6, 7, 8, 9, 10, 11, 12, 13, 14, 15, 16, 17, 18, 19, 20, 21, 22, 23, 24, 25, 26, 27, 28, 29, 30, 31, 32, 33, 34, 35, 36, 37, 38, 39, 40, 41, 42, 43, 44, 45, 46, 47, 48, 49, 50, 51, 52, 53, 54, 55, 56, 57, 58, 59, 60, 61, 62, 63, 64, 65, 66, 67, 68, 69, 70, 71, 72, 73, 74, 75, 76, 77, 78, 79, 80, 81, 82, 83, 84, 85, 86, 87, 88, 89, 90, 91, 92, 93, 94, 95, 96, 97, 98, 99, 100, 101, 102, 103, 104, 105, 106, 107, 108, 109, 110, 111, 112, 113, 114, 115, 116, 117, 118, 119],
      "LargestImagePixelValue": [45651, 44265, 43124, 42924, 43510, 42680, 43161, 43416, 43554, 42582, 43048, 43525, 42853, 43106, 43419, 43480, 43130, 43808, 43331, 43263, 43677, 43291, 43648, 43389, 43267, 43124, 43469, 42964, 43177, 43111, 43462, 43416, 43165, 42711, 43154, 43424, 43126, 42799, 43323, 42922, 42921, 43598, 42907, 43001, 43000, 43025, 43209, 42210, 43066, 43298, 43275, 43806, 43123, 43402, 43048, 43261, 43137, 43264, 42964, 42854, 42520, 42667, 43533, 42596, 43140, 42941, 43063, 42886, 43119, 42857, 43181, 42609, 43198, 43272, 43340, 43039, 43139, 43489, 43152, 43096, 42878, 42637, 43095, 42416, 43161, 43163, 42444, 43162, 42741, 42909, 42755, 42609, 42261, 42256, 42640, 42480, 42808, 42379, 42739, 42569, 42607, 42792, 42477, 42089, 42053, 42673, 43169, 42532, 41914, 42011, 41765, 41849, 42234, 42950, 42543, 42462, 42419, 42414, 42310],
      "WindowCenter": [10184.0, 10132.0, 10131.0, 10119.0, 10112.0, 10090.0, 10102.0, 10093.0, 10090.0, 10085.0, 10109.0, 10120.0, 10115.0, 10123.0, 10113.0, 10102.0, 10103.0, 10118.0, 10119.0, 10116.0, 10113.0, 10104.0, 10113.0, 10118.0, 10104.0, 10103.0, 10121.0, 10116.0, 10114.0, 10113.0, 10118.0, 10111.0, 10096.0, 10090.0, 10104.0, 10096.0, 10088.0, 10087.0, 10108.0, 10098.0, 10086.0, 10084.0, 10077.0, 10083.0, 10104.0, 10113.0, 10104.0, 10091.0, 10102.0, 10094.0, 10101.0, 10105.0, 10093.0, 10109.0, 10109.0, 10096.0, 10094.0, 10093.0, 10084.0, 10076.0, 10096.0, 10115.0, 10119.0, 10098.0, 10111.0, 10107.0, 10111.0, 10105.0, 10121.0, 10118.0, 10107.0, 10091.0, 10097.0, 10087.0, 10079.0, 10080.0, 10107.0, 10107.0, 10091.0, 10081.0, 10089.0, 10099.0, 10104.0, 10099.0, 10116.0, 10114.0, 10093.0, 10106.0, 10107.0, 10114.0, 10117.0, 10111.0, 10102.0, 10111.0, 10108.0, 10091.0, 10087.0, 10108.0, 10126.0, 10118.0, 10104.0, 10100.0, 10081.0, 10072.0, 10092.0, 10102.0, 10098.0, 10084.0, 10076.0, 10069.0, 10065.0, 10100.0, 10110.0, 10103.0, 10085.0, 10076.0, 10075.0, 10065.0, 10056.0],
      "WindowWidth": [21536.0, 21405.0, 21397.0, 21370.0, 21343.0, 21297.0, 21321.0, 21299.0, 21289.0, 21283.0, 21335.0, 21361.0, 21351.0, 21372.0, 21346.0, 21320.0, 21324.0, 21357.0, 21358.0, 21357.0, 21347.0, 21327.0, 21348.0, 21356.0, 21326.0, 21323.0, 21365.0, 21356.0, 21346.0, 21346.0, 21355.0, 21338.0, 21306.0, 21301.0, 21329.0, 21308.0, 21297.0, 21292.0, 21349.0, 21318.0, 21285.0, 21280.0, 21265.0, 21278.0, 21329.0, 21346.0, 21324.0, 21298.0, 21319.0, 21300.0, 21316.0, 21321.0, 21298.0, 21336.0, 21334.0, 21307.0, 21302.0, 21298.0, 21277.0, 21261.0, 21309.0, 21351.0, 21357.0, 21313.0, 21341.0, 21335.0, 21338.0, 21327.0, 21365.0, 21367.0, 21334.0, 21302.0, 21313.0, 21289.0, 21268.0, 21273.0, 21340.0, 21335.0, 21298.0, 21274.0, 21293.0, 21315.0, 21322.0, 21313.0, 21351.0, 21346.0, 21301.0, 21330.0, 21331.0, 21347.0, 21357.0, 21345.0, 21322.0, 21345.0, 21334.0, 21297.0, 21285.0, 21335.0, 21377.0, 21356.0, 21326.0, 21317.0, 21273.0, 21256.0, 21305.0, 21324.0, 21308.0, 21280.0, 21264.0, 21250.0, 21238.0, 21318.0, 21346.0, 21332.0, 21290.0, 21272.0, 21269.0, 21245.0, 21224.0]
    },
    "slices": {}
  }
}