{
  "AcquisitionMatrixPE": 104,
  "AcquisitionNumber": 1,
  "AcquisitionTime": "14:27:25.992500",
  "BandwidthPerPixelPhaseEncode": 17.17,
  "BaseResolution": 104,
  "BodyPartExamined": "BRAIN",
  "CoilString": "HC1-7;NC1_2",
  "ConsistencyInfo": "N4_VE11C_LATEST_20160120",
  "ConversionSoftware": "dcm2niix",
  "ConversionSoftwareVersion": "v1.0.20190720  (JP2:OpenJPEG) GCC7.3.0",
  "DerivedVendorReportedEchoSpacing": 0.000560011,
  "DeviceSerialNumber": "167006",
  "DwellTime": 2.1e-06,
  "EchoTime": 0.037,
  "EchoTrainLength": 104,
  "EffectiveEchoSpacing": 0.000560011,
  "FlipAngle": 52,
  "ImageComments": "Unaliased_MB4_PE3_LB",
  "ImageOrientationPatientDICOM": [0.999065, 0.03456, 0.0259595, -0.0244166, 0.946824, -0.320825],
  "ImageType": [
    "ORIGINAL",
    "PRIMARY",
    "M",
    "MB",
    "ND",
    "MOSAIC"
],
  "ImagingFrequency": 123.259,
  "InPlanePhaseEncodingDirectionDICOM": "COL",
  "InstitutionAddress": "Chemin_Queen-Mary_4565_Montreal_District_CA_H3W_1W5",
  "InstitutionName": "IUGM",
  "InstitutionalDepartmentName": "Department",
  "MRAcquisitionType": "2D",
  "MagneticFieldStrength": 3,
  "Manufacturer": "Siemens",
  "ManufacturersModelName": "Prisma_fit",
  "Modality": "MR",
  "MultibandAccelerationFactor": 4,
  "PartialFourier": 1,
  "PatientPosition": "HFS",
  "PercentPhaseFOV": 100,
  "PhaseEncodingDirection": "j",
  "PhaseEncodingSteps": 104,
  "PhaseResolution": 1,
  "PixelBandwidth": 2290,
  "ProcedureStepDescription": "hcptrt_generic",
  "ProtocolName": "func_task-restingstate_run-1",
  "PulseSequenceDetails": "%CustomerSeq%_cmrr_mbep2d_bold",
  "ReceiveCoilActiveElements": "HC1-7;NC1,2",
  "ReceiveCoilName": "HeadNeck_64",
  "ReconMatrixPE": 104,
  "RepetitionTime": 1.49,
  "SAR": 0.0392029,
  "ScanOptions": "FS",
  "ScanningSequence": "EP",
  "SequenceName": "epfid2d1_104",
  "SequenceVariant": "SK_SS",
  "SeriesDescription": "func_task-restingstate_run-1",
  "SeriesNumber": 7,
  "ShimSetting": [641, -7194, -8821, 702, 117, 37, -24, -31],
  "SliceThickness": 2,
  "SliceTiming": [0, 0.785, 0.1, 0.8825, 0.1975, 0.98, 0.295, 1.08, 0.3925, 1.1775, 0.49, 1.275, 0.59, 1.3725, 0.6875, 0, 0.785, 0.1, 0.8825, 0.1975, 0.98, 0.295, 1.08, 0.3925, 1.1775, 0.49, 1.275, 0.59, 1.3725, 0.6875, 0, 0.785, 0.1, 0.8825, 0.1975, 0.98, 0.295, 1.08, 0.3925, 1.1775, 0.49, 1.275, 0.59, 1.3725, 0.6875, 0, 0.785, 0.1, 0.8825, 0.1975, 0.98, 0.295, 1.08, 0.3925, 1.1775, 0.49, 1.275, 0.59, 1.3725, 0.6875],
  "SoftwareVersions": "syngo_MR_E11",
  "SpacingBetweenSlices": 2,
  "StationName": "MRC35049",
  "TaskName": "restingstate",
  "TotalReadoutTime": 0.0576811,
  "TxRefAmp": 250.405,
  "WipMemBlock": "1d7df06a-21b2-4bb5-9d2b-9807d6b57f25||Sequence: R016 ve11c/master r/e634e98; Dec 19 2017 11:00:25 by eja",
  "dcmmeta_affine": [
    [-1.9981307983398438, -0.048833224922418594, 0.07133347541093826, 105.27405548095703],
    [-0.06911998987197876, 1.8936476707458496, -0.6397818922996521, -64.06088256835938],
    [0.05191892758011818, 0.6416492462158203, 1.8935656547546387, -61.996150970458984],
    [0.0, 0.0, 0.0, 1.0]
],
  "dcmmeta_reorient_transform": [
    [0.0, -1.0, 0.0, 103.0],
    [1.0, 0.0, 0.0, 0.0],
    [0.0, 0.0, 1.0, 0.0],
    [0.0, 0.0, 0.0, 1.0]
],
  "dcmmeta_shape": [104, 104, 60, 600],
  "dcmmeta_slice_dim": 2,
  "dcmmeta_version": 0.6,
  "global": {
    "const": {
      "AcquisitionMatrix": [104, 0, 0, 104],
      "AngioFlag": "N",
      "BitsAllocated": 16,
      "BitsStored": 16,
      "BodyPartExamined": "BRAIN",
      "Columns": 832,
      "EchoNumbers": 1,
      "EchoTime": 37.0,
      "EchoTrainLength": 104,
      "FlipAngle": 52.0,
      "HighBit": 15,
      "ImageOrientationPatient": [0.99906541971497, 0.03455999626606, 0.02595946432099, -0.0244166127848, 0.94682384660254, -0.3208246133402],
      "ImagePositionPatient": [-809.7885644593, -845.43227096296, 218.75554598838],
      "ImageType": [
        "ORIGINAL",
        "PRIMARY",
        "M",
        "MB",
        "ND",
        "MOSAIC"
],
      "ImagedNucleus": "1H",
      "ImagingFrequency": 123.259253,
      "InPlanePhaseEncodingDirection": "COL",
      "MRAcquisitionType": "2D",
      "MagneticFieldStrength": 3.0,
      "Manufacturer": "SIEMENS",
      "ManufacturerModelName": "Prisma_fit",
      "Modality": "MR",
      "NumberOfAverages": 1.0,
      "NumberOfPhaseEncodingSteps": 104,
      "PercentPhaseFieldOfView": 100.0,
      "PercentSampling": 100.0,
      "PerformedProcedureStepStartTime": "140825.708000",
      "PhotometricInterpretation": "MONOCHROME2",
      "PixelBandwidth": 2290.0,
      "PixelRepresentation": 0,
      "PixelSpacing": [2.0, 2.0],
      "ProtocolName": "func_task-restingstate_run-1",
      "RepetitionTime": 1490.0,
      "Rows": 832,
      "SAR": 0.03920289411921,
      "SamplesPerPixel": 1,
      "ScanOptions": "FS",
      "ScanningSequence": "EP",
      "SequenceName": "epfid2d1_104",
      "SequenceVariant": [
        "SK",
        "SS"
],
      "SeriesDescription": "func_task-restingstate_run-1",
      "SeriesNumber": 7,
      "SeriesTime": "142900.782000",
      "SliceLocation": -34.449614733977,
      "SliceThickness": 2.0,
      "SmallestImagePixelValue": 0,
      "SoftwareVersions": "syngo MR E11",
      "SpacingBetweenSlices": 2.0000000627189,
      "SpecificCharacterSet": "ISO_IR 100",
      "StudyID": "1",
      "StudyTime": "140825.622000",
      "TransmitCoilName": "Body",
      "VariableFlipAngleFlag": "N",
      "WindowCenterWidthExplanation": "Algo1",
      "dBdt": 0.0},
    "slices": {}
  },
  "time": {
    "samples": {
      "AcquisitionNumber": [1, 2, 3, 4, 5, 6, 7, 8, 9, 10, 11, 12, 13, 14, 15, 16, 17, 18, 19, 20, 21, 22, 23, 24, 25, 26, 27, 28, 29, 30, 31, 32, 33, 34, 35, 36, 37, 38, 39, 40, 41, 42, 43, 44, 45, 46, 47, 48, 49, 50, 51, 52, 53, 54, 55, 56, 57, 58, 59, 60, 61, 62, 63, 64, 65, 66, 67, 68, 69, 70, 71, 72, 73, 74, 75, 76, 77, 78, 79, 80, 81, 82, 83, 84, 85, 86, 87, 88, 89, 90, 91, 92, 93, 94, 95, 96, 97, 98, 99, 100, 101, 102, 103, 104, 105, 106, 107, 108, 109, 110, 111, 112, 113, 114, 115, 116, 117, 118, 119, 120, 121, 122, 123, 124, 125, 126, 127, 128, 129, 130, 131, 132, 133, 134, 135, 136, 137, 138, 139, 140, 141, 142, 143, 144, 145, 146, 147, 148, 149, 150, 151, 152, 153, 154, 155, 156, 157, 158, 159, 160, 161, 162, 163, 164, 165, 166, 167, 168, 169, 170, 171, 172, 173, 174, 175, 176, 177, 178, 179, 180, 181, 182, 183, 184, 185, 186, 187, 188, 189, 190, 191, 192, 193, 194, 195, 196, 197, 198, 199, 200, 201, 202, 203, 204, 205, 206, 207, 208, 209, 210, 211, 212, 213, 214, 215, 216, 217, 218, 219, 220, 221, 222, 223, 224, 225, 226, 227, 228, 229, 230, 231, 232, 233, 234, 235, 236, 237, 238, 239, 240, 241, 242, 243, 244, 245, 246, 247, 248, 249, 250, 251, 252, 253, 254, 255, 256, 257, 258, 259, 260, 261, 262, 263, 264, 265, 266, 267, 268, 269, 270, 271, 272, 273, 274, 275, 276, 277, 278, 279, 280, 281, 282, 283, 284, 285, 286, 287, 288, 289, 290, 291, 292, 293, 294, 295, 296, 297, 298, 299, 300, 301, 302, 303, 304, 305, 306, 307, 308, 309, 310, 311, 312, 313, 314, 315, 316, 317, 318, 319, 320, 321, 322, 323, 324, 325, 326, 327, 328, 329, 330, 331, 332, 333, 334, 335, 336, 337, 338, 339, 340, 341, 342, 343, 344, 345, 346, 347, 348, 349, 350, 351, 352, 353, 354, 355, 356, 357, 358, 359, 360, 361, 362, 363, 364, 365, 366, 367, 368, 369, 370, 371, 372, 373, 374, 375, 376, 377, 378, 379, 380, 381, 382, 383, 384, 385, 386, 387, 388, 389, 390, 391, 392, 393, 394, 395, 396, 397, 398, 399, 400, 401, 402, 403, 404, 405, 406, 407, 408, 409, 410, 411, 412, 413, 414, 415, 416, 417, 418, 419, 420, 421, 422, 423, 424, 425, 426, 427, 428, 429, 430, 431, 432, 433, 434, 435, 436, 437, 438, 439, 440, 441, 442, 443, 444, 445, 446, 447, 448, 449, 450, 451, 452, 453, 454, 455, 456, 457, 458, 459, 460, 461, 462, 463, 464, 465, 466, 467, 468, 469, 470, 471, 472, 473, 474, 475, 476, 477, 478, 479, 480, 481, 482, 483, 484, 485, 486, 487, 488, 489, 490, 491, 492, 493, 494, 495, 496, 497, 498, 499, 500, 501, 502, 503, 504, 505, 506, 507, 508, 509, 510, 511, 512, 513, 514, 515, 516, 517, 518, 519, 520, 521, 522, 523, 524, 525, 526, 527, 528, 529, 530, 531, 532, 533, 534, 535, 536, 537, 538, 539, 540, 541, 542, 543, 544, 545, 546, 547, 548, 549, 550, 551, 552, 553, 554, 555, 556, 557, 558, 559, 560, 561, 562, 563, 564, 565, 566, 567, 568, 569, 570, 571, 572, 573, 574, 575, 576, 577, 578, 579, 580, 581, 582, 583, 584, 585, 586, 587, 588, 589, 590, 591, 592, 593, 594, 595, 596, 597, 598, 599, 600],
      "AcquisitionTime": ["142725.992500", "142727.482500", "142728.972500", "142730.462500", "142731.952500", "142733.442500", "142734.932500", "142736.422500", "142737.912500", "142739.402500", "142740.892500", "142742.382500", "142743.872500", "142745.362500", "142746.852500", "142748.342500", "142749.832500", "142751.322500", "142752.812500", "142754.302500", "142755.792500", "142757.282500", "142758.772500", "142800.262500", "142801.752500", "142803.242500", "142804.732500", "142806.222500", "142807.712500", "142809.202500", "142810.692500", "142812.182500", "142813.672500", "142815.162500", "142816.652500", "142818.142500", "142819.632500", "142821.122500", "142822.612500", "142824.102500", "142825.592500", "142827.082500", "142828.572500", "142830.062500", "142831.552500", "142833.042500", "142834.532500", "142836.022500", "142837.512500", "142839.002500", "142840.492500", "142841.982500", "142843.472500", "142844.962500", "142846.452500", "142847.942500", "142849.432500", "142850.922500", "142852.412500", "142853.902500", "142855.392500", "142856.882500", "142858.372500", "142859.862500", "142901.352500", "142902.842500", "142904.332500", "142905.822500", "142907.312500", "142908.802500", "142910.292500", "142911.782500", "142913.272500", "142914.762500", "142916.252500", "142917.742500", "142919.232500", "142920.722500", "142922.212500", "142923.702500", "142925.192500", "142926.682500", "142928.172500", "142929.662500", "142931.152500", "142932.642500", "142934.132500", "142935.622500", "142937.112500", "142938.602500", "142940.092500", "142941.582500", "142943.072500", "142944.562500", "142946.052500", "142947.542500", "142949.032500", "142950.522500", "142952.012500", "142953.502500", "142954.992500", "142956.482500", "142957.972500", "142959.462500", "143000.952500", "143002.442500", "143003.932500", "143005.422500", "143006.912500", "143008.402500", "143009.892500", "143011.382500", "143012.872500", "143014.362500", "143015.852500", "143017.342500", "143018.832500", "143020.322500", "143021.812500", "143023.302500", "143024.792500", "143026.282500", "143027.772500", "143029.262500", "143030.752500", "143032.242500", "143033.732500", "143035.222500", "143036.712500", "143038.202500", "143039.692500", "143041.182500", "143042.672500", "143044.162500", "143045.652500", "143047.142500", "143048.632500", "143050.122500", "143051.612500", "143053.102500", "143054.592500", "143056.082500", "143057.572500", "143059.062500", "143100.552500", "143102.042500", "143103.532500", "143105.022500", "143106.512500", "143108.002500", "143109.492500", "143110.982500", "143112.472500", "143113.962500", "143115.452500", "143116.942500", "143118.432500", "143119.922500", "143121.412500", "143122.902500", "143124.392500", "143125.882500", "143127.372500", "143128.862500", "143130.352500", "143131.842500", "143133.332500", "143134.822500", "143136.312500", "143137.802500", "143139.292500", "143140.782500", "143142.272500", "143143.762500", "143145.252500", "143146.742500", "143148.232500", "143149.722500", "143151.212500", "143152.702500", "143154.192500", "143155.682500", "143157.172500", "143158.662500", "143200.152500", "143201.642500", "143203.132500", "143204.622500", "143206.112500", "143207.602500", "143209.092500", "143210.582500", "143212.072500", "143213.562500", "143215.052500", "143216.542500", "143218.032500", "143219.522500", "143221.012500", "143222.502500", "143223.992500", "143225.482500", "143226.972500", "143228.462500", "143229.952500", "143231.442500", "143232.932500", "143234.422500", "143235.912500", "143237.402500", "143238.892500", "143240.382500", "143241.872500", "143243.362500", "143244.852500", "143246.342500", "143247.832500", "143249.322500", "143250.812500", "143252.302500", "143253.792500", "143255.282500", "143256.772500", "143258.262500", "143259.752500", "143301.242500", "143302.732500", "143304.222500", "143305.712500", "143307.202500", "143308.692500", "143310.182500", "143311.672500", "143313.162500", "143314.652500", "143316.142500", "143317.632500", "143319.122500", "143320.612500", "143322.102500", "143323.592500", "143325.082500", "143326.572500", "143328.062500", "143329.552500", "143331.042500", "143332.532500", "143334.022500", "143335.512500", "143337.002500", "143338.492500", "143339.982500", "143341.472500", "143342.962500", "143344.452500", "143345.942500", "143347.432500", "143348.922500", "143350.412500", "143351.902500", "143353.392500", "143354.882500", "143356.372500", "143357.862500", "143359.352500", "143400.842500", "143402.332500", "143403.822500", "143405.312500", "143406.802500", "143408.292500", "143409.782500", "143411.272500", "143412.762500", "143414.252500", "143415.742500", "143417.232500", "143418.722500", "143420.212500", "143421.702500", "143423.192500", "143424.682500", "143426.172500", "143427.662500", "143429.152500", "143430.642500", "143432.132500", "143433.622500", "143435.112500", "143436.602500", "143438.092500", "143439.582500", "143441.072500", "143442.562500", "143444.052500", "143445.542500", "143447.032500", "143448.522500", "143450.012500", "143451.502500", "143452.992500", "143454.482500", "143455.972500", "143457.462500", "143458.952500", "143500.442500", "143501.932500", "143503.422500", "143504.912500", "143506.402500", "143507.892500", "143509.382500", "143510.872500", "143512.362500", "143513.852500", "143515.342500", "143516.832500", "143518.322500", "143519.812500", "143521.302500", "143522.792500", "143524.282500", "143525.772500", "143527.262500", "143528.752500", "143530.242500", "143531.732500", "143533.222500", "143534.712500", "143536.202500", "143537.692500", "143539.182500", "143540.672500", "143542.162500", "143543.652500", "143545.142500", "143546.632500", "143548.122500", "143549.612500", "143551.102500", "143552.592500", "143554.082500", "143555.572500", "143557.062500", "143558.552500", "143600.042500", "143601.532500", "143603.022500", "143604.512500", "143606.002500", "143607.492500", "143608.982500", "143610.472500", "143611.962500", "143613.452500", "143614.942500", "143616.432500", "143617.922500", "143619.412500", "143620.902500", "143622.392500", "143623.882500", "143625.372500", "143626.862500", "143628.352500", "143629.842500", "143631.332500", "143632.822500", "143634.312500", "143635.802500", "143637.292500", "143638.782500", "143640.272500", "143641.762500", "143643.252500", "143644.742500", "143646.232500", "143647.722500", "143649.212500", "143650.702500", "143652.192500", "143653.682500", "143655.172500", "143656.662500", "143658.152500", "143659.642500", "143701.132500", "143702.622500", "143704.112500", "143705.602500", "143707.092500", "143708.582500", "143710.072500", "143711.562500", "143713.052500", "143714.542500", "143716.032500", "143717.522500", "143719.012500", "143720.502500", "143721.992500", "143723.482500", "143724.972500", "143726.462500", "143727.952500", "143729.442500", "143730.932500", "143732.422500", "143733.912500", "143735.402500", "143736.892500", "143738.382500", "143739.872500", "143741.362500", "143742.852500", "143744.342500", "143745.832500", "143747.322500", "143748.812500", "143750.302500", "143751.792500", "143753.282500", "143754.772500", "143756.262500", "143757.752500", "143759.242500", "143800.732500", "143802.222500", "143803.712500", "143805.202500", "143806.692500", "143808.182500", "143809.672500", "143811.162500", "143812.652500", "143814.142500", "143815.632500", "143817.122500", "143818.612500", "143820.102500", "143821.592500", "143823.082500", "143824.572500", "143826.062500", "143827.552500", "143829.042500", "143830.532500", "143832.022500", "143833.512500", "143835.002500", "143836.492500", "143837.982500", "143839.472500", "143840.962500", "143842.452500", "143843.942500", "143845.432500", "143846.922500", "143848.412500", "143849.902500", "143851.392500", "143852.882500", "143854.372500", "143855.862500", "143857.352500", "143858.842500", "143900.332500", "143901.822500", "143903.312500", "143904.802500", "143906.292500", "143907.782500", "143909.272500", "143910.762500", "143912.252500", "143913.742500", "143915.232500", "143916.722500", "143918.212500", "143919.702500", "143921.192500", "143922.682500", "143924.172500", "143925.662500", "143927.152500", "143928.642500", "143930.132500", "143931.622500", "143933.112500", "143934.602500", "143936.092500", "143937.582500", "143939.072500", "143940.562500", "143942.052500", "143943.542500", "143945.032500", "143946.522500", "143948.012500", "143949.502500", "143950.992500", "143952.482500", "143953.972500", "143955.462500", "143956.952500", "143958.442500", "143959.932500", "144001.422500", "144002.912500", "144004.402500", "144005.892500", "144007.382500", "144008.872500", "144010.362500", "144011.852500", "144013.342500", "144014.832500", "144016.322500", "144017.812500", "144019.302500", "144020.792500", "144022.282500", "144023.772500", "144025.262500", "144026.752500", "144028.242500", "144029.732500", "144031.222500", "144032.712500", "144034.202500", "144035.692500", "144037.182500", "144038.672500", "144040.162500", "144041.652500", "144043.142500", "144044.632500", "144046.122500", "144047.612500", "144049.102500", "144050.592500", "144052.082500", "144053.572500", "144055.062500", "144056.552500", "144058.042500", "144059.532500", "144101.022500", "144102.512500", "144104.002500", "144105.492500", "144106.982500", "144108.472500", "144109.962500", "144111.452500", "144112.942500", "144114.432500", "144115.922500", "144117.412500", "144118.902500", "144120.392500", "144121.882500", "144123.372500", "144124.862500", "144126.352500", "144127.842500", "144129.332500", "144130.822500", "144132.312500", "144133.802500", "144135.292500", "144136.782500", "144138.272500", "144139.762500", "144141.252500", "144142.742500", "144144.232500", "144145.722500", "144147.212500", "144148.702500", "144150.192500", "144151.682500", "144153.172500", "144154.662500", "144156.152500", "144157.642500", "144159.132500", "144200.622500", "144202.112500", "144203.602500", "144205.092500", "144206.582500", "144208.072500", "144209.562500", "144211.052500", "144212.542500", "144214.032500", "144215.522500", "144217.012500", "144218.502500"],
      "ContentTime": ["142900.785000", "142900.789000", "142900.792000", "142900.795000", "142900.798000", "142900.801000", "142900.812000", "142900.815000", "142900.818000", "142900.821000", "142900.824000", "142900.827000", "142900.830000", "142900.833000", "142900.836000", "142900.839000", "142900.843000", "142900.846000", "142900.849000", "142900.852000", "142900.855000", "142900.858000", "142900.861000", "142900.864000", "142900.868000", "142900.871000", "142900.875000", "142900.878000", "142900.881000", "142900.884000", "142900.886000", "142900.889000", "142900.892000", "142900.895000", "142900.898000", "142900.901000", "142900.904000", "142900.907000", "142900.910000", "142920.753000", "142920.756000", "142920.759000", "142920.762000", "142920.774000", "142920.777000", "142920.779000", "142920.782000", "142920.785000", "142920.788000", "142920.791000", "142920.794000", "142920.797000", "142920.800000", "142920.803000", "142920.806000", "142920.814000", "142920.817000", "142920.820000", "142920.823000", "142920.826000", "142940.753000", "142940.756000", "142940.759000", "142940.762000", "142940.765000", "142940.768000", "142940.771000", "142940.774000", "142940.777000", "142940.780000", "142940.783000", "142940.786000", "142940.788000", "142940.791000", "142940.794000", "142940.797000", "142940.800000", "142940.803000", "142940.806000", "142940.809000", "143000.753000", "143000.756000", "143000.759000", "143000.762000", "143000.765000", "143000.768000", "143000.771000", "143000.774000", "143000.777000", "143000.780000", "143000.783000", "143000.786000", "143000.789000", "143000.792000", "143000.795000", "143000.797000", "143000.800000", "143000.803000", "143000.806000", "143000.809000", "143020.754000", "143020.757000", "143020.760000", "143020.763000", "143020.766000", "143020.769000", "143020.772000", "143020.775000", "143020.778000", "143020.781000", "143020.784000", "143020.787000", "143020.789000", "143020.792000", "143020.795000", "143020.799000", "143100.754000", "143100.757000", "143100.760000", "143100.763000", "143100.766000", "143100.769000", "143100.772000", "143100.775000", "143100.778000", "143100.781000", "143100.783000", "143100.786000", "143100.789000", "143100.792000", "143100.795000", "143100.798000", "143100.801000", "143100.804000", "143100.807000", "143100.810000", "143100.813000", "143100.816000", "143100.819000", "143100.822000", "143100.825000", "143100.828000", "143100.831000", "143140.753000", "143140.756000", "143140.759000", "143140.762000", "143140.765000", "143140.768000", "143140.771000", "143140.774000", "143140.777000", "143140.780000", "143140.783000", "143140.786000", "143140.789000", "143140.792000", "143140.795000", "143140.798000", "143140.801000", "143140.804000", "143140.807000", "143140.810000", "143140.813000", "143140.816000", "143140.819000", "143140.822000", "143140.825000", "143140.828000", "143140.831000", "143220.753000", "143220.756000", "143220.759000", "143220.762000", "143220.765000", "143220.768000", "143220.771000", "143220.774000", "143220.777000", "143220.780000", "143220.783000", "143220.786000", "143220.802000", "143220.805000", "143220.808000", "143220.812000", "143220.815000", "143220.818000", "143220.821000", "143220.824000", "143220.827000", "143220.830000", "143220.833000", "143220.836000", "143220.838000", "143220.842000", "143220.845000", "143300.754000", "143300.757000", "143300.760000", "143300.763000", "143300.766000", "143300.769000", "143300.772000", "143300.775000", "143300.778000", "143300.781000", "143300.784000", "143300.787000", "143300.790000", "143300.793000", "143300.796000", "143300.799000", "143300.802000", "143300.804000", "143300.807000", "143300.810000", "143300.813000", "143300.816000", "143300.819000", "143300.822000", "143300.825000", "143300.828000", "143300.831000", "143340.754000", "143340.761000", "143340.764000", "143340.767000", "143340.770000", "143340.773000", "143340.776000", "143340.779000", "143340.782000", "143340.785000", "143340.788000", "143340.791000", "143340.794000", "143340.797000", "143340.800000", "143340.803000", "143340.806000", "143340.809000", "143340.812000", "143340.815000", "143340.818000", "143340.821000", "143340.824000", "143340.827000", "143340.830000", "143340.833000", "143340.836000", "143420.753000", "143420.756000", "143420.759000", "143420.762000", "143420.771000", "143420.774000", "143420.777000", "143420.780000", "143420.783000", "143420.786000", "143420.789000", "143420.792000", "143420.795000", "143420.798000", "143420.801000", "143420.804000", "143420.806000", "143420.810000", "143420.812000", "143420.815000", "143420.818000", "143420.821000", "143420.824000", "143420.827000", "143420.830000", "143420.833000", "143420.836000", "143500.754000", "143500.757000", "143500.760000", "143500.763000", "143500.766000", "143500.769000", "143500.777000", "143500.780000", "143500.783000", "143500.786000", "143500.789000", "143500.792000", "143500.795000", "143500.799000", "143500.802000", "143500.805000", "143500.808000", "143500.811000", "143500.814000", "143500.817000", "143500.820000", "143500.823000", "143500.826000", "143500.829000", "143500.832000", "143500.835000", "143540.754000", "143540.763000", "143540.766000", "143540.769000", "143540.772000", "143540.775000", "143540.778000", "143540.781000", "143540.784000", "143540.787000", "143540.790000", "143540.793000", "143540.796000", "143540.799000", "143540.802000", "143540.805000", "143540.808000", "143540.811000", "143540.814000", "143540.817000", "143540.820000", "143540.823000", "143540.826000", "143540.829000", "143540.832000", "143540.835000", "143540.857000", "143620.753000", "143620.756000", "143620.759000", "143620.762000", "143620.765000", "143620.768000", "143620.771000", "143620.774000", "143620.777000", "143620.780000", "143620.783000", "143620.786000", "143620.789000", "143620.792000", "143620.794000", "143620.797000", "143620.807000", "143620.810000", "143620.813000", "143620.816000", "143620.820000", "143620.823000", "143620.826000", "143620.829000", "143620.832000", "143620.835000", "143620.838000", "143700.753000", "143700.756000", "143700.759000", "143700.762000", "143700.765000", "143700.768000", "143700.771000", "143700.789000", "143700.792000", "143700.795000", "143700.798000", "143700.801000", "143700.804000", "143700.807000", "143700.810000", "143700.814000", "143700.817000", "143700.819000", "143700.822000", "143700.825000", "143700.828000", "143700.831000", "143700.834000", "143700.837000", "143700.840000", "143700.843000", "143700.846000", "143740.754000", "143740.762000", "143740.771000", "143740.774000", "143740.777000", "143740.780000", "143740.783000", "143740.786000", "143740.789000", "143740.792000", "143740.795000", "143740.798000", "143740.801000", "143740.804000", "143740.807000", "143740.810000", "143740.813000", "143740.816000", "143740.819000", "143740.822000", "143740.825000", "143740.828000", "143740.831000", "143740.834000", "143740.837000", "143740.840000", "143740.843000", "143820.754000", "143820.757000", "143820.760000", "143820.763000", "143820.766000", "143820.769000", "143820.772000", "143820.775000", "143820.778000", "143820.781000", "143820.784000", "143820.787000", "143820.790000", "143820.793000", "143820.796000", "143820.799000", "143820.802000", "143820.805000", "143820.807000", "143820.810000", "143820.813000", "143820.816000", "143820.819000", "143820.822000", "143820.825000", "143820.828000", "143820.831000", "143900.753000", "143900.756000", "143900.759000", "143900.762000", "143900.765000", "143900.768000", "143900.771000", "143900.774000", "143900.777000", "143900.780000", "143900.783000", "143900.786000", "143900.789000", "143900.792000", "143900.795000", "143900.798000", "143900.801000", "143900.804000", "143900.807000", "143900.810000", "143900.813000", "143900.816000", "143900.820000", "143900.823000", "143900.827000", "143900.830000", "143940.754000", "143940.757000", "143940.760000", "143940.763000", "143940.766000", "143940.769000", "143940.772000", "143940.775000", "143940.778000", "143940.781000", "143940.784000", "143940.787000", "143940.790000", "143940.793000", "143940.796000", "143940.799000", "143940.802000", "143940.805000", "143940.808000", "143940.811000", "143940.814000", "143940.817000", "143940.820000", "143940.822000", "143940.825000", "143940.828000", "143940.831000", "144020.754000", "144020.757000", "144020.760000", "144020.763000", "144020.766000", "144020.769000", "144020.772000", "144020.775000", "144020.778000", "144020.781000", "144020.784000", "144020.787000", "144020.790000", "144020.793000", "144020.796000", "144020.799000", "144020.802000", "144020.805000", "144020.808000", "144020.811000", "144020.814000", "144020.817000", "144020.820000", "144020.823000", "144020.825000", "144020.828000", "144020.831000", "144100.753000", "144100.756000", "144100.759000", "144100.762000", "144100.765000", "144100.768000", "144100.771000", "144100.774000", "144100.777000", "144100.780000", "144100.783000", "144100.786000", "144100.789000", "144100.792000", "144100.795000", "144100.798000", "144100.801000", "144100.814000", "144100.817000", "144100.820000", "144100.822000", "144100.825000", "144100.828000", "144100.831000", "144100.834000", "144100.837000", "144100.840000", "144140.754000", "144140.757000", "144140.760000", "144140.763000", "144140.766000", "144140.769000", "144140.772000", "144140.775000", "144140.778000", "144140.781000", "144140.784000", "144140.787000", "144140.790000", "144140.793000", "144140.796000", "144140.799000", "144140.802000", "144140.805000", "144140.809000", "144140.812000", "144140.814000", "144140.818000", "144140.821000", "144140.824000", "144140.827000", "144140.829000", "144140.833000", "144220.533000", "144220.536000", "144220.540000", "144220.543000", "144220.548000", "144220.552000", "144220.556000", "144220.561000", "144220.565000", "144220.569000", "144220.574000", "144220.577000", "144220.582000", "144220.588000", "144220.592000", "144220.595000", "144220.598000", "144220.601000", "144220.604000", "144220.607000", "144220.610000", "144220.614000", "144220.617000", "144220.620000", "144220.623000", "144220.626000", "144220.630000"],
