{
  "AcquisitionMatrixPE": 104,
  "AcquisitionNumber": 1,
  "AcquisitionTime": "15:09:59.652500",
  "BandwidthPerPixelPhaseEncode": 17.17,
  "BaseResolution": 104,
  "BodyPartExamined": "BRAIN",
  "CoilString": "HC1-7;NC1_2",
  "ConsistencyInfo": "N4_VE11C_LATEST_20160120",
  "ConversionSoftware": "dcm2niix",
  "ConversionSoftwareVersion": "v1.0.20190720  (JP2:OpenJPEG) GCC7.3.0",
  "DerivedVendorReportedEchoSpacing": 0.000560011,
  "DeviceSerialNumber": "167006",
  "DwellTime": 2.1e-06,
  "EchoTime": 0.037,
  "EchoTrainLength": 104,
  "EffectiveEchoSpacing": 0.000560011,
  "FlipAngle": 52,
  "ImageComments": "Unaliased_MB4_PE3_LB",
  "ImageOrientationPatientDICOM": [0.999065, 0.03456, 0.0259595, -0.0244166, 0.946824, -0.320825],
  "ImageType": [
    "ORIGINAL",
    "PRIMARY",
    "M",
    "MB",
    "ND",
    "MOSAIC"
],
  "ImagingFrequency": 123.259,
  "InPlanePhaseEncodingDirectionDICOM": "COL",
  "InstitutionAddress": "Chemin_Queen-Mary_4565_Montreal_District_CA_H3W_1W5",
  "InstitutionName": "IUGM",
  "InstitutionalDepartmentName": "Department",
  "MRAcquisitionType": "2D",
  "MagneticFieldStrength": 3,
  "Manufacturer": "Siemens",
  "ManufacturersModelName": "Prisma_fit",
  "Modality": "MR",
  "MultibandAccelerationFactor": 4,
  "PartialFourier": 1,
  "PatientPosition": "HFS",
  "PercentPhaseFOV": 100,
  "PhaseEncodingDirection": "j",
  "PhaseEncodingSteps": 104,
  "PhaseResolution": 1,
  "PixelBandwidth": 2290,
  "ProcedureStepDescription": "hcptrt_generic",
  "ProtocolName": "func_task-language_run-1",
  "PulseSequenceDetails": "%CustomerSeq%_cmrr_mbep2d_bold",
  "ReceiveCoilActiveElements": "HC1-7;NC1,2",
  "ReceiveCoilName": "HeadNeck_64",
  "ReconMatrixPE": 104,
  "RepetitionTime": 1.49,
  "SAR": 0.0388541,
  "ScanOptions": "FS",
  "ScanningSequence": "EP",
  "SequenceName": "epfid2d1_104",
  "SequenceVariant": "SK_SS",
  "SeriesDescription": "func_task-language_run-1",
  "SeriesNumber": 21,
  "ShimSetting": [641, -7194, -8821, 702, 117, 37, -24, -31],
  "SliceThickness": 2,
  "SliceTiming": [0, 0.7825, 0.0975, 0.88, 0.195, 0.98, 0.2925, 1.0775, 0.39, 1.175, 0.49, 1.2725, 0.5875, 1.37, 0.685, 0, 0.7825, 0.0975, 0.88, 0.195, 0.98, 0.2925, 1.0775, 0.39, 1.175, 0.49, 1.2725, 0.5875, 1.37, 0.685, 0, 0.7825, 0.0975, 0.88, 0.195, 0.98, 0.2925, 1.0775, 0.39, 1.175, 0.49, 1.2725, 0.5875, 1.37, 0.685, 0, 0.7825, 0.0975, 0.88, 0.195, 0.98, 0.2925, 1.0775, 0.39, 1.175, 0.49, 1.2725, 0.5875, 1.37, 0.685],
  "SoftwareVersions": "syngo_MR_E11",
  "SpacingBetweenSlices": 2,
  "StationName": "MRC35049",
  "TaskName": "language",
  "TotalReadoutTime": 0.0576811,
  "TxRefAmp": 250.405,
  "WipMemBlock": "774c2e53-6965-43b6-a7e3-10559430cd54||Sequence: R016 ve11c/master r/e634e98; Dec 19 2017 11:00:25 by eja",
  "dcmmeta_affine": [
    [-1.9981307983398438, -0.048833224922418594, 0.07133347541093826, 105.27405548095703],
    [-0.06911998987197876, 1.8936476707458496, -0.6397818922996521, -64.06088256835938],
    [0.05191892758011818, 0.6416492462158203, 1.8935656547546387, -61.996150970458984],
    [0.0, 0.0, 0.0, 1.0]
],
  "dcmmeta_reorient_transform": [
    [0.0, -1.0, 0.0, 103.0],
    [1.0, 0.0, 0.0, 0.0],
    [0.0, 0.0, 1.0, 0.0],
    [0.0, 0.0, 0.0, 1.0]
],
  "dcmmeta_shape": [104, 104, 60, 159],
  "dcmmeta_slice_dim": 2,
  "dcmmeta_version": 0.6,
  "global": {
    "const": {
      "AcquisitionMatrix": [104, 0, 0, 104],
      "AngioFlag": "N",
      "BitsAllocated": 16,
      "BitsStored": 16,
      "BodyPartExamined": "BRAIN",
      "Columns": 832,
      "EchoNumbers": 1,
      "EchoTime": 37.0,
      "EchoTrainLength": 104,
      "FlipAngle": 52.0,
      "HighBit": 15,
      "ImageOrientationPatient": [0.99906541971497, 0.03455999626606, 0.02595946432099, -0.0244166127848, 0.94682384660254, -0.3208246133402],
      "ImagePositionPatient": [-809.7885644593, -845.43227096296, 218.75554598838],
      "ImageType": [
        "ORIGINAL",
        "PRIMARY",
        "M",
        "MB",
        "ND",
        "MOSAIC"
],
      "ImagedNucleus": "1H",
      "ImagingFrequency": 123.259267,
      "InPlanePhaseEncodingDirection": "COL",
      "MRAcquisitionType": "2D",
      "MagneticFieldStrength": 3.0,
      "Manufacturer": "SIEMENS",
      "ManufacturerModelName": "Prisma_fit",
      "Modality": "MR",
      "NumberOfAverages": 1.0,
      "NumberOfPhaseEncodingSteps": 104,
      "PercentPhaseFieldOfView": 100.0,
      "PercentSampling": 100.0,
      "PerformedProcedureStepStartTime": "140825.708000",
      "PhotometricInterpretation": "MONOCHROME2",
      "PixelBandwidth": 2290.0,
      "PixelRepresentation": 0,
      "PixelSpacing": [2.0, 2.0],
      "ProtocolName": "func_task-language_run-1",
      "RepetitionTime": 1490.0,
      "Rows": 832,
      "SAR": 0.03885407651337,
      "SamplesPerPixel": 1,
      "ScanOptions": "FS",
      "ScanningSequence": "EP",
      "SequenceName": "epfid2d1_104",
      "SequenceVariant": [
        "SK",
        "SS"
],
      "SeriesDescription": "func_task-language_run-1",
      "SeriesNumber": 21,
      "SeriesTime": "151108.450000",
      "SliceLocation": -34.449614733977,
      "SliceThickness": 2.0,
      "SmallestImagePixelValue": 0,
      "SoftwareVersions": "syngo MR E11",
      "SpacingBetweenSlices": 2.0000000627189,
      "SpecificCharacterSet": "ISO_IR 100",
      "StudyID": "1",
      "StudyTime": "140825.622000",
      "TransmitCoilName": "Body",
      "VariableFlipAngleFlag": "N",
      "WindowCenterWidthExplanation": "Algo1",
      "dBdt": 0.0},
    "slices": {}
  },
  "time": {
    "samples": {
      "AcquisitionNumber": [1, 2, 3, 4, 5, 6, 7, 8, 9, 10, 11, 12, 13, 14, 15, 16, 17, 18, 19, 20, 21, 22, 23, 24, 25, 26, 27, 28, 29, 30, 31, 32, 33, 34, 35, 36, 37, 38, 39, 40, 41, 42, 43, 44, 45, 46, 47, 48, 49, 50, 51, 52, 53, 54, 55, 56, 57, 58, 59, 60, 61, 62, 63, 64, 65, 66, 67, 68, 69, 70, 71, 72, 73, 74, 75, 76, 77, 78, 79, 80, 81, 82, 83, 84, 85, 86, 87, 88, 89, 90, 91, 92, 93, 94, 95, 96, 97, 98, 99, 100, 101, 102, 103, 104, 105, 106, 107, 108, 109, 110, 111, 112, 113, 114, 115, 116, 117, 118, 119, 120, 121, 122, 123, 124, 125, 126, 127, 128, 129, 130, 131, 132, 133, 134, 135, 136, 137, 138, 139, 140, 141, 142, 143, 144, 145, 146, 147, 148, 149, 150, 151, 152, 153, 154, 155, 156, 157, 158, 159],
      "AcquisitionTime": ["150959.652500", "151001.142500", "151002.632500", "151004.122500", "151005.612500", "151007.102500", "151008.592500", "151010.082500", "151011.572500", "151013.062500", "151014.552500", "151016.042500", "151017.532500", "151019.022500", "151020.512500", "151022.002500", "151023.492500", "151024.982500", "151026.472500", "151027.962500", "151029.452500", "151030.942500", "151032.432500", "151033.922500", "151035.412500", "151036.902500", "151038.392500", "151039.882500", "151041.372500", "151042.862500", "151044.352500", "151045.842500", "151047.332500", "151048.822500", "151050.312500", "151051.802500", "151053.292500", "151054.782500", "151056.272500", "151057.762500", "151059.252500", "151100.742500", "151102.232500", "151103.722500", "151105.212500", "151106.702500", "151108.192500", "151109.682500", "151111.172500", "151112.662500", "151114.152500", "151115.642500", "151117.132500", "151118.622500", "151120.112500", "151121.602500", "151123.092500", "151124.582500", "151126.072500", "151127.562500", "151129.052500", "151130.542500", "151132.032500", "151133.522500", "151135.012500", "151136.502500", "151137.992500", "151139.482500", "151140.972500", "151142.462500", "151143.952500", "151145.442500", "151146.932500", "151148.422500", "151149.912500", "151151.402500", "151152.892500", "151154.382500", "151155.872500", "151157.362500", "151158.852500", "151200.342500", "151201.832500", "151203.322500", "151204.812500", "151206.302500", "151207.792500", "151209.282500", "151210.772500", "151212.262500", "151213.752500", "151215.242500", "151216.732500", "151218.222500", "151219.712500", "151221.202500", "151222.692500", "151224.182500", "151225.672500", "151227.162500", "151228.652500", "151230.142500", "151231.632500", "151233.122500", "151234.612500", "151236.102500", "151237.592500", "151239.082500", "151240.572500", "151242.062500", "151243.552500", "151245.042500", "151246.532500", "151248.022500", "151249.512500", "151251.002500", "151252.492500", "151253.982500", "151255.472500", "151256.962500", "151258.452500", "151259.942500", "151301.432500", "151302.922500", "151304.412500", "151305.902500", "151307.392500", "151308.882500", "151310.372500", "151311.862500", "151313.352500", "151314.842500", "151316.332500", "151317.822500", "151319.312500", "151320.802500", "151322.292500", "151323.782500", "151325.272500", "151326.762500", "151328.252500", "151329.742500", "151331.232500", "151332.722500", "151334.212500", "151335.702500", "151337.192500", "151338.682500", "151340.172500", "151341.662500", "151343.152500", "151344.642500", "151346.132500", "151347.622500", "151349.112500", "151350.602500", "151352.092500", "151353.582500", "151355.072500"],
      "ContentTime": ["151108.452000", "151108.456000", "151108.459000", "151108.462000", "151108.465000", "151108.468000", "151108.471000", "151108.474000", "151108.476000", "151108.479000", "151108.482000", "151108.509000", "151108.512000", "151108.514000", "151128.418000", "151128.421000", "151128.424000", "151128.427000", "151128.430000", "151128.433000", "151128.436000", "151128.438000", "151128.447000", "151128.450000", "151128.453000", "151128.456000", "151128.459000", "151128.462000", "151128.465000", "151128.468000", "151128.471000", "151128.474000", "151128.476000", "151128.479000", "151148.418000", "151148.421000", "151148.424000", "151148.427000", "151148.430000", "151148.433000", "151148.436000", "151148.439000", "151148.441000", "151148.444000", "151148.447000", "151148.451000", "151148.454000", "151148.457000", "151148.460000", "151148.463000", "151148.466000", "151148.469000", "151148.472000", "151148.475000", "151208.417000", "151208.420000", "151208.423000", "151208.426000", "151208.429000", "151208.432000", "151208.435000", "151208.437000", "151208.440000", "151208.443000", "151208.446000", "151208.449000", "151208.452000", "151208.455000", "151208.458000", "151208.461000", "151208.464000", "151208.467000", "151208.470000", "151208.473000", "151228.417000", "151228.420000", "151228.423000", "151228.426000", "151228.429000", "151228.432000", "151228.439000", "151228.442000", "151228.445000", "151228.448000", "151228.451000", "151228.454000", "151228.457000", "151228.460000", "151228.463000", "151228.466000", "151228.469000", "151228.472000", "151228.475000", "151228.478000", "151308.417000", "151308.420000", "151308.423000", "151308.426000", "151308.429000", "151308.432000", "151308.435000", "151308.438000", "151308.441000", "151308.444000", "151308.447000", "151308.450000", "151308.453000", "151308.456000", "151308.459000", "151308.462000", "151308.465000", "151308.467000", "151308.470000", "151308.474000", "151308.477000", "151308.480000", "151308.483000", "151308.486000", "151308.489000", "151308.491000", "151308.494000", "151308.497000", "151308.500000", "151308.503000", "151308.506000", "151308.509000", "151348.418000", "151348.421000", "151348.424000", "151348.427000", "151348.430000", "151348.433000", "151348.436000", "151348.439000", "151348.442000", "151348.445000", "151348.447000", "151348.450000", "151348.453000", "151348.456000", "151348.459000", "151348.462000", "151348.465000", "151348.468000", "151348.471000", "151348.474000", "151348.477000", "151348.480000", "151348.489000", "151348.492000", "151348.495000", "151348.498000", "151348.501000", "151356.766000", "151356.770000", "151356.773000", "151356.776000", "151356.779000", "151356.782000"],
      "InstanceCreationTime": ["151108.452000", "151108.456000", "151108.459000", "151108.462000", "151108.465000", "151108.468000", "151108.471000", "151108.474000", "151108.476000", "151108.479000", "151108.482000", "151108.509000", "151108.512000", "151108.514000", "151128.418000", "151128.421000", "151128.424000", "151128.427000", "151128.430000", "151128.433000", "151128.436000", "151128.438000", "151128.447000", "151128.450000", "151128.453000", "151128.456000", "151128.459000", "151128.462000", "151128.465000", "151128.468000", "151128.471000", "151128.474000", "151128.476000", "151128.479000", "151148.418000", "151148.421000", "151148.424000", "151148.427000", "151148.430000", "151148.433000", "151148.436000", "151148.439000", "151148.441000", "151148.444000", "151148.447000", "151148.451000", "151148.454000", "151148.457000", "151148.460000", "151148.463000", "151148.466000", "151148.469000", "151148.472000", "151148.475000", "151208.417000", "151208.420000", "151208.423000", "151208.426000", "151208.429000", "151208.432000", "151208.435000", "151208.437000", "151208.440000", "151208.443000", "151208.446000", "151208.449000", "151208.452000", "151208.455000", "151208.458000", "151208.461000", "151208.464000", "151208.467000", "151208.470000", "151208.473000", "151228.417000", "151228.420000", "151228.423000", "151228.426000", "151228.429000", "151228.432000", "151228.439000", "151228.442000", "151228.445000", "151228.448000", "151228.451000", "151228.454000", "151228.457000", "151228.460000", "151228.463000", "151228.466000", "151228.469000", "151228.472000", "151228.475000", "151228.478000", "151308.417000", "151308.420000", "151308.423000", "151308.426000", "151308.429000", "151308.432000", "151308.435000", "151308.438000", "151308.441000", "151308.444000", "151308.447000", "151308.450000", "151308.453000", "151308.456000", "151308.459000", "151308.462000", "151308.465000", "151308.467000", "151308.470000", "151308.474000", "151308.477000", "151308.480000", "151308.483000", "151308.486000", "151308.489000", "151308.491000", "151308.494000", "151308.497000", "151308.500000", "151308.503000", "151308.506000", "151308.509000", "151348.418000", "151348.421000", "151348.424000", "151348.427000", "151348.430000", "151348.433000", "151348.436000", "151348.439000", "151348.442000", "151348.445000", "151348.447000", "151348.450000", "151348.453000", "151348.456000", "151348.459000", "151348.462000", "151348.465000", "151348.468000", "151348.471000", "151348.474000", "151348.477000", "151348.480000", "151348.489000", "151348.492000", "151348.495000", "151348.498000", "151348.501000", "151356.766000", "151356.770000", "151356.773000", "151356.776000", "151356.779000", "151356.782000"],
      "InstanceNumber": [1, 2, 3, 4, 5, 6, 7, 8, 9, 10, 11, 12, 13, 14, 15, 16, 17, 18, 19, 20, 21, 22, 23, 24, 25, 26, 27, 28, 29, 30, 31, 32, 33, 34, 35, 36, 37, 38, 39, 40, 41, 42, 43, 44, 45, 46, 47, 48, 49, 50, 51, 52, 53, 54, 55, 56, 57, 58, 59, 60, 61, 62, 63, 64, 65, 66, 67, 68, 69, 70, 71, 72, 73, 74, 75, 76, 77, 78, 79, 80, 81, 82, 83, 84, 85, 86, 87, 88, 89, 90, 91, 92, 93, 94, 95, 96, 97, 98, 99, 100, 101, 102, 103, 104, 105, 106, 107, 108, 109, 110, 111, 112, 113, 114, 115, 116, 117, 118, 119, 120, 121, 122, 123, 124, 125, 126, 127, 128, 129, 130, 131, 132, 133, 134, 135, 136, 137, 138, 139, 140, 141, 142, 143, 144, 145, 146, 147, 148, 149, 150, 151, 152, 153, 154, 155, 156, 157, 158, 159],
      "LargestImagePixelValue": [44477, 43026, 42571, 41539, 41911, 41621, 42015, 41946, 41867, 41335, 41927, 42075, 41748, 42134, 42027, 41699, 41774, 41713, 42814, 42371, 41344, 41328, 41554, 42270, 41739, 42172, 41687, 41670, 41387, 41413, 41518, 41281, 42420, 42174, 42076, 42014, 42263, 42008, 42040, 41936, 41878, 41842, 41932, 42059, 41915, 41848, 42001, 41737, 41843, 42105, 41526, 41634, 42061, 41586, 42058, 41567, 41656, 41785, 41751, 41762, 41577, 41821, 41306, 41558, 41755, 41928, 41945, 41434, 41549, 41075, 41527, 41588, 41376, 41535, 41518, 41649, 41709, 41684, 41361, 41630, 41174, 41401, 41389, 41542, 41741, 41722, 41892, 41656, 41746, 42136, 41638, 41671, 41814, 41496, 42755, 43212, 43505, 43329, 42958, 42981, 42516, 42691, 43470, 43497, 42768, 42297, 42660, 43179, 43170, 42979, 43048, 43261, 43009, 42791, 43414, 43372, 43309, 43691, 43983, 42459, 42588, 42771, 43060, 43345, 43206, 43041, 42608, 42847, 41713, 42109, 41800, 42238, 41806, 41742, 41920, 41561, 41448, 41530, 41545, 41733, 41589, 41817, 41558, 41888, 42179, 41951, 41609, 42002, 42232, 42118, 42331, 42229, 41910, 41620, 41865, 42082, 41563, 41919, 42395],
      "WindowCenter": [10182.0, 10122.0, 10091.0, 10076.0, 10106.0, 10110.0, 10109.0, 10109.0, 10101.0, 10061.0, 10055.0, 10069.0, 10100.0, 10110.0, 10087.0, 10068.0, 10070.0, 10075.0, 10084.0, 10065.0, 10075.0, 10088.0, 10078.0, 10069.0, 10074.0, 10093.0, 10075.0, 10057.0, 10056.0, 10084.0, 10106.0, 10090.0, 10065.0, 10045.0, 10041.0, 10060.0, 10086.0, 10075.0, 10075.0, 10070.0, 10054.0, 10052.0, 10069.0, 10072.0, 10087.0, 10102.0, 10094.0, 10086.0, 10084.0, 10085.0, 10076.0, 10076.0, 10081.0, 10094.0, 10110.0, 10086.0, 10068.0, 10071.0, 10074.0, 10100.0, 10104.0, 10096.0, 10087.0, 10096.0, 10104.0, 10102.0, 10111.0, 10090.0, 10086.0, 10098.0, 10111.0, 10105.0, 10106.0, 10104.0, 10095.0, 10105.0, 10104.0, 10113.0, 10108.0, 10107.0, 10089.0, 10073.0, 10079.0, 10093.0, 10095.0, 10105.0, 10095.0, 10078.0, 10084.0, 10099.0, 10079.0, 10086.0, 10110.0, 10116.0, 10109.0, 10107.0, 10112.0, 10113.0, 10089.0, 10064.0, 10067.0, 10077.0, 10095.0, 10093.0, 10081.0, 10084.0, 10062.0, 10090.0, 10111.0, 10107.0, 10096.0, 10105.0, 10108.0, 10106.0, 10103.0, 10104.0, 10102.0, 10108.0, 10110.0, 10098.0, 10117.0, 10116.0, 10102.0, 10100.0, 10095.0, 10096.0, 10120.0, 10144.0, 10115.0, 10112.0, 10085.0, 10084.0, 10067.0, 10065.0, 10084.0, 10097.0, 10096.0, 10090.0, 10079.0, 10060.0, 10054.0, 10065.0, 10068.0, 10067.0, 10081.0, 10084.0, 10074.0, 10080.0, 10088.0, 10077.0, 10070.0, 10086.0, 10101.0, 10077.0, 10073.0, 10062.0, 10057.0, 10081.0, 10093.0],
      "WindowWidth": [21534.0, 21385.0, 21307.0, 21272.0, 21338.0, 21346.0, 21338.0, 21340.0, 21320.0, 21235.0, 21213.0, 21246.0, 21321.0, 21342.0, 21292.0, 21245.0, 21246.0, 21268.0, 21275.0, 21237.0, 21263.0, 21302.0, 21271.0, 21243.0, 21259.0, 21306.0, 21263.0, 21223.0, 21219.0, 21283.0, 21334.0, 21295.0, 21232.0, 21196.0, 21179.0, 21226.0, 21286.0, 21262.0, 21263.0, 21258.0, 21210.0, 21206.0, 21245.0, 21254.0, 21287.0, 21327.0, 21307.0, 21291.0, 21285.0, 21291.0, 21267.0, 21269.0, 21275.0, 21309.0, 21343.0, 21290.0, 21251.0, 21253.0, 21264.0, 21324.0, 21333.0, 21315.0, 21294.0, 21316.0, 21337.0, 21329.0, 21353.0, 21304.0, 21293.0, 21323.0, 21346.0, 21333.0, 21337.0, 21333.0, 21310.0, 21343.0, 21333.0, 21356.0, 21346.0, 21343.0, 21300.0, 21266.0, 21281.0, 21308.0, 21309.0, 21338.0, 21310.0, 21271.0, 21288.0, 21317.0, 21277.0, 21293.0, 21345.0, 21362.0, 21336.0, 21338.0, 21342.0, 21343.0, 21285.0, 21229.0, 21234.0, 21260.0, 21299.0, 21292.0, 21274.0, 21299.0, 21231.0, 21291.0, 21341.0, 21334.0, 21303.0, 21332.0, 21335.0, 21325.0, 21316.0, 21318.0, 21315.0, 21331.0, 21334.0, 21315.0, 21357.0, 21353.0, 21324.0, 21320.0, 21301.0, 21306.0, 21370.0, 21416.0, 21356.0, 21350.0, 21283.0, 21283.0, 21247.0, 21239.0, 21292.0, 21321.0, 21310.0, 21298.0, 21274.0, 21230.0, 21213.0, 21241.0, 21253.0, 21246.0, 21278.0, 21288.0, 21258.0, 21272.0, 21290.0, 21260.0, 21246.0, 21282.0, 21329.0, 21271.0, 21258.0, 21232.0, 21224.0, 21281.0, 21307.0]
    },
    "slices": {}
  }
}