{
  "AcquisitionMatrixPE": 104,
  "AcquisitionNumber": 1,
  "AcquisitionTime": "16:25:32.942500",
  "BandwidthPerPixelPhaseEncode": 17.17,
  "BaseResolution": 104,
  "BodyPartExamined": "BRAIN",
  "CoilString": "HC1-7;NC1_2",
  "ConsistencyInfo": "N4_VE11C_LATEST_20160120",
  "ConversionSoftware": "dcm2niix",
  "ConversionSoftwareVersion": "v1.0.20190720  (JP2:OpenJPEG) GCC7.3.0",
  "DerivedVendorReportedEchoSpacing": 0.000560011,
  "DeviceSerialNumber": "167006",
  "DwellTime": 2.1e-06,
  "EchoTime": 0.037,
  "EchoTrainLength": 104,
  "EffectiveEchoSpacing": 0.000560011,
  "FlipAngle": 52,
  "ImageComments": "Unaliased_MB4_PE3_LB",
  "ImageOrientationPatientDICOM": [0.998817, 0.0424621, 0.0237025, -0.0312146, 0.93356, -0.35706],
  "ImageType": [
    "ORIGINAL",
    "PRIMARY",
    "M",
    "MB",
    "ND",
    "MOSAIC"
],
  "ImagingFrequency": 123.26,
  "InPlanePhaseEncodingDirectionDICOM": "COL",
  "InstitutionAddress": "Chemin_Queen-Mary_4565_Montreal_District_CA_H3W_1W5",
  "InstitutionName": "IUGM",
  "InstitutionalDepartmentName": "Department",
  "MRAcquisitionType": "2D",
  "MagneticFieldStrength": 3,
  "Manufacturer": "Siemens",
  "ManufacturersModelName": "Prisma_fit",
  "Modality": "MR",
  "MultibandAccelerationFactor": 4,
  "PartialFourier": 1,
  "PatientPosition": "HFS",
  "PercentPhaseFOV": 100,
  "PhaseEncodingDirection": "j",
  "PhaseEncodingSteps": 104,
  "PhaseResolution": 1,
  "PixelBandwidth": 2290,
  "ProcedureStepDescription": "hcptrt_generic",
  "ProtocolName": "func_task-social_run-1",
  "PulseSequenceDetails": "%CustomerSeq%_cmrr_mbep2d_bold",
  "ReceiveCoilActiveElements": "HC1-7;NC1,2",
  "ReceiveCoilName": "HeadNeck_64",
  "ReconMatrixPE": 104,
  "RepetitionTime": 1.49,
  "SAR": 0.0402835,
  "ScanOptions": "FS",
  "ScanningSequence": "EP",
  "SequenceName": "epfid2d1_104",
  "SequenceVariant": "SK_SS",
  "SeriesDescription": "func_task-social_run-1",
  "SeriesNumber": 9,
  "ShimSetting": [632, -7164, -8797, 674, 64, 87, -13, -17],
  "SliceThickness": 2,
  "SliceTiming": [0, 0.785, 0.0975, 0.8825, 0.195, 0.98, 0.295, 1.0775, 0.3925, 1.175, 0.49, 1.275, 0.5875, 1.3725, 0.685, 0, 0.785, 0.0975, 0.8825, 0.195, 0.98, 0.295, 1.0775, 0.3925, 1.175, 0.49, 1.275, 0.5875, 1.3725, 0.685, 0, 0.785, 0.0975, 0.8825, 0.195, 0.98, 0.295, 1.0775, 0.3925, 1.175, 0.49, 1.275, 0.5875, 1.3725, 0.685, 0, 0.785, 0.0975, 0.8825, 0.195, 0.98, 0.295, 1.0775, 0.3925, 1.175, 0.49, 1.275, 0.5875, 1.3725, 0.685],
  "SoftwareVersions": "syngo_MR_E11",
  "SpacingBetweenSlices": 2,
  "StationName": "MRC35049",
  "TaskName": "social",
  "TotalReadoutTime": 0.0576811,
  "TxRefAmp": 255.718,
  "WipMemBlock": "d9aaddc4-914a-4b16-b8ec-351a60212e83||Sequence: R016 ve11c/master r/e634e98; Dec 19 2017 11:00:25 by eja",
  "dcmmeta_affine": [
    [-1.9976338148117065, -0.06242922320961952, 0.07457835972309113, 107.7426986694336],
    [-0.08492414653301239, 1.867119550704956, -0.7117951512336731, -54.74625778198242],
    [0.047404952347278595, 0.7141197919845581, 1.8675613403320312, -55.59830856323242],
    [0.0, 0.0, 0.0, 1.0]
],
  "dcmmeta_reorient_transform": [
    [0.0, -1.0, 0.0, 103.0],
    [1.0, 0.0, 0.0, 0.0],
    [0.0, 0.0, 1.0, 0.0],
    [0.0, 0.0, 0.0, 1.0]
],
  "dcmmeta_shape": [104, 104, 60, 139],
  "dcmmeta_slice_dim": 2,
  "dcmmeta_version": 0.6,
  "global": {
    "const": {
      "AcquisitionMatrix": [104, 0, 0, 104],
      "AngioFlag": "N",
      "BitsAllocated": 16,
      "BitsStored": 16,
      "BodyPartExamined": "BRAIN",
      "Columns": 832,
      "EchoNumbers": 1,
      "EchoTime": 37.0,
      "EchoTrainLength": 104,
      "FlipAngle": 52.0,
      "HighBit": 15,
      "ImageOrientationPatient": [0.99881688258057, 0.04246207354882, 0.02370247628338, -0.0312146118302, 0.93355979418259, -0.3570598811041],
      "ImagePositionPatient": [-805.72694029372, -848.11098115346, 260.64021650844],
      "ImageType": [
        "ORIGINAL",
        "PRIMARY",
        "M",
        "MB",
        "ND",
        "MOSAIC"
],
      "ImagedNucleus": "1H",
      "ImagingFrequency": 123.259516,
      "InPlanePhaseEncodingDirection": "COL",
      "MRAcquisitionType": "2D",
      "MagneticFieldStrength": 3.0,
      "Manufacturer": "SIEMENS",
      "ManufacturerModelName": "Prisma_fit",
      "Modality": "MR",
      "NumberOfAverages": 1.0,
      "NumberOfPhaseEncodingSteps": 104,
      "PercentPhaseFieldOfView": 100.0,
      "PercentSampling": 100.0,
      "PerformedProcedureStepStartTime": "160634.278000",
      "PhotometricInterpretation": "MONOCHROME2",
      "PixelBandwidth": 2290.0,
      "PixelRepresentation": 0,
      "PixelSpacing": [2.0, 2.0],
      "ProtocolName": "func_task-social_run-1",
      "RepetitionTime": 1490.0,
      "Rows": 832,
      "SAR": 0.04028345704368,
      "SamplesPerPixel": 1,
      "ScanOptions": "FS",
      "ScanningSequence": "EP",
      "SequenceName": "epfid2d1_104",
      "SequenceVariant": [
        "SK",
        "SS"
],
      "SeriesDescription": "func_task-social_run-1",
      "SeriesNumber": 9,
      "SeriesTime": "162703.869000",
      "SliceLocation": -28.414932933051,
      "SliceThickness": 2.0,
      "SmallestImagePixelValue": 0,
      "SoftwareVersions": "syngo MR E11",
      "SpacingBetweenSlices": 1.9999999414263,
      "SpecificCharacterSet": "ISO_IR 100",
      "StudyID": "1",
      "StudyTime": "160634.191000",
      "TransmitCoilName": "Body",
      "VariableFlipAngleFlag": "N",
      "WindowCenterWidthExplanation": "Algo1",
      "dBdt": 0.0},
    "slices": {}
  },
  "time": {
    "samples": {
      "AcquisitionNumber": [1, 2, 3, 4, 5, 6, 7, 8, 9, 10, 11, 12, 13, 14, 15, 16, 17, 18, 19, 20, 21, 22, 23, 24, 25, 26, 27, 28, 29, 30, 31, 32, 33, 34, 35, 36, 37, 38, 39, 40, 41, 42, 43, 44, 45, 46, 47, 48, 49, 50, 51, 52, 53, 54, 55, 56, 57, 58, 59, 60, 61, 62, 63, 64, 65, 66, 67, 68, 69, 70, 71, 72, 73, 74, 75, 76, 77, 78, 79, 80, 81, 82, 83, 84, 85, 86, 87, 88, 89, 90, 91, 92, 93, 94, 95, 96, 97, 98, 99, 100, 101, 102, 103, 104, 105, 106, 107, 108, 109, 110, 111, 112, 113, 114, 115, 116, 117, 118, 119, 120, 121, 122, 123, 124, 125, 126, 127, 128, 129, 130, 131, 132, 133, 134, 135, 136, 137, 138, 139],
      "AcquisitionTime": ["162532.942500", "162534.432500", "162535.922500", "162537.412500", "162538.902500", "162540.392500", "162541.882500", "162543.372500", "162544.862500", "162546.352500", "162547.842500", "162549.332500", "162550.822500", "162552.312500", "162553.802500", "162555.292500", "162556.782500", "162558.272500", "162559.762500", "162601.252500", "162602.742500", "162604.232500", "162605.722500", "162607.212500", "162608.702500", "162610.192500", "162611.682500", "162613.172500", "162614.662500", "162616.152500", "162617.642500", "162619.132500", "162620.622500", "162622.112500", "162623.602500", "162625.092500", "162626.582500", "162628.072500", "162629.562500", "162631.052500", "162632.542500", "162634.032500", "162635.522500", "162637.012500", "162638.502500", "162639.992500", "162641.482500", "162642.972500", "162644.462500", "162645.952500", "162647.442500", "162648.932500", "162650.422500", "162651.912500", "162653.402500", "162654.892500", "162656.382500", "162657.872500", "162659.362500", "162700.852500", "162702.342500", "162703.832500", "162705.322500", "162706.812500", "162708.302500", "162709.792500", "162711.282500", "162712.772500", "162714.262500", "162715.752500", "162717.242500", "162718.732500", "162720.222500", "162721.712500", "162723.202500", "162724.692500", "162726.182500", "162727.672500", "162729.162500", "162730.652500", "162732.142500", "162733.632500", "162735.122500", "162736.612500", "162738.102500", "162739.592500", "162741.082500", "162742.572500", "162744.062500", "162745.552500", "162747.042500", "162748.532500", "162750.022500", "162751.512500", "162753.002500", "162754.492500", "162755.982500", "162757.472500", "162758.962500", "162800.452500", "162801.942500", "162803.432500", "162804.922500", "162806.412500", "162807.902500", "162809.392500", "162810.882500", "162812.372500", "162813.862500", "162815.352500", "162816.842500", "162818.332500", "162819.822500", "162821.312500", "162822.802500", "162824.292500", "162825.782500", "162827.272500", "162828.762500", "162830.252500", "162831.742500", "162833.232500", "162834.722500", "162836.212500", "162837.702500", "162839.192500", "162840.682500", "162842.172500", "162843.662500", "162845.152500", "162846.642500", "162848.132500", "162849.622500", "162851.112500", "162852.602500", "162854.092500", "162855.582500", "162857.072500", "162858.562500"],
      "ContentTime": ["162703.872000", "162703.875000", "162703.878000", "162703.881000", "162703.884000", "162703.887000", "162703.890000", "162703.893000", "162703.896000", "162703.899000", "162703.902000", "162703.905000", "162703.908000", "162703.911000", "162703.914000", "162703.917000", "162703.920000", "162703.923000", "162703.926000", "162703.929000", "162703.932000", "162703.935000", "162703.938000", "162703.941000", "162703.944000", "162703.947000", "162703.950000", "162703.953000", "162703.956000", "162703.959000", "162703.962000", "162703.965000", "162703.968000", "162703.971000", "162703.974000", "162703.977000", "162723.820000", "162723.823000", "162723.826000", "162723.829000", "162723.832000", "162723.835000", "162723.838000", "162723.841000", "162723.844000", "162723.847000", "162723.850000", "162723.853000", "162723.856000", "162723.859000", "162723.862000", "162723.865000", "162723.868000", "162723.871000", "162723.874000", "162723.877000", "162743.820000", "162743.829000", "162743.832000", "162743.835000", "162743.838000", "162743.841000", "162743.844000", "162743.847000", "162743.850000", "162743.853000", "162743.856000", "162743.859000", "162743.861000", "162743.864000", "162743.868000", "162743.871000", "162743.873000", "162743.876000", "162743.880000", "162743.883000", "162803.820000", "162803.823000", "162803.826000", "162803.829000", "162803.832000", "162803.835000", "162803.838000", "162803.841000", "162803.844000", "162803.847000", "162803.850000", "162803.853000", "162803.856000", "162803.859000", "162803.862000", "162803.865000", "162803.868000", "162803.871000", "162803.874000", "162803.877000", "162843.820000", "162843.823000", "162843.826000", "162843.829000", "162843.832000", "162843.835000", "162843.838000", "162843.841000", "162843.844000", "162843.847000", "162843.850000", "162843.854000", "162843.857000", "162843.860000", "162843.863000", "162843.866000", "162843.869000", "162843.872000", "162843.875000", "162843.878000", "162843.881000", "162843.884000", "162843.887000", "162843.890000", "162843.893000", "162843.896000", "162843.899000", "162843.902000", "162843.905000", "162843.908000", "162843.911000", "162900.426000", "162900.430000", "162900.446000", "162900.449000", "162900.453000", "162900.456000", "162900.459000", "162900.462000", "162900.465000", "162900.468000", "162900.471000", "162900.474000"],
      "InstanceCreationTime": ["162703.872000", "162703.875000", "162703.878000", "162703.881000", "162703.884000", "162703.887000", "162703.890000", "162703.893000", "162703.896000", "162703.899000", "162703.902000", "162703.905000", "162703.908000", "162703.911000", "162703.914000", "162703.917000", "162703.920000", "162703.923000", "162703.926000", "162703.929000", "162703.932000", "162703.935000", "162703.938000", "162703.941000", "162703.944000", "162703.947000", "162703.950000", "162703.953000", "162703.956000", "162703.959000", "162703.962000", "162703.965000", "162703.968000", "162703.971000", "162703.974000", "162703.977000", "162723.820000", "162723.823000", "162723.826000", "162723.829000", "162723.832000", "162723.835000", "162723.838000", "162723.841000", "162723.844000", "162723.847000", "162723.850000", "162723.853000", "162723.856000", "162723.859000", "162723.862000", "162723.865000", "162723.868000", "162723.871000", "162723.874000", "162723.877000", "162743.820000", "162743.829000", "162743.832000", "162743.835000", "162743.838000", "162743.841000", "162743.844000", "162743.847000", "162743.850000", "162743.853000", "162743.856000", "162743.859000", "162743.861000", "162743.864000", "162743.868000", "162743.871000", "162743.873000", "162743.876000", "162743.880000", "162743.883000", "162803.820000", "162803.823000", "162803.826000", "162803.829000", "162803.832000", "162803.835000", "162803.838000", "162803.841000", "162803.844000", "162803.847000", "162803.850000", "162803.853000", "162803.856000", "162803.859000", "162803.862000", "162803.865000", "162803.868000", "162803.871000", "162803.874000", "162803.877000", "162843.820000", "162843.823000", "162843.826000", "162843.829000", "162843.832000", "162843.835000", "162843.838000", "162843.841000", "162843.844000", "162843.847000", "162843.850000", "162843.854000", "162843.857000", "162843.860000", "162843.863000", "162843.866000", "162843.869000", "162843.872000", "162843.875000", "162843.878000", "162843.881000", "162843.884000", "162843.887000", "162843.890000", "162843.893000", "162843.896000", "162843.899000", "162843.902000", "162843.905000", "162843.908000", "162843.911000", "162900.426000", "162900.430000", "162900.446000", "162900.449000", "162900.453000", "162900.456000", "162900.459000", "162900.462000", "162900.465000", "162900.468000", "162900.471000", "162900.474000"],
      "InstanceNumber": [1, 2, 3, 4, 5, 6, 7, 8, 9, 10, 11, 12, 13, 14, 15, 16, 17, 18, 19, 20, 21, 22, 23, 24, 25, 26, 27, 28, 29, 30, 31, 32, 33, 34, 35, 36, 37, 38, 39, 40, 41, 42, 43, 44, 45, 46, 47, 48, 49, 50, 51, 52, 53, 54, 55, 56, 57, 58, 59, 60, 61, 62, 63, 64, 65, 66, 67, 68, 69, 70, 71, 72, 73, 74, 75, 76, 77, 78, 79, 80, 81, 82, 83, 84, 85, 86, 87, 88, 89, 90, 91, 92, 93, 94, 95, 96, 97, 98, 99, 100, 101, 102, 103, 104, 105, 106, 107, 108, 109, 110, 111, 112, 113, 114, 115, 116, 117, 118, 119, 120, 121, 122, 123, 124, 125, 126, 127, 128, 129, 130, 131, 132, 133, 134, 135, 136, 137, 138, 139],
      "LargestImagePixelValue": [48274, 47685, 47033, 46895, 46555, 46044, 46371, 45995, 45810, 45853, 45855, 46557, 45507, 45986, 46220, 46119, 46326, 45792, 46080, 46613, 46203, 46600, 46048, 45639, 46588, 45742, 45839, 46232, 45840, 46632, 46322, 46287, 47021, 45433, 46424, 46485, 45643, 46322, 44992, 45937, 45496, 45532, 46206, 44992, 44941, 43702, 44281, 44613, 43528, 44776, 44436, 43480, 45251, 44554, 44301, 45404, 44285, 45321, 44494, 44358, 45027, 44271, 44210, 45298, 43810, 44824, 44084, 43546, 44751, 42357, 42015, 43403, 41435, 44142, 42724, 43668, 42922, 41961, 43500, 42384, 42093, 43526, 41888, 42875, 43530, 41310, 41104, 42018, 40839, 41804, 41594, 42379, 41251, 41209, 40754, 40483, 40078, 39827, 38924, 39232, 40747, 39132, 40238, 41728, 42147, 43137, 42794, 42716, 42999, 41023, 41688, 42308, 41176, 42654, 41154, 40625, 41888, 41579, 41315, 42335, 39496, 39341, 41697, 39343, 38174, 38193, 38626, 38645, 38225, 39418, 38624, 40526, 42205, 42788, 39990, 39912, 40050, 38823, 40010],
      "WindowCenter": [10341.0, 10305.0, 10305.0, 10294.0, 10278.0, 10267.0, 10249.0, 10248.0, 10258.0, 10259.0, 10261.0, 10264.0, 10253.0, 10264.0, 10255.0, 10265.0, 10281.0, 10276.0, 10284.0, 10272.0, 10250.0, 10263.0, 10267.0, 10277.0, 10272.0, 10253.0, 10252.0, 10243.0, 10243.0, 10249.0, 10249.0, 10257.0, 10262.0, 10245.0, 10250.0, 10255.0, 10259.0, 10257.0, 10236.0, 10240.0, 10236.0, 10262.0, 10271.0, 10264.0, 10259.0, 10237.0, 10244.0, 10265.0, 10266.0, 10286.0, 10264.0, 10250.0, 10256.0, 10242.0, 10261.0, 10274.0, 10256.0, 10255.0, 10234.0, 10232.0, 10246.0, 10250.0, 10270.0, 10274.0, 10247.0, 10243.0, 10227.0, 10238.0, 10267.0, 10251.0, 10243.0, 10234.0, 10215.0, 10244.0, 10227.0, 10239.0, 10227.0, 10223.0, 10230.0, 10211.0, 10228.0, 10241.0, 10216.0, 10211.0, 10212.0, 10198.0, 10217.0, 10231.0, 10228.0, 10243.0, 10245.0, 10248.0, 10222.0, 10210.0, 10203.0, 10229.0, 10249.0, 10249.0, 10217.0, 10203.0, 10204.0, 10193.0, 10225.0, 10241.0, 10233.0, 10256.0, 10244.0, 10208.0, 10187.0, 10175.0, 10201.0, 10203.0, 10191.0, 10204.0, 10190.0, 10194.0, 10215.0, 10219.0, 10228.0, 10236.0, 10198.0, 10204.0, 10226.0, 10205.0, 10197.0, 10178.0, 10184.0, 10194.0, 10197.0, 10216.0, 10204.0, 10223.0, 10228.0, 10229.0, 10203.0, 10221.0, 10231.0, 10218.0, 10221.0],
      "WindowWidth": [21902.0, 21805.0, 21799.0, 21762.0, 21720.0, 21694.0, 21649.0, 21652.0, 21675.0, 21674.0, 21681.0, 21685.0, 21665.0, 21684.0, 21664.0, 21695.0, 21726.0, 21717.0, 21736.0, 21700.0, 21655.0, 21684.0, 21696.0, 21720.0, 21701.0, 21664.0, 21661.0, 21644.0, 21640.0, 21655.0, 21653.0, 21671.0, 21680.0, 21646.0, 21655.0, 21661.0, 21672.0, 21670.0, 21624.0, 21629.0, 21626.0, 21691.0, 21711.0, 21692.0, 21685.0, 21637.0, 21655.0, 21696.0, 21708.0, 21746.0, 21696.0, 21667.0, 21674.0, 21643.0, 21692.0, 21715.0, 21680.0, 21665.0, 21620.0, 21615.0, 21647.0, 21659.0, 21709.0, 21711.0, 21656.0, 21645.0, 21606.0, 21639.0, 21701.0, 21677.0, 21653.0, 21625.0, 21592.0, 21648.0, 21615.0, 21639.0, 21614.0, 21610.0, 21614.0, 21575.0, 21616.0, 21640.0, 21591.0, 21575.0, 21570.0, 21557.0, 21601.0, 21632.0, 21629.0, 21664.0, 21672.0, 21673.0, 21621.0, 21589.0, 21571.0, 21631.0, 21677.0, 21681.0, 21611.0, 21576.0, 21573.0, 21557.0, 21625.0, 21658.0, 21636.0, 21686.0, 21660.0, 21572.0, 21521.0, 21502.0, 21560.0, 21559.0, 21532.0, 21564.0, 21531.0, 21544.0, 21587.0, 21600.0, 21621.0, 21644.0, 21568.0, 21576.0, 21616.0, 21582.0, 21575.0, 21524.0, 21537.0, 21565.0, 21571.0, 21607.0, 21585.0, 21622.0, 21630.0, 21626.0, 21573.0, 21615.0, 21638.0, 21611.0, 21615.0]
    },
    "slices": {}
  }
}