{
  "AcquisitionMatrixPE": 104,
  "AcquisitionNumber": 1,
  "AcquisitionTime": "16:57:23.920000",
  "BandwidthPerPixelPhaseEncode": 17.17,
  "BaseResolution": 104,
  "BodyPartExamined": "BRAIN",
  "CoilString": "HC1-7;NC1_2",
  "ConsistencyInfo": "N4_VE11C_LATEST_20160120",
  "ConversionSoftware": "dcm2niix",
  "ConversionSoftwareVersion": "v1.0.20190720  (JP2:OpenJPEG) GCC7.3.0",
  "DerivedVendorReportedEchoSpacing": 0.000560011,
  "DeviceSerialNumber": "167006",
  "DwellTime": 2.1e-06,
  "EchoTime": 0.037,
  "EchoTrainLength": 104,
  "EffectiveEchoSpacing": 0.000560011,
  "FlipAngle": 52,
  "ImageComments": "Unaliased_MB4_PE3_LB",
  "ImageOrientationPatientDICOM": [0.998817, 0.0424621, 0.0237025, -0.0312146, 0.93356, -0.35706],
  "ImageType": [
    "ORIGINAL",
    "PRIMARY",
    "M",
    "MB",
    "ND",
    "MOSAIC"
],
  "ImagingFrequency": 123.26,
  "InPlanePhaseEncodingDirectionDICOM": "COL",
  "InstitutionAddress": "Chemin_Queen-Mary_4565_Montreal_District_CA_H3W_1W5",
  "InstitutionName": "IUGM",
  "InstitutionalDepartmentName": "Department",
  "MRAcquisitionType": "2D",
  "MagneticFieldStrength": 3,
  "Manufacturer": "Siemens",
  "ManufacturersModelName": "Prisma_fit",
  "Modality": "MR",
  "MultibandAccelerationFactor": 4,
  "PartialFourier": 1,
  "PatientPosition": "HFS",
  "PercentPhaseFOV": 100,
  "PhaseEncodingDirection": "j",
  "PhaseEncodingSteps": 104,
  "PhaseResolution": 1,
  "PixelBandwidth": 2290,
  "ProcedureStepDescription": "hcptrt_generic",
  "ProtocolName": "func_task-social_run-2",
  "PulseSequenceDetails": "%CustomerSeq%_cmrr_mbep2d_bold",
  "ReceiveCoilActiveElements": "HC1-7;NC1,2",
  "ReceiveCoilName": "HeadNeck_64",
  "ReconMatrixPE": 104,
  "RepetitionTime": 1.49,
  "SAR": 0.0402835,
  "ScanOptions": "FS",
  "ScanningSequence": "EP",
  "SequenceName": "epfid2d1_104",
  "SequenceVariant": "SK_SS",
  "SeriesDescription": "func_task-social_run-2",
  "SeriesNumber": 25,
  "ShimSetting": [632, -7164, -8797, 674, 64, 87, -13, -17],
  "SliceThickness": 2,
  "SliceTiming": [0, 0.7825, 0.0975, 0.8825, 0.195, 0.98, 0.2925, 1.0775, 0.3925, 1.175, 0.49, 1.2725, 0.5875, 1.37, 0.685, 0, 0.7825, 0.0975, 0.8825, 0.195, 0.98, 0.2925, 1.0775, 0.3925, 1.175, 0.49, 1.2725, 0.5875, 1.37, 0.685, 0, 0.7825, 0.0975, 0.8825, 0.195, 0.98, 0.2925, 1.0775, 0.3925, 1.175, 0.49, 1.2725, 0.5875, 1.37, 0.685, 0, 0.7825, 0.0975, 0.8825, 0.195, 0.98, 0.2925, 1.0775, 0.3925, 1.175, 0.49, 1.2725, 0.5875, 1.37, 0.685],
  "SoftwareVersions": "syngo_MR_E11",
  "SpacingBetweenSlices": 2,
  "StationName": "MRC35049",
  "TaskName": "social",
  "TotalReadoutTime": 0.0576811,
  "TxRefAmp": 255.718,
  "WipMemBlock": "14991be7-3278-40e7-a410-bb7bc19c832b||Sequence: R016 ve11c/master r/e634e98; Dec 19 2017 11:00:25 by eja",
  "dcmmeta_affine": [
    [-1.9976338148117065, -0.06242922320961952, 0.07457835972309113, 107.7426986694336],
    [-0.08492414653301239, 1.867119550704956, -0.7117951512336731, -54.74625778198242],
    [0.047404952347278595, 0.7141197919845581, 1.8675613403320312, -55.59830856323242],
    [0.0, 0.0, 0.0, 1.0]
],
  "dcmmeta_reorient_transform": [
    [0.0, -1.0, 0.0, 103.0],
    [1.0, 0.0, 0.0, 0.0],
    [0.0, 0.0, 1.0, 0.0],
    [0.0, 0.0, 0.0, 1.0]
],
  "dcmmeta_shape": [104, 104, 60, 139],
  "dcmmeta_slice_dim": 2,
  "dcmmeta_version": 0.6,
  "global": {
    "const": {
      "AcquisitionMatrix": [104, 0, 0, 104],
      "AngioFlag": "N",
      "BitsAllocated": 16,
      "BitsStored": 16,
      "BodyPartExamined": "BRAIN",
      "Columns": 832,
      "EchoNumbers": 1,
      "EchoTime": 37.0,
      "EchoTrainLength": 104,
      "FlipAngle": 52.0,
      "HighBit": 15,
      "ImageOrientationPatient": [0.99881688258057, 0.04246207354882, 0.02370247628338, -0.0312146118302, 0.93355979418259, -0.3570598811041],
      "ImagePositionPatient": [-805.72694029372, -848.11098115346, 260.64021650844],
      "ImageType": [
        "ORIGINAL",
        "PRIMARY",
        "M",
        "MB",
        "ND",
        "MOSAIC"
],
      "ImagedNucleus": "1H",
      "ImagingFrequency": 123.259529,
      "InPlanePhaseEncodingDirection": "COL",
      "MRAcquisitionType": "2D",
      "MagneticFieldStrength": 3.0,
      "Manufacturer": "SIEMENS",
      "ManufacturerModelName": "Prisma_fit",
      "Modality": "MR",
      "NumberOfAverages": 1.0,
      "NumberOfPhaseEncodingSteps": 104,
      "PercentPhaseFieldOfView": 100.0,
      "PercentSampling": 100.0,
      "PerformedProcedureStepStartTime": "160634.278000",
      "PhotometricInterpretation": "MONOCHROME2",
      "PixelBandwidth": 2290.0,
      "PixelRepresentation": 0,
      "PixelSpacing": [2.0, 2.0],
      "ProtocolName": "func_task-social_run-2",
      "RepetitionTime": 1490.0,
      "Rows": 832,
      "SAR": 0.04028345704368,
      "SamplesPerPixel": 1,
      "ScanOptions": "FS",
      "ScanningSequence": "EP",
      "SequenceName": "epfid2d1_104",
      "SequenceVariant": [
        "SK",
        "SS"
],
      "SeriesDescription": "func_task-social_run-2",
      "SeriesNumber": 25,
      "SeriesTime": "165855.956000",
      "SliceLocation": -28.414932933051,
      "SliceThickness": 2.0,
      "SmallestImagePixelValue": 0,
      "SoftwareVersions": "syngo MR E11",
      "SpacingBetweenSlices": 1.9999999414263,
      "SpecificCharacterSet": "ISO_IR 100",
      "StudyID": "1",
      "StudyTime": "160634.191000",
      "TransmitCoilName": "Body",
      "VariableFlipAngleFlag": "N",
      "WindowCenterWidthExplanation": "Algo1",
      "dBdt": 0.0},
    "slices": {}
  },
  "time": {
    "samples": {
      "AcquisitionNumber": [1, 2, 3, 4, 5, 6, 7, 8, 9, 10, 11, 12, 13, 14, 15, 16, 17, 18, 19, 20, 21, 22, 23, 24, 25, 26, 27, 28, 29, 30, 31, 32, 33, 34, 35, 36, 37, 38, 39, 40, 41, 42, 43, 44, 45, 46, 47, 48, 49, 50, 51, 52, 53, 54, 55, 56, 57, 58, 59, 60, 61, 62, 63, 64, 65, 66, 67, 68, 69, 70, 71, 72, 73, 74, 75, 76, 77, 78, 79, 80, 81, 82, 83, 84, 85, 86, 87, 88, 89, 90, 91, 92, 93, 94, 95, 96, 97, 98, 99, 100, 101, 102, 103, 104, 105, 106, 107, 108, 109, 110, 111, 112, 113, 114, 115, 116, 117, 118, 119, 120, 121, 122, 123, 124, 125, 126, 127, 128, 129, 130, 131, 132, 133, 134, 135, 136, 137, 138, 139],
      "AcquisitionTime": ["165723.920000", "165725.410000", "165726.900000", "165728.390000", "165729.880000", "165731.370000", "165732.860000", "165734.350000", "165735.840000", "165737.330000", "165738.820000", "165740.310000", "165741.800000", "165743.290000", "165744.780000", "165746.270000", "165747.760000", "165749.250000", "165750.740000", "165752.230000", "165753.720000", "165755.210000", "165756.700000", "165758.190000", "165759.680000", "165801.170000", "165802.660000", "165804.150000", "165805.640000", "165807.130000", "165808.620000", "165810.110000", "165811.600000", "165813.090000", "165814.580000", "165816.070000", "165817.560000", "165819.050000", "165820.540000", "165822.030000", "165823.520000", "165825.010000", "165826.500000", "165827.990000", "165829.480000", "165830.970000", "165832.460000", "165833.950000", "165835.440000", "165836.930000", "165838.420000", "165839.910000", "165841.400000", "165842.890000", "165844.380000", "165845.870000", "165847.360000", "165848.850000", "165850.340000", "165851.830000", "165853.320000", "165854.810000", "165856.300000", "165857.790000", "165859.280000", "165900.770000", "165902.260000", "165903.750000", "165905.240000", "165906.730000", "165908.220000", "165909.710000", "165911.200000", "165912.690000", "165914.180000", "165915.670000", "165917.160000", "165918.650000", "165920.140000", "165921.630000", "165923.120000", "165924.610000", "165926.100000", "165927.590000", "165929.080000", "165930.570000", "165932.060000", "165933.550000", "165935.040000", "165936.530000", "165938.020000", "165939.510000", "165941.000000", "165942.490000", "165943.980000", "165945.470000", "165946.960000", "165948.450000", "165949.940000", "165951.430000", "165952.920000", "165954.410000", "165955.900000", "165957.390000", "165958.880000", "170000.370000", "170001.860000", "170003.350000", "170004.840000", "170006.330000", "170007.820000", "170009.310000", "170010.800000", "170012.290000", "170013.780000", "170015.270000", "170016.760000", "170018.250000", "170019.740000", "170021.230000", "170022.720000", "170024.210000", "170025.700000", "170027.190000", "170028.680000", "170030.170000", "170031.660000", "170033.150000", "170034.640000", "170036.130000", "170037.620000", "170039.110000", "170040.600000", "170042.090000", "170043.580000", "170045.070000", "170046.560000", "170048.050000", "170049.540000"],
      "ContentTime": ["165855.959000", "165855.962000", "165855.965000", "165855.968000", "165855.971000", "165855.981000", "165855.984000", "165855.987000", "165855.990000", "165855.993000", "165855.995000", "165856.004000", "165856.007000", "165856.010000", "165856.013000", "165856.016000", "165856.019000", "165856.022000", "165856.025000", "165856.034000", "165856.037000", "165856.040000", "165856.043000", "165856.046000", "165856.049000", "165856.052000", "165856.055000", "165856.058000", "165856.061000", "165856.064000", "165856.067000", "165856.069000", "165856.072000", "165856.075000", "165856.078000", "165856.081000", "165915.918000", "165915.921000", "165915.924000", "165915.927000", "165915.930000", "165915.933000", "165915.936000", "165915.939000", "165915.942000", "165915.945000", "165915.947000", "165915.950000", "165915.953000", "165915.956000", "165915.959000", "165915.962000", "165915.965000", "165915.968000", "165915.971000", "165915.974000", "165935.918000", "165935.921000", "165935.924000", "165935.927000", "165935.930000", "165935.932000", "165935.935000", "165935.938000", "165935.942000", "165935.945000", "165935.947000", "165935.958000", "165935.961000", "165935.964000", "165935.967000", "165935.970000", "165935.973000", "165935.976000", "165935.979000", "165935.982000", "165955.919000", "165955.922000", "165955.925000", "165955.928000", "165955.931000", "165955.934000", "165955.937000", "165955.940000", "165955.943000", "165955.946000", "165955.948000", "165955.951000", "165955.955000", "165955.957000", "165955.960000", "165955.963000", "165955.966000", "165955.969000", "165955.972000", "165955.975000", "165955.978000", "170015.918000", "170015.921000", "170015.924000", "170015.927000", "170015.930000", "170015.933000", "170015.936000", "170015.939000", "170015.944000", "170015.947000", "170015.950000", "170015.953000", "170015.956000", "170015.959000", "170015.962000", "170015.965000", "170015.968000", "170015.971000", "170051.578000", "170051.592000", "170051.595000", "170051.598000", "170051.601000", "170051.604000", "170051.607000", "170051.610000", "170051.613000", "170051.616000", "170051.620000", "170051.624000", "170051.627000", "170051.630000", "170051.633000", "170051.644000", "170051.647000", "170051.650000", "170051.653000", "170051.656000", "170051.659000", "170051.662000", "170051.665000", "170051.668000"],
      "InstanceCreationTime": ["165855.959000", "165855.962000", "165855.965000", "165855.968000", "165855.971000", "165855.981000", "165855.984000", "165855.987000", "165855.990000", "165855.993000", "165855.995000", "165856.004000", "165856.007000", "165856.010000", "165856.013000", "165856.016000", "165856.019000", "165856.022000", "165856.025000", "165856.034000", "165856.037000", "165856.040000", "165856.043000", "165856.046000", "165856.049000", "165856.052000", "165856.055000", "165856.058000", "165856.061000", "165856.064000", "165856.067000", "165856.069000", "165856.072000", "165856.075000", "165856.078000", "165856.081000", "165915.918000", "165915.921000", "165915.924000", "165915.927000", "165915.930000", "165915.933000", "165915.936000", "165915.939000", "165915.942000", "165915.945000", "165915.947000", "165915.950000", "165915.953000", "165915.956000", "165915.959000", "165915.962000", "165915.965000", "165915.968000", "165915.971000", "165915.974000", "165935.918000", "165935.921000", "165935.924000", "165935.927000", "165935.930000", "165935.932000", "165935.935000", "165935.938000", "165935.942000", "165935.945000", "165935.947000", "165935.958000", "165935.961000", "165935.964000", "165935.967000", "165935.970000", "165935.973000", "165935.976000", "165935.979000", "165935.982000", "165955.919000", "165955.922000", "165955.925000", "165955.928000", "165955.931000", "165955.934000", "165955.937000", "165955.940000", "165955.943000", "165955.946000", "165955.948000", "165955.951000", "165955.955000", "165955.957000", "165955.960000", "165955.963000", "165955.966000", "165955.969000", "165955.972000", "165955.975000", "165955.978000", "170015.918000", "170015.921000", "170015.924000", "170015.927000", "170015.930000", "170015.933000", "170015.936000", "170015.939000", "170015.944000", "170015.947000", "170015.950000", "170015.953000", "170015.956000", "170015.959000", "170015.962000", "170015.965000", "170015.968000", "170015.971000", "170051.578000", "170051.592000", "170051.595000", "170051.598000", "170051.601000", "170051.604000", "170051.607000", "170051.610000", "170051.613000", "170051.616000", "170051.620000", "170051.624000", "170051.627000", "170051.630000", "170051.633000", "170051.644000", "170051.647000", "170051.650000", "170051.653000", "170051.656000", "170051.659000", "170051.662000", "170051.665000", "170051.668000"],
      "InstanceNumber": [1, 2, 3, 4, 5, 6, 7, 8, 9, 10, 11, 12, 13, 14, 15, 16, 17, 18, 19, 20, 21, 22, 23, 24, 25, 26, 27, 28, 29, 30, 31, 32, 33, 34, 35, 36, 37, 38, 39, 40, 41, 42, 43, 44, 45, 46, 47, 48, 49, 50, 51, 52, 53, 54, 55, 56, 57, 58, 59, 60, 61, 62, 63, 64, 65, 66, 67, 68, 69, 70, 71, 72, 73, 74, 75, 76, 77, 78, 79, 80, 81, 82, 83, 84, 85, 86, 87, 88, 89, 90, 91, 92, 93, 94, 95, 96, 97, 98, 99, 100, 101, 102, 103, 104, 105, 106, 107, 108, 109, 110, 111, 112, 113, 114, 115, 116, 117, 118, 119, 120, 121, 122, 123, 124, 125, 126, 127, 128, 129, 130, 131, 132, 133, 134, 135, 136, 137, 138, 139],
      "LargestImagePixelValue": [43852, 40736, 40937, 42633, 40199, 39917, 41381, 40090, 41050, 41981, 39996, 40846, 41196, 40191, 41157, 42138, 40800, 41688, 42022, 41372, 42294, 43102, 41858, 42407, 41632, 41587, 42934, 43056, 41457, 42292, 43969, 41687, 41295, 41644, 42641, 41398, 41404, 41608, 41379, 41497, 41893, 42155, 42460, 41732, 42212, 43586, 41483, 42686, 43038, 41726, 43553, 42448, 42287, 43484, 41465, 42725, 41542, 41492, 43088, 41943, 42723, 43192, 41816, 42045, 41320, 41173, 42995, 40986, 40592, 42454, 40444, 40168, 41561, 40609, 41700, 42064, 40300, 40569, 41802, 40877, 40692, 42219, 40767, 41027, 41955, 40700, 42326, 40744, 41086, 41624, 41036, 40884, 42586, 40894, 41735, 41493, 40859, 41511, 42049, 41426, 42195, 43255, 40513, 41089, 42747, 41622, 41120, 41874, 41814, 41289, 42482, 41143, 41671, 43711, 43357, 42423, 42406, 43342, 42053, 42729, 43004, 43451, 42975, 42910, 43714, 42350, 42867, 42874, 42957, 43782, 44297, 41975, 45338, 44625, 47784, 46123, 45226, 45174, 45242],
      "WindowCenter": [10202.0, 10125.0, 10133.0, 10146.0, 10129.0, 10125.0, 10125.0, 10102.0, 10131.0, 10154.0, 10148.0, 10171.0, 10169.0, 10149.0, 10168.0, 10181.0, 10171.0, 10188.0, 10184.0, 10176.0, 10190.0, 10202.0, 10187.0, 10191.0, 10162.0, 10161.0, 10177.0, 10177.0, 10168.0, 10185.0, 10186.0, 10160.0, 10169.0, 10169.0, 10164.0, 10149.0, 10158.0, 10159.0, 10151.0, 10148.0, 10152.0, 10137.0, 10139.0, 10144.0, 10163.0, 10175.0, 10150.0, 10166.0, 10168.0, 10148.0, 10166.0, 10161.0, 10177.0, 10194.0, 10161.0, 10162.0, 10132.0, 10137.0, 10173.0, 10176.0, 10205.0, 10194.0, 10164.0, 10157.0, 10160.0, 10170.0, 10188.0, 10163.0, 10170.0, 10179.0, 10154.0, 10163.0, 10175.0, 10166.0, 10188.0, 10186.0, 10153.0, 10157.0, 10151.0, 10134.0, 10138.0, 10148.0, 10133.0, 10144.0, 10164.0, 10141.0, 10153.0, 10128.0, 10143.0, 10157.0, 10159.0, 10165.0, 10181.0, 10163.0, 10169.0, 10161.0, 10147.0, 10160.0, 10177.0, 10172.0, 10185.0, 10179.0, 10141.0, 10155.0, 10164.0, 10135.0, 10141.0, 10157.0, 10140.0, 10138.0, 10162.0, 10153.0, 10150.0, 10164.0, 10176.0, 10191.0, 10190.0, 10170.0, 10138.0, 10142.0, 10133.0, 10147.0, 10168.0, 10192.0, 10198.0, 10160.0, 10162.0, 10147.0, 10154.0, 10185.0, 10195.0, 10171.0, 10207.0, 10201.0, 10210.0, 10206.0, 10211.0, 10219.0, 10201.0],
      "WindowWidth": [21576.0, 21395.0, 21402.0, 21427.0, 21389.0, 21387.0, 21378.0, 21328.0, 21390.0, 21439.0, 21435.0, 21485.0, 21476.0, 21434.0, 21472.0, 21500.0, 21483.0, 21529.0, 21508.0, 21490.0, 21521.0, 21543.0, 21521.0, 21522.0, 21462.0, 21461.0, 21488.0, 21485.0, 21475.0, 21515.0, 21507.0, 21460.0, 21481.0, 21477.0, 21460.0, 21427.0, 21450.0, 21451.0, 21430.0, 21425.0, 21431.0, 21398.0, 21401.0, 21417.0, 21461.0, 21480.0, 21433.0, 21475.0, 21468.0, 21431.0, 21466.0, 21453.0, 21504.0, 21525.0, 21457.0, 21451.0, 21391.0, 21401.0, 21479.0, 21492.0, 21553.0, 21526.0, 21459.0, 21445.0, 21462.0, 21480.0, 21515.0, 21462.0, 21480.0, 21494.0, 21442.0, 21465.0, 21491.0, 21475.0, 21523.0, 21513.0, 21447.0, 21450.0, 21430.0, 21394.0, 21409.0, 21427.0, 21390.0, 21423.0, 21463.0, 21409.0, 21430.0, 21383.0, 21418.0, 21444.0, 21450.0, 21471.0, 21493.0, 21461.0, 21473.0, 21461.0, 21428.0, 21455.0, 21495.0, 21484.0, 21507.0, 21482.0, 21410.0, 21443.0, 21460.0, 21400.0, 21410.0, 21445.0, 21403.0, 21398.0, 21450.0, 21441.0, 21425.0, 21446.0, 21478.0, 21521.0, 21515.0, 21468.0, 21396.0, 21404.0, 21386.0, 21413.0, 21464.0, 21523.0, 21536.0, 21449.0, 21455.0, 21419.0, 21438.0, 21504.0, 21527.0, 21477.0, 21547.0, 21529.0, 21580.0, 21540.0, 21574.0, 21588.0, 21542.0]
    },
    "slices": {}
  }
}