{
  "AcquisitionMatrixPE": 104,
  "AcquisitionNumber": 1,
  "AcquisitionTime": "16:19:19.457500",
  "BandwidthPerPixelPhaseEncode": 17.17,
  "BaseResolution": 104,
  "BodyPartExamined": "BRAIN",
  "CoilString": "HC1-7;NC1_2",
  "ConsistencyInfo": "N4_VE11C_LATEST_20160120",
  "ConversionSoftware": "dcm2niix",
  "ConversionSoftwareVersion": "v1.0.20190720  (JP2:OpenJPEG) GCC7.3.0",
  "DerivedVendorReportedEchoSpacing": 0.000560011,
  "DeviceSerialNumber": "167006",
  "DwellTime": 2.1e-06,
  "EchoTime": 0.037,
  "EchoTrainLength": 104,
  "EffectiveEchoSpacing": 0.000560011,
  "FlipAngle": 52,
  "ImageComments": "Unaliased_MB4_PE3_LB",
  "ImageOrientationPatientDICOM": [0.998817, 0.0424621, 0.0237025, -0.0312146, 0.93356, -0.35706],
  "ImageType": [
    "ORIGINAL",
    "PRIMARY",
    "M",
    "MB",
    "ND",
    "MOSAIC"
],
  "ImagingFrequency": 123.26,
  "InPlanePhaseEncodingDirectionDICOM": "COL",
  "InstitutionAddress": "Chemin_Queen-Mary_4565_Montreal_District_CA_H3W_1W5",
  "InstitutionName": "IUGM",
  "InstitutionalDepartmentName": "Department",
  "MRAcquisitionType": "2D",
  "MagneticFieldStrength": 3,
  "Manufacturer": "Siemens",
  "ManufacturersModelName": "Prisma_fit",
  "Modality": "MR",
  "MultibandAccelerationFactor": 4,
  "PartialFourier": 1,
  "PatientPosition": "HFS",
  "PercentPhaseFOV": 100,
  "PhaseEncodingDirection": "j",
  "PhaseEncodingSteps": 104,
  "PhaseResolution": 1,
  "PixelBandwidth": 2290,
  "ProcedureStepDescription": "hcptrt_generic",
  "ProtocolName": "func_task-wm_run-1",
  "PulseSequenceDetails": "%CustomerSeq%_cmrr_mbep2d_bold",
  "ReceiveCoilActiveElements": "HC1-7;NC1,2",
  "ReceiveCoilName": "HeadNeck_64",
  "ReconMatrixPE": 104,
  "RepetitionTime": 1.49,
  "SAR": 0.0404543,
  "ScanOptions": "FS",
  "ScanningSequence": "EP",
  "SequenceName": "epfid2d1_104",
  "SequenceVariant": "SK_SS",
  "SeriesDescription": "func_task-wm_run-1",
  "SeriesNumber": 7,
  "ShimSetting": [632, -7164, -8797, 674, 64, 87, -13, -17],
  "SliceThickness": 2,
  "SliceTiming": [0, 0.7825, 0.0975, 0.8825, 0.195, 0.98, 0.2925, 1.0775, 0.3925, 1.175, 0.49, 1.2725, 0.5875, 1.3725, 0.685, 0, 0.7825, 0.0975, 0.8825, 0.195, 0.98, 0.2925, 1.0775, 0.3925, 1.175, 0.49, 1.2725, 0.5875, 1.3725, 0.685, 0, 0.7825, 0.0975, 0.8825, 0.195, 0.98, 0.2925, 1.0775, 0.3925, 1.175, 0.49, 1.2725, 0.5875, 1.3725, 0.685, 0, 0.7825, 0.0975, 0.8825, 0.195, 0.98, 0.2925, 1.0775, 0.3925, 1.175, 0.49, 1.2725, 0.5875, 1.3725, 0.685],
  "SoftwareVersions": "syngo_MR_E11",
  "SpacingBetweenSlices": 2,
  "StationName": "MRC35049",
  "TaskName": "wm",
  "TotalReadoutTime": 0.0576811,
  "TxRefAmp": 255.718,
  "WipMemBlock": "25e38e14-bea4-4020-b624-2998e17c511f||Sequence: R016 ve11c/master r/e634e98; Dec 19 2017 11:00:25 by eja",
  "dcmmeta_affine": [
    [-1.9976338148117065, -0.06242922320961952, 0.07457835972309113, 107.7426986694336],
    [-0.08492414653301239, 1.867119550704956, -0.7117951512336731, -54.74625778198242],
    [0.047404952347278595, 0.7141197919845581, 1.8675613403320312, -55.59830856323242],
    [0.0, 0.0, 0.0, 1.0]
],
  "dcmmeta_reorient_transform": [
    [0.0, -1.0, 0.0, 103.0],
    [1.0, 0.0, 0.0, 0.0],
    [0.0, 0.0, 1.0, 0.0],
    [0.0, 0.0, 0.0, 1.0]
],
  "dcmmeta_shape": [104, 104, 60, 202],
  "dcmmeta_slice_dim": 2,
  "dcmmeta_version": 0.6,
  "global": {
    "const": {
      "AcquisitionMatrix": [104, 0, 0, 104],
      "AngioFlag": "N",
      "BitsAllocated": 16,
      "BitsStored": 16,
      "BodyPartExamined": "BRAIN",
      "Columns": 832,
      "EchoNumbers": 1,
      "EchoTime": 37.0,
      "EchoTrainLength": 104,
      "FlipAngle": 52.0,
      "HighBit": 15,
      "ImageOrientationPatient": [0.99881688258057, 0.04246207354882, 0.02370247628338, -0.0312146118302, 0.93355979418259, -0.3570598811041],
      "ImagePositionPatient": [-805.72694029372, -848.11098115346, 260.64021650844],
      "ImageType": [
        "ORIGINAL",
        "PRIMARY",
        "M",
        "MB",
        "ND",
        "MOSAIC"
],
      "ImagedNucleus": "1H",
      "ImagingFrequency": 123.259512,
      "InPlanePhaseEncodingDirection": "COL",
      "MRAcquisitionType": "2D",
      "MagneticFieldStrength": 3.0,
      "Manufacturer": "SIEMENS",
      "ManufacturerModelName": "Prisma_fit",
      "Modality": "MR",
      "NumberOfAverages": 1.0,
      "NumberOfPhaseEncodingSteps": 104,
      "PercentPhaseFieldOfView": 100.0,
      "PercentSampling": 100.0,
      "PerformedProcedureStepStartTime": "160634.278000",
      "PhotometricInterpretation": "MONOCHROME2",
      "PixelBandwidth": 2290.0,
      "PixelRepresentation": 0,
      "PixelSpacing": [2.0, 2.0],
      "ProtocolName": "func_task-wm_run-1",
      "RepetitionTime": 1490.0,
      "Rows": 832,
      "SAR": 0.04045434461007,
      "SamplesPerPixel": 1,
      "ScanOptions": "FS",
      "ScanningSequence": "EP",
      "SequenceName": "epfid2d1_104",
      "SequenceVariant": [
        "SK",
        "SS"
],
      "SeriesDescription": "func_task-wm_run-1",
      "SeriesNumber": 7,
      "SeriesTime": "162015.966000",
      "SliceLocation": -28.414932933051,
      "SliceThickness": 2.0,
      "SmallestImagePixelValue": 0,
      "SoftwareVersions": "syngo MR E11",
      "SpacingBetweenSlices": 1.9999999414263,
      "SpecificCharacterSet": "ISO_IR 100",
      "StudyID": "1",
      "StudyTime": "160634.191000",
      "TransmitCoilName": "Body",
      "VariableFlipAngleFlag": "N",
      "WindowCenterWidthExplanation": "Algo1",
      "dBdt": 0.0},
    "slices": {}
  },
  "time": {
    "samples": {
      "AcquisitionNumber": [1, 2, 3, 4, 5, 6, 7, 8, 9, 10, 11, 12, 13, 14, 15, 16, 17, 18, 19, 20, 21, 22, 23, 24, 25, 26, 27, 28, 29, 30, 31, 32, 33, 34, 35, 36, 37, 38, 39, 40, 41, 42, 43, 44, 45, 46, 47, 48, 49, 50, 51, 52, 53, 54, 55, 56, 57, 58, 59, 60, 61, 62, 63, 64, 65, 66, 67, 68, 69, 70, 71, 72, 73, 74, 75, 76, 77, 78, 79, 80, 81, 82, 83, 84, 85, 86, 87, 88, 89, 90, 91, 92, 93, 94, 95, 96, 97, 98, 99, 100, 101, 102, 103, 104, 105, 106, 107, 108, 109, 110, 111, 112, 113, 114, 115, 116, 117, 118, 119, 120, 121, 122, 123, 124, 125, 126, 127, 128, 129, 130, 131, 132, 133, 134, 135, 136, 137, 138, 139, 140, 141, 142, 143, 144, 145, 146, 147, 148, 149, 150, 151, 152, 153, 154, 155, 156, 157, 158, 159, 160, 161, 162, 163, 164, 165, 166, 167, 168, 169, 170, 171, 172, 173, 174, 175, 176, 177, 178, 179, 180, 181, 182, 183, 184, 185, 186, 187, 188, 189, 190, 191, 192, 193, 194, 195, 196, 197, 198, 199, 200, 201, 202],
      "AcquisitionTime": ["161919.457500", "161920.947500", "161922.437500", "161923.927500", "161925.417500", "161926.907500", "161928.397500", "161929.887500", "161931.377500", "161932.867500", "161934.357500", "161935.847500", "161937.337500", "161938.827500", "161940.317500", "161941.807500", "161943.297500", "161944.787500", "161946.277500", "161947.767500", "161949.257500", "161950.747500", "161952.237500", "161953.727500", "161955.217500", "161956.707500", "161958.197500", "161959.687500", "162001.177500", "162002.667500", "162004.157500", "162005.647500", "162007.137500", "162008.627500", "162010.117500", "162011.607500", "162013.097500", "162014.587500", "162016.077500", "162017.567500", "162019.057500", "162020.547500", "162022.037500", "162023.527500", "162025.017500", "162026.507500", "162027.997500", "162029.487500", "162030.977500", "162032.467500", "162033.957500", "162035.447500", "162036.937500", "162038.427500", "162039.917500", "162041.407500", "162042.897500", "162044.387500", "162045.877500", "162047.367500", "162048.857500", "162050.347500", "162051.837500", "162053.327500", "162054.817500", "162056.307500", "162057.797500", "162059.287500", "162100.777500", "162102.267500", "162103.757500", "162105.247500", "162106.737500", "162108.227500", "162109.717500", "162111.207500", "162112.697500", "162114.187500", "162115.677500", "162117.167500", "162118.657500", "162120.147500", "162121.637500", "162123.127500", "162124.617500", "162126.107500", "162127.597500", "162129.087500", "162130.577500", "162132.067500", "162133.557500", "162135.047500", "162136.537500", "162138.027500", "162139.517500", "162141.007500", "162142.497500", "162143.987500", "162145.477500", "162146.967500", "162148.457500", "162149.947500", "162151.437500", "162152.927500", "162154.417500", "162155.907500", "162157.397500", "162158.887500", "162200.377500", "162201.867500", "162203.357500", "162204.847500", "162206.337500", "162207.827500", "162209.317500", "162210.807500", "162212.297500", "162213.787500", "162215.277500", "162216.767500", "162218.257500", "162219.747500", "162221.237500", "162222.727500", "162224.217500", "162225.707500", "162227.197500", "162228.687500", "162230.177500", "162231.667500", "162233.157500", "162234.647500", "162236.137500", "162237.627500", "162239.117500", "162240.607500", "162242.097500", "162243.587500", "162245.077500", "162246.567500", "162248.057500", "162249.547500", "162251.037500", "162252.527500", "162254.017500", "162255.507500", "162256.997500", "162258.487500", "162259.977500", "162301.467500", "162302.957500", "162304.447500", "162305.937500", "162307.427500", "162308.917500", "162310.407500", "162311.897500", "162313.387500", "162314.877500", "162316.367500", "162317.857500", "162319.347500", "162320.837500", "162322.327500", "162323.817500", "162325.307500", "162326.797500", "162328.287500", "162329.777500", "162331.267500", "162332.757500", "162334.247500", "162335.737500", "162337.227500", "162338.717500", "162340.207500", "162341.697500", "162343.187500", "162344.677500", "162346.167500", "162347.657500", "162349.147500", "162350.637500", "162352.127500", "162353.617500", "162355.107500", "162356.597500", "162358.087500", "162359.577500", "162401.067500", "162402.557500", "162404.047500", "162405.537500", "162407.027500", "162408.517500", "162410.007500", "162411.497500", "162412.987500", "162414.477500", "162415.967500", "162417.457500", "162418.947500"],
      "ContentTime": ["162015.968000", "162015.972000", "162035.919000", "162035.922000", "162035.935000", "162035.938000", "162035.941000", "162035.949000", "162035.952000", "162035.955000", "162035.958000", "162035.961000", "162035.964000", "162035.967000", "162035.970000", "162035.973000", "162035.976000", "162035.979000", "162035.982000", "162035.985000", "162035.987000", "162035.990000", "162055.918000", "162055.921000", "162055.924000", "162055.927000", "162055.930000", "162055.933000", "162055.936000", "162055.939000", "162055.942000", "162055.945000", "162055.948000", "162055.951000", "162055.954000", "162055.957000", "162055.959000", "162055.962000", "162055.966000", "162055.969000", "162055.972000", "162055.984000", "162115.918000", "162115.921000", "162115.924000", "162115.927000", "162115.931000", "162115.934000", "162115.938000", "162115.941000", "162115.944000", "162115.947000", "162115.950000", "162115.953000", "162115.956000", "162115.959000", "162115.962000", "162115.965000", "162115.968000", "162115.971000", "162115.974000", "162115.977000", "162135.918000", "162135.921000", "162135.924000", "162135.927000", "162135.930000", "162135.933000", "162135.936000", "162135.939000", "162135.942000", "162135.945000", "162135.948000", "162135.951000", "162135.954000", "162135.957000", "162135.960000", "162135.963000", "162135.966000", "162135.969000", "162135.972000", "162135.975000", "162135.978000", "162155.918000", "162155.922000", "162155.925000", "162155.928000", "162155.931000", "162155.934000", "162155.937000", "162155.940000", "162155.943000", "162155.947000", "162155.950000", "162155.953000", "162155.956000", "162155.959000", "162155.962000", "162155.965000", "162155.968000", "162155.972000", "162155.975000", "162155.977000", "162235.918000", "162235.921000", "162235.924000", "162235.927000", "162235.930000", "162235.933000", "162235.936000", "162235.939000", "162235.942000", "162235.945000", "162235.948000", "162235.951000", "162235.954000", "162235.957000", "162235.960000", "162235.963000", "162235.966000", "162235.969000", "162235.972000", "162235.975000", "162235.978000", "162235.981000", "162235.984000", "162235.987000", "162235.990000", "162235.993000", "162235.996000", "162236.000000", "162315.918000", "162315.921000", "162315.932000", "162315.936000", "162315.939000", "162315.941000", "162315.944000", "162315.948000", "162315.951000", "162315.953000", "162315.956000", "162315.976000", "162315.979000", "162315.982000", "162315.985000", "162315.988000", "162315.991000", "162315.994000", "162315.997000", "162316.001000", "162316.004000", "162316.007000", "162316.010000", "162316.013000", "162316.016000", "162316.020000", "162316.022000", "162355.918000", "162355.921000", "162355.925000", "162355.927000", "162355.930000", "162355.933000", "162355.936000", "162355.939000", "162355.949000", "162355.952000", "162355.955000", "162355.958000", "162355.961000", "162355.969000", "162355.973000", "162355.976000", "162355.979000", "162355.982000", "162355.985000", "162355.988000", "162355.991000", "162355.994000", "162355.997000", "162356.001000", "162356.004000", "162356.007000", "162356.010000", "162420.848000", "162420.859000", "162420.863000", "162420.867000", "162420.870000", "162420.873000", "162420.876000", "162420.879000", "162420.882000", "162420.885000", "162420.888000", "162420.891000", "162420.894000", "162420.898000", "162420.901000", "162420.904000", "162420.907000"],
      "InstanceCreationTime": ["162015.968000", "162015.972000", "162035.919000", "162035.922000", "162035.935000", "162035.938000", "162035.941000", "162035.949000", "162035.952000", "162035.955000", "162035.958000", "162035.961000", "162035.964000", "162035.967000", "162035.970000", "162035.973000", "162035.976000", "162035.979000", "162035.982000", "162035.985000", "162035.987000", "162035.990000", "162055.918000", "162055.921000", "162055.924000", "162055.927000", "162055.930000", "162055.933000", "162055.936000", "162055.939000", "162055.942000", "162055.945000", "162055.948000", "162055.951000", "162055.954000", "162055.957000", "162055.959000", "162055.962000", "162055.966000", "162055.969000", "162055.972000", "162055.984000", "162115.918000", "162115.921000", "162115.924000", "162115.927000", "162115.931000", "162115.934000", "162115.938000", "162115.941000", "162115.944000", "162115.947000", "162115.950000", "162115.953000", "162115.956000", "162115.959000", "162115.962000", "162115.965000", "162115.968000", "162115.971000", "162115.974000", "162115.977000", "162135.918000", "162135.921000", "162135.924000", "162135.927000", "162135.930000", "162135.933000", "162135.936000", "162135.939000", "162135.942000", "162135.945000", "162135.948000", "162135.951000", "162135.954000", "162135.957000", "162135.960000", "162135.963000", "162135.966000", "162135.969000", "162135.972000", "162135.975000", "162135.978000", "162155.918000", "162155.922000", "162155.925000", "162155.928000", "162155.931000", "162155.934000", "162155.937000", "162155.940000", "162155.943000", "162155.947000", "162155.950000", "162155.953000", "162155.956000", "162155.959000", "162155.962000", "162155.965000", "162155.968000", "162155.972000", "162155.975000", "162155.977000", "162235.918000", "162235.921000", "162235.924000", "162235.927000", "162235.930000", "162235.933000", "162235.936000", "162235.939000", "162235.942000", "162235.945000", "162235.948000", "162235.951000", "162235.954000", "162235.957000", "162235.960000", "162235.963000", "162235.966000", "162235.969000", "162235.972000", "162235.975000", "162235.978000", "162235.981000", "162235.984000", "162235.987000", "162235.990000", "162235.993000", "162235.996000", "162236.000000", "162315.918000", "162315.921000", "162315.932000", "162315.936000", "162315.939000", "162315.941000", "162315.944000", "162315.948000", "162315.951000", "162315.953000", "162315.956000", "162315.976000", "162315.979000", "162315.982000", "162315.985000", "162315.988000", "162315.991000", "162315.994000", "162315.997000", "162316.001000", "162316.004000", "162316.007000", "162316.010000", "162316.013000", "162316.016000", "162316.020000", "162316.022000", "162355.918000", "162355.921000", "162355.925000", "162355.927000", "162355.930000", "162355.933000", "162355.936000", "162355.939000", "162355.949000", "162355.952000", "162355.955000", "162355.958000", "162355.961000", "162355.969000", "162355.973000", "162355.976000", "162355.979000", "162355.982000", "162355.985000", "162355.988000", "162355.991000", "162355.994000", "162355.997000", "162356.001000", "162356.004000", "162356.007000", "162356.010000", "162420.848000", "162420.859000", "162420.863000", "162420.867000", "162420.870000", "162420.873000", "162420.876000", "162420.879000", "162420.882000", "162420.885000", "162420.888000", "162420.891000", "162420.894000", "162420.898000", "162420.901000", "162420.904000", "162420.907000"],
      "InstanceNumber": [1, 2, 3, 4, 5, 6, 7, 8, 9, 10, 11, 12, 13, 14, 15, 16, 17, 18, 19, 20, 21, 22, 23, 24, 25, 26, 27, 28, 29, 30, 31, 32, 33, 34, 35, 36, 37, 38, 39, 40, 41, 42, 43, 44, 45, 46, 47, 48, 49, 50, 51, 52, 53, 54, 55, 56, 57, 58, 59, 60, 61, 62, 63, 64, 65, 66, 67, 68, 69, 70, 71, 72, 73, 74, 75, 76, 77, 78, 79, 80, 81, 82, 83, 84, 85, 86, 87, 88, 89, 90, 91, 92, 93, 94, 95, 96, 97, 98, 99, 100, 101, 102, 103, 104, 105, 106, 107, 108, 109, 110, 111, 112, 113, 114, 115, 116, 117, 118, 119, 120, 121, 122, 123, 124, 125, 126, 127, 128, 129, 130, 131, 132, 133, 134, 135, 136, 137, 138, 139, 140, 141, 142, 143, 144, 145, 146, 147, 148, 149, 150, 151, 152, 153, 154, 155, 156, 157, 158, 159, 160, 161, 162, 163, 164, 165, 166, 167, 168, 169, 170, 171, 172, 173, 174, 175, 176, 177, 178, 179, 180, 181, 182, 183, 184, 185, 186, 187, 188, 189, 190, 191, 192, 193, 194, 195, 196, 197, 198, 199, 200, 201, 202],
      "LargestImagePixelValue": [43020, 42288, 41014, 41446, 40409, 40978, 41301, 40899, 40789, 40675, 40789, 40335, 40908, 40836, 40602, 41123, 41595, 40216, 41316, 40520, 40687, 41436, 40750, 40907, 40994, 40196, 41404, 40476, 41126, 39990, 40816, 40898, 40664, 41376, 41564, 40651, 41585, 40985, 40548, 41288, 42363, 40975, 40518, 41009, 41282, 41388, 41939, 41633, 41308, 41599, 41207, 40977, 41853, 41592, 40878, 41833, 41935, 41007, 41924, 41616, 42284, 41469, 42351, 42549, 41377, 42071, 40813, 42169, 42509, 42207, 42929, 42498, 42104, 41802, 42340, 42472, 42109, 42503, 42628, 41763, 42503, 42487, 42196, 42713, 43019, 42290, 42043, 42523, 42272, 42665, 43046, 42678, 41791, 42444, 42366, 42577, 42689, 42683, 42213, 43003, 43059, 42131, 42460, 43343, 41897, 42406, 42415, 42127, 41497, 42404, 42729, 42092, 42359, 42650, 42000, 43146, 43324, 42990, 43368, 42922, 42485, 43015, 42876, 42812, 42608, 43133, 43474, 42355, 43222, 42979, 43895, 43884, 43421, 44233, 43659, 43343, 43728, 43143, 44156, 43483, 44343, 43951, 43910, 44830, 43890, 43129, 43792, 43440, 43130, 43450, 43243, 43650, 43342, 43563, 44302, 43881, 44613, 45346, 44833, 45588, 46035, 45447, 45533, 45570, 44993, 45901, 45665, 46319, 45870, 45330, 46057, 45087, 46104, 46289, 45972, 46329, 45478, 46573, 46397, 45897, 46438, 45649, 46015, 46132, 46208, 46450, 46307, 46297, 45913, 45961, 46395, 46297, 45662, 47109, 46308, 46306, 46215, 45392, 45805, 45766, 45578, 45979],
      "WindowCenter": [10371.0, 10288.0, 10228.0, 10218.0, 10221.0, 10247.0, 10234.0, 10209.0, 10203.0, 10207.0, 10225.0, 10255.0, 10262.0, 10264.0, 10265.0, 10266.0, 10278.0, 10258.0, 10260.0, 10256.0, 10248.0, 10243.0, 10237.0, 10234.0, 10232.0, 10218.0, 10231.0, 10237.0, 10242.0, 10212.0, 10222.0, 10249.0, 10246.0, 10233.0, 10224.0, 10202.0, 10201.0, 10213.0, 10230.0, 10243.0, 10254.0, 10224.0, 10201.0, 10222.0, 10241.0, 10248.0, 10262.0, 10241.0, 10230.0, 10239.0, 10240.0, 10220.0, 10227.0, 10233.0, 10217.0, 10217.0, 10210.0, 10203.0, 10223.0, 10252.0, 10263.0, 10264.0, 10255.0, 10243.0, 10232.0, 10237.0, 10249.0, 10263.0, 10276.0, 10262.0, 10258.0, 10259.0, 10252.0, 10255.0, 10262.0, 10268.0, 10269.0, 10259.0, 10258.0, 10249.0, 10245.0, 10260.0, 10260.0, 10251.0, 10250.0, 10236.0, 10216.0, 10219.0, 10241.0, 10249.0, 10257.0, 10251.0, 10220.0, 10224.0, 10244.0, 10243.0, 10227.0, 10224.0, 10210.0, 10221.0, 10240.0, 10228.0, 10225.0, 10244.0, 10220.0, 10215.0, 10237.0, 10247.0, 10232.0, 10243.0, 10249.0, 10228.0, 10216.0, 10240.0, 10240.0, 10250.0, 10251.0, 10227.0, 10212.0, 10204.0, 10210.0, 10214.0, 10237.0, 10242.0, 10243.0, 10242.0, 10230.0, 10194.0, 10200.0, 10229.0, 10267.0, 10288.0, 10290.0, 10272.0, 10265.0, 10264.0, 10269.0, 10266.0, 10260.0, 10246.0, 10256.0, 10245.0, 10245.0, 10239.0, 10226.0, 10212.0, 10216.0, 10228.0, 10232.0, 10231.0, 10230.0, 10217.0, 10217.0, 10234.0, 10240.0, 10252.0, 10258.0, 10262.0, 10248.0, 10234.0, 10247.0, 10252.0, 10253.0, 10259.0, 10261.0, 10260.0, 10267.0, 10276.0, 10270.0, 10271.0, 10274.0, 10272.0, 10269.0, 10275.0, 10277.0, 10275.0, 10277.0, 10288.0, 10286.0, 10271.0, 10264.0, 10251.0, 10248.0, 10264.0, 10267.0, 10256.0, 10257.0, 10239.0, 10240.0, 10243.0, 10248.0, 10248.0, 10227.0, 10234.0, 10252.0, 10257.0, 10249.0, 10238.0, 10233.0, 10244.0, 10262.0, 10251.0],
      "WindowWidth": [22002.0, 21789.0, 21647.0, 21620.0, 21627.0, 21682.0, 21643.0, 21587.0, 21578.0, 21583.0, 21628.0, 21698.0, 21709.0, 21718.0, 21721.0, 21715.0, 21753.0, 21705.0, 21704.0, 21699.0, 21681.0, 21666.0, 21653.0, 21643.0, 21640.0, 21608.0, 21632.0, 21655.0, 21660.0, 21598.0, 21612.0, 21679.0, 21675.0, 21638.0, 21619.0, 21576.0, 21565.0, 21599.0, 21644.0, 21667.0, 21687.0, 21621.0, 21569.0, 21616.0, 21669.0, 21674.0, 21705.0, 21657.0, 21630.0, 21661.0, 21660.0, 21619.0, 21625.0, 21646.0, 21609.0, 21598.0, 21585.0, 21569.0, 21611.0, 21682.0, 21706.0, 21710.0, 21687.0, 21656.0, 21641.0, 21647.0, 21682.0, 21709.0, 21737.0, 21703.0, 21691.0, 21697.0, 21679.0, 21691.0, 21704.0, 21716.0, 21718.0, 21690.0, 21690.0, 21684.0, 21666.0, 21702.0, 21701.0, 21675.0, 21672.0, 21643.0, 21596.0, 21599.0, 21654.0, 21671.0, 21685.0, 21676.0, 21606.0, 21616.0, 21667.0, 21659.0, 21626.0, 21616.0, 21587.0, 21602.0, 21645.0, 21621.0, 21610.0, 21652.0, 21603.0, 21586.0, 21639.0, 21673.0, 21637.0, 21658.0, 21670.0, 21622.0, 21593.0, 21648.0, 21657.0, 21672.0, 21675.0, 21622.0, 21583.0, 21564.0, 21577.0, 21585.0, 21635.0, 21649.0, 21655.0, 21659.0, 21624.0, 21545.0, 21552.0, 21624.0, 21707.0, 21757.0, 21765.0, 21718.0, 21706.0, 21704.0, 21712.0, 21710.0, 21687.0, 21661.0, 21675.0, 21654.0, 21656.0, 21635.0, 21611.0, 21583.0, 21589.0, 21622.0, 21635.0, 21627.0, 21626.0, 21589.0, 21592.0, 21633.0, 21641.0, 21671.0, 21684.0, 21688.0, 21657.0, 21622.0, 21649.0, 21667.0, 21666.0, 21676.0, 21686.0, 21678.0, 21697.0, 21725.0, 21706.0, 21709.0, 21708.0, 21711.0, 21698.0, 21715.0, 21721.0, 21712.0, 21721.0, 21738.0, 21739.0, 21708.0, 21684.0, 21657.0, 21649.0, 21684.0, 21697.0, 21665.0, 21679.0, 21625.0, 21634.0, 21640.0, 21647.0, 21648.0, 21604.0, 21613.0, 21659.0, 21679.0, 21657.0, 21644.0, 21622.0, 21653.0, 21693.0, 21664.0]
    },
    "slices": {}
  }
}