{
  "AcquisitionMatrixPE": 104,
  "AcquisitionNumber": 1,
  "AcquisitionTime": "16:30:25.232500",
  "BandwidthPerPixelPhaseEncode": 17.17,
  "BaseResolution": 104,
  "BodyPartExamined": "BRAIN",
  "CoilString": "HC1-7;NC1_2",
  "ConsistencyInfo": "N4_VE11C_LATEST_20160120",
  "ConversionSoftware": "dcm2niix",
  "ConversionSoftwareVersion": "v1.0.20190720  (JP2:OpenJPEG) GCC7.3.0",
  "DerivedVendorReportedEchoSpacing": 0.000560011,
  "DeviceSerialNumber": "167006",
  "DwellTime": 2.1e-06,
  "EchoTime": 0.037,
  "EchoTrainLength": 104,
  "EffectiveEchoSpacing": 0.000560011,
  "FlipAngle": 52,
  "ImageComments": "Unaliased_MB4_PE3_LB",
  "ImageOrientationPatientDICOM": [0.998817, 0.0424621, 0.0237025, -0.0312146, 0.93356, -0.35706],
  "ImageType": [
    "ORIGINAL",
    "PRIMARY",
    "M",
    "MB",
    "ND",
    "MOSAIC"
],
  "ImagingFrequency": 123.26,
  "InPlanePhaseEncodingDirectionDICOM": "COL",
  "InstitutionAddress": "Chemin_Queen-Mary_4565_Montreal_District_CA_H3W_1W5",
  "InstitutionName": "IUGM",
  "InstitutionalDepartmentName": "Department",
  "MRAcquisitionType": "2D",
  "MagneticFieldStrength": 3,
  "Manufacturer": "Siemens",
  "ManufacturersModelName": "Prisma_fit",
  "Modality": "MR",
  "MultibandAccelerationFactor": 4,
  "PartialFourier": 1,
  "PatientPosition": "HFS",
  "PercentPhaseFOV": 100,
  "PhaseEncodingDirection": "j",
  "PhaseEncodingSteps": 104,
  "PhaseResolution": 1,
  "PixelBandwidth": 2290,
  "ProcedureStepDescription": "hcptrt_generic",
  "ProtocolName": "func_task-relational_run-1",
  "PulseSequenceDetails": "%CustomerSeq%_cmrr_mbep2d_bold",
  "ReceiveCoilActiveElements": "HC1-7;NC1,2",
  "ReceiveCoilName": "HeadNeck_64",
  "ReconMatrixPE": 104,
  "RepetitionTime": 1.49,
  "SAR": 0.0401935,
  "ScanOptions": "FS",
  "ScanningSequence": "EP",
  "SequenceName": "epfid2d1_104",
  "SequenceVariant": "SK_SS",
  "SeriesDescription": "func_task-relational_run-1",
  "SeriesNumber": 11,
  "ShimSetting": [632, -7164, -8797, 674, 64, 87, -13, -17],
  "SliceThickness": 2,
  "SliceTiming": [0, 0.7825, 0.0975, 0.8825, 0.195, 0.98, 0.295, 1.0775, 0.3925, 1.175, 0.49, 1.2725, 0.5875, 1.3725, 0.685, 0, 0.7825, 0.0975, 0.8825, 0.195, 0.98, 0.295, 1.0775, 0.3925, 1.175, 0.49, 1.2725, 0.5875, 1.3725, 0.685, 0, 0.7825, 0.0975, 0.8825, 0.195, 0.98, 0.295, 1.0775, 0.3925, 1.175, 0.49, 1.2725, 0.5875, 1.3725, 0.685, 0, 0.7825, 0.0975, 0.8825, 0.195, 0.98, 0.295, 1.0775, 0.3925, 1.175, 0.49, 1.2725, 0.5875, 1.3725, 0.685],
  "SoftwareVersions": "syngo_MR_E11",
  "SpacingBetweenSlices": 2,
  "StationName": "MRC35049",
  "TaskName": "relational",
  "TotalReadoutTime": 0.0576811,
  "TxRefAmp": 255.718,
  "WipMemBlock": "9acd2bce-7081-4005-add0-b30e627821a6||Sequence: R016 ve11c/master r/e634e98; Dec 19 2017 11:00:25 by eja",
  "dcmmeta_affine": [
    [-1.9976338148117065, -0.06242922320961952, 0.07457835972309113, 107.7426986694336],
    [-0.08492414653301239, 1.867119550704956, -0.7117951512336731, -54.74625778198242],
    [0.047404952347278595, 0.7141197919845581, 1.8675613403320312, -55.59830856323242],
    [0.0, 0.0, 0.0, 1.0]
],
  "dcmmeta_reorient_transform": [
    [0.0, -1.0, 0.0, 103.0],
    [1.0, 0.0, 0.0, 0.0],
    [0.0, 0.0, 1.0, 0.0],
    [0.0, 0.0, 0.0, 1.0]
],
  "dcmmeta_shape": [104, 104, 60, 119],
  "dcmmeta_slice_dim": 2,
  "dcmmeta_version": 0.6,
  "global": {
    "const": {
      "AcquisitionMatrix": [104, 0, 0, 104],
      "AngioFlag": "N",
      "BitsAllocated": 16,
      "BitsStored": 16,
      "BodyPartExamined": "BRAIN",
      "Columns": 832,
      "EchoNumbers": 1,
      "EchoTime": 37.0,
      "EchoTrainLength": 104,
      "FlipAngle": 52.0,
      "HighBit": 15,
      "ImageOrientationPatient": [0.99881688258057, 0.04246207354882, 0.02370247628338, -0.0312146118302, 0.93355979418259, -0.3570598811041],
      "ImagePositionPatient": [-805.72694029372, -848.11098115346, 260.64021650844],
      "ImageType": [
        "ORIGINAL",
        "PRIMARY",
        "M",
        "MB",
        "ND",
        "MOSAIC"
],
      "ImagedNucleus": "1H",
      "ImagingFrequency": 123.259519,
      "InPlanePhaseEncodingDirection": "COL",
      "MRAcquisitionType": "2D",
      "MagneticFieldStrength": 3.0,
      "Manufacturer": "SIEMENS",
      "ManufacturerModelName": "Prisma_fit",
      "Modality": "MR",
      "NumberOfAverages": 1.0,
      "NumberOfPhaseEncodingSteps": 104,
      "PercentPhaseFieldOfView": 100.0,
      "PercentSampling": 100.0,
      "PerformedProcedureStepStartTime": "160634.278000",
      "PhotometricInterpretation": "MONOCHROME2",
      "PixelBandwidth": 2290.0,
      "PixelRepresentation": 0,
      "PixelSpacing": [2.0, 2.0],
      "ProtocolName": "func_task-relational_run-1",
      "RepetitionTime": 1490.0,
      "Rows": 832,
      "SAR": 0.04019347026184,
      "SamplesPerPixel": 1,
      "ScanOptions": "FS",
      "ScanningSequence": "EP",
      "SequenceName": "epfid2d1_104",
      "SequenceVariant": [
        "SK",
        "SS"
],
      "SeriesDescription": "func_task-relational_run-1",
      "SeriesNumber": 11,
      "SeriesTime": "163135.850000",
      "SliceLocation": -28.414932933051,
      "SliceThickness": 2.0,
      "SmallestImagePixelValue": 0,
      "SoftwareVersions": "syngo MR E11",
      "SpacingBetweenSlices": 1.9999999414263,
      "SpecificCharacterSet": "ISO_IR 100",
      "StudyID": "1",
      "StudyTime": "160634.191000",
      "TransmitCoilName": "Body",
      "VariableFlipAngleFlag": "N",
      "WindowCenterWidthExplanation": "Algo1",
      "dBdt": 0.0},
    "slices": {}
  },
  "time": {
    "samples": {
      "AcquisitionNumber": [1, 2, 3, 4, 5, 6, 7, 8, 9, 10, 11, 12, 13, 14, 15, 16, 17, 18, 19, 20, 21, 22, 23, 24, 25, 26, 27, 28, 29, 30, 31, 32, 33, 34, 35, 36, 37, 38, 39, 40, 41, 42, 43, 44, 45, 46, 47, 48, 49, 50, 51, 52, 53, 54, 55, 56, 57, 58, 59, 60, 61, 62, 63, 64, 65, 66, 67, 68, 69, 70, 71, 72, 73, 74, 75, 76, 77, 78, 79, 80, 81, 82, 83, 84, 85, 86, 87, 88, 89, 90, 91, 92, 93, 94, 95, 96, 97, 98, 99, 100, 101, 102, 103, 104, 105, 106, 107, 108, 109, 110, 111, 112, 113, 114, 115, 116, 117, 118, 119],
      "AcquisitionTime": ["163025.232500", "163026.722500", "163028.212500", "163029.702500", "163031.192500", "163032.682500", "163034.172500", "163035.662500", "163037.152500", "163038.642500", "163040.132500", "163041.622500", "163043.112500", "163044.602500", "163046.092500", "163047.582500", "163049.072500", "163050.562500", "163052.052500", "163053.542500", "163055.032500", "163056.522500", "163058.012500", "163059.502500", "163100.992500", "163102.482500", "163103.972500", "163105.462500", "163106.952500", "163108.442500", "163109.932500", "163111.422500", "163112.912500", "163114.402500", "163115.892500", "163117.382500", "163118.872500", "163120.362500", "163121.852500", "163123.342500", "163124.832500", "163126.322500", "163127.812500", "163129.302500", "163130.792500", "163132.282500", "163133.772500", "163135.262500", "163136.752500", "163138.242500", "163139.732500", "163141.222500", "163142.712500", "163144.202500", "163145.692500", "163147.182500", "163148.672500", "163150.162500", "163151.652500", "163153.142500", "163154.632500", "163156.122500", "163157.612500", "163159.102500", "163200.592500", "163202.082500", "163203.572500", "163205.062500", "163206.552500", "163208.042500", "163209.532500", "163211.022500", "163212.512500", "163214.002500", "163215.492500", "163216.982500", "163218.472500", "163219.962500", "163221.452500", "163222.942500", "163224.432500", "163225.922500", "163227.412500", "163228.902500", "163230.392500", "163231.882500", "163233.372500", "163234.862500", "163236.352500", "163237.842500", "163239.332500", "163240.822500", "163242.312500", "163243.802500", "163245.292500", "163246.782500", "163248.272500", "163249.762500", "163251.252500", "163252.742500", "163254.232500", "163255.722500", "163257.212500", "163258.702500", "163300.192500", "163301.682500", "163303.172500", "163304.662500", "163306.152500", "163307.642500", "163309.132500", "163310.622500", "163312.112500", "163313.602500", "163315.092500", "163316.582500", "163318.072500", "163319.562500", "163321.052500"],
      "ContentTime": ["163135.852000", "163135.856000", "163135.859000", "163135.862000", "163135.865000", "163135.874000", "163135.877000", "163135.880000", "163135.883000", "163135.886000", "163135.889000", "163135.892000", "163135.895000", "163135.897000", "163135.900000", "163155.809000", "163155.812000", "163155.815000", "163155.818000", "163155.821000", "163155.824000", "163155.827000", "163155.830000", "163155.833000", "163155.836000", "163155.839000", "163155.848000", "163155.851000", "163155.854000", "163155.857000", "163155.860000", "163155.862000", "163155.865000", "163155.868000", "163155.871000", "163155.874000", "163215.810000", "163215.813000", "163215.816000", "163215.819000", "163215.822000", "163215.825000", "163215.828000", "163215.835000", "163215.845000", "163215.848000", "163215.851000", "163215.854000", "163215.856000", "163215.859000", "163215.862000", "163215.865000", "163215.868000", "163215.871000", "163215.874000", "163215.877000", "163235.810000", "163235.813000", "163235.816000", "163235.819000", "163235.822000", "163235.825000", "163235.828000", "163235.830000", "163235.834000", "163235.837000", "163235.840000", "163235.842000", "163235.845000", "163235.848000", "163235.851000", "163235.854000", "163235.857000", "163235.860000", "163235.863000", "163235.872000", "163255.810000", "163255.813000", "163255.816000", "163255.819000", "163255.830000", "163255.833000", "163255.836000", "163255.839000", "163255.842000", "163255.845000", "163255.848000", "163255.851000", "163255.854000", "163255.857000", "163255.860000", "163255.863000", "163255.866000", "163255.869000", "163255.872000", "163255.874000", "163322.938000", "163322.941000", "163322.944000", "163322.947000", "163322.950000", "163322.953000", "163322.956000", "163322.959000", "163322.962000", "163322.965000", "163322.968000", "163322.971000", "163322.974000", "163322.977000", "163322.980000", "163322.983000", "163322.986000", "163322.990000", "163322.993000", "163322.996000", "163323.000000", "163323.003000", "163323.006000"],
      "InstanceCreationTime": ["163135.852000", "163135.856000", "163135.859000", "163135.862000", "163135.865000", "163135.874000", "163135.877000", "163135.880000", "163135.883000", "163135.886000", "163135.889000", "163135.892000", "163135.895000", "163135.897000", "163135.900000", "163155.809000", "163155.812000", "163155.815000", "163155.818000", "163155.821000", "163155.824000", "163155.827000", "163155.830000", "163155.833000", "163155.836000", "163155.839000", "163155.848000", "163155.851000", "163155.854000", "163155.857000", "163155.860000", "163155.862000", "163155.865000", "163155.868000", "163155.871000", "163155.874000", "163215.810000", "163215.813000", "163215.816000", "163215.819000", "163215.822000", "163215.825000", "163215.828000", "163215.835000", "163215.845000", "163215.848000", "163215.851000", "163215.854000", "163215.856000", "163215.859000", "163215.862000", "163215.865000", "163215.868000", "163215.871000", "163215.874000", "163215.877000", "163235.810000", "163235.813000", "163235.816000", "163235.819000", "163235.822000", "163235.825000", "163235.828000", "163235.830000", "163235.834000", "163235.837000", "163235.840000", "163235.842000", "163235.845000", "163235.848000", "163235.851000", "163235.854000", "163235.857000", "163235.860000", "163235.863000", "163235.872000", "163255.810000", "163255.813000", "163255.816000", "163255.819000", "163255.830000", "163255.833000", "163255.836000", "163255.839000", "163255.842000", "163255.845000", "163255.848000", "163255.851000", "163255.854000", "163255.857000", "163255.860000", "163255.863000", "163255.866000", "163255.869000", "163255.872000", "163255.874000", "163322.938000", "163322.941000", "163322.944000", "163322.947000", "163322.950000", "163322.953000", "163322.956000", "163322.959000", "163322.962000", "163322.965000", "163322.968000", "163322.971000", "163322.974000", "163322.977000", "163322.980000", "163322.983000", "163322.986000", "163322.990000", "163322.993000", "163322.996000", "163323.000000", "163323.003000", "163323.006000"],
      "InstanceNumber": [1, 2, 3, 4, 5, 6, 7, 8, 9, 10, 11, 12, 13, 14, 15, 16, 17, 18, 19, 20, 21, 22, 23, 24, 25, 26, 27, 28, 29, 30, 31, 32, 33, 34, 35, 36, 37, 38, 39, 40, 41, 42, 43, 44, 45, 46, 47, 48, 49, 50, 51, 52, 53, 54, 55, 56, 57, 58, 59, 60, 61, 62, 63, 64, 65, 66, 67, 68, 69, 70, 71, 72, 73, 74, 75, 76, 77, 78, 79, 80, 81, 82, 83, 84, 85, 86, 87, 88, 89, 90, 91, 92, 93, 94, 95, 96, 97, 98, 99, 100, 101, 102, 103, 104, 105, 106, 107, 108, 109, 110, 111, 112, 113, 114, 115, 116, 117, 118, 119],
      "LargestImagePixelValue": [41590, 41486, 39915, 41401, 39677, 40325, 39509, 41577, 40381, 38777, 39173, 38459, 39448, 38901, 38782, 40431, 39440, 39155, 40308, 39246, 39727, 39705, 39448, 39613, 40711, 39616, 40381, 41264, 39943, 41010, 39464, 39516, 39379, 39420, 39992, 40637, 39478, 40030, 40764, 39514, 39662, 40186, 40833, 40393, 39636, 39709, 40640, 39307, 39783, 41723, 40559, 40328, 41396, 40788, 40373, 41128, 39567, 40461, 40743, 39812, 41178, 40049, 39830, 39460, 38870, 40746, 39138, 39626, 40440, 39479, 39014, 40089, 38986, 39205, 38773, 39983, 40555, 38546, 39061, 40077, 39239, 39222, 39779, 40429, 41270, 40191, 41166, 39803, 39838, 41838, 40169, 40346, 41227, 39512, 39969, 40236, 39213, 40175, 38555, 39615, 39849, 38951, 39678, 38917, 39702, 38747, 38602, 39187, 38982, 38700, 38787, 39722, 38862, 38929, 38785, 38854, 39321, 39944, 39601],
      "WindowCenter": [10262.0, 10236.0, 10208.0, 10225.0, 10199.0, 10183.0, 10180.0, 10239.0, 10222.0, 10196.0, 10203.0, 10190.0, 10207.0, 10203.0, 10187.0, 10202.0, 10208.0, 10201.0, 10219.0, 10211.0, 10220.0, 10216.0, 10209.0, 10200.0, 10185.0, 10173.0, 10201.0, 10233.0, 10242.0, 10232.0, 10176.0, 10153.0, 10168.0, 10211.0, 10228.0, 10221.0, 10201.0, 10205.0, 10207.0, 10201.0, 10205.0, 10193.0, 10185.0, 10180.0, 10182.0, 10183.0, 10187.0, 10190.0, 10217.0, 10242.0, 10218.0, 10215.0, 10214.0, 10198.0, 10213.0, 10237.0, 10206.0, 10204.0, 10202.0, 10191.0, 10233.0, 10217.0, 10213.0, 10193.0, 10177.0, 10201.0, 10194.0, 10218.0, 10218.0, 10198.0, 10189.0, 10190.0, 10187.0, 10211.0, 10194.0, 10208.0, 10206.0, 10182.0, 10195.0, 10206.0, 10201.0, 10210.0, 10210.0, 10217.0, 10227.0, 10216.0, 10210.0, 10173.0, 10179.0, 10221.0, 10205.0, 10201.0, 10199.0, 10183.0, 10208.0, 10215.0, 10179.0, 10176.0, 10142.0, 10152.0, 10166.0, 10165.0, 10193.0, 10198.0, 10195.0, 10166.0, 10161.0, 10165.0, 10178.0, 10205.0, 10198.0, 10194.0, 10176.0, 10169.0, 10166.0, 10179.0, 10204.0, 10237.0, 10245.0],
      "WindowWidth": [21741.0, 21662.0, 21595.0, 21624.0, 21571.0, 21524.0, 21524.0, 21651.0, 21615.0, 21561.0, 21575.0, 21549.0, 21581.0, 21578.0, 21543.0, 21568.0, 21590.0, 21573.0, 21609.0, 21597.0, 21615.0, 21602.0, 21587.0, 21564.0, 21524.0, 21511.0, 21566.0, 21636.0, 21660.0, 21640.0, 21513.0, 21460.0, 21496.0, 21601.0, 21636.0, 21613.0, 21574.0, 21580.0, 21584.0, 21576.0, 21585.0, 21551.0, 21523.0, 21521.0, 21527.0, 21527.0, 21531.0, 21540.0, 21606.0, 21655.0, 21610.0, 21601.0, 21594.0, 21560.0, 21594.0, 21646.0, 21581.0, 21585.0, 21564.0, 21545.0, 21638.0, 21605.0, 21602.0, 21550.0, 21516.0, 21565.0, 21557.0, 21609.0, 21610.0, 21571.0, 21554.0, 21545.0, 21547.0, 21600.0, 21562.0, 21583.0, 21578.0, 21530.0, 21557.0, 21576.0, 21566.0, 21590.0, 21589.0, 21604.0, 21618.0, 21600.0, 21581.0, 21504.0, 21519.0, 21611.0, 21575.0, 21574.0, 21556.0, 21526.0, 21582.0, 21596.0, 21515.0, 21501.0, 21434.0, 21460.0, 21489.0, 21491.0, 21552.0, 21571.0, 21558.0, 21497.0, 21481.0, 21491.0, 21521.0, 21585.0, 21566.0, 21553.0, 21528.0, 21506.0, 21509.0, 21525.0, 21587.0, 21659.0, 21684.0]
    },
    "slices": {}
  }
}