{
  "AcquisitionMatrixPE": 104,
  "AcquisitionNumber": 1,
  "AcquisitionTime": "16:42:54.800000",
  "BandwidthPerPixelPhaseEncode": 17.17,
  "BaseResolution": 104,
  "BodyPartExamined": "BRAIN",
  "CoilString": "HC1-7;NC1_2",
  "ConsistencyInfo": "N4_VE11C_LATEST_20160120",
  "ConversionSoftware": "dcm2niix",
  "ConversionSoftwareVersion": "v1.0.20190720  (JP2:OpenJPEG) GCC7.3.0",
  "DerivedVendorReportedEchoSpacing": 0.000560011,
  "DeviceSerialNumber": "167006",
  "DwellTime": 2.1e-06,
  "EchoTime": 0.037,
  "EchoTrainLength": 104,
  "EffectiveEchoSpacing": 0.000560011,
  "FlipAngle": 52,
  "ImageComments": "Unaliased_MB4_PE3_LB",
  "ImageOrientationPatientDICOM": [0.998817, 0.0424621, 0.0237025, -0.0312146, 0.93356, -0.35706],
  "ImageType": [
    "ORIGINAL",
    "PRIMARY",
    "M",
    "MB",
    "ND",
    "MOSAIC"
],
  "ImagingFrequency": 123.26,
  "InPlanePhaseEncodingDirectionDICOM": "COL",
  "InstitutionAddress": "Chemin_Queen-Mary_4565_Montreal_District_CA_H3W_1W5",
  "InstitutionName": "IUGM",
  "InstitutionalDepartmentName": "Department",
  "MRAcquisitionType": "2D",
  "MagneticFieldStrength": 3,
  "Manufacturer": "Siemens",
  "ManufacturersModelName": "Prisma_fit",
  "Modality": "MR",
  "MultibandAccelerationFactor": 4,
  "PartialFourier": 1,
  "PatientPosition": "HFS",
  "PercentPhaseFOV": 100,
  "PhaseEncodingDirection": "j",
  "PhaseEncodingSteps": 104,
  "PhaseResolution": 1,
  "PixelBandwidth": 2290,
  "ProcedureStepDescription": "hcptrt_generic",
  "ProtocolName": "func_task-gambling_run-1",
  "PulseSequenceDetails": "%CustomerSeq%_cmrr_mbep2d_bold",
  "ReceiveCoilActiveElements": "HC1-7;NC1,2",
  "ReceiveCoilName": "HeadNeck_64",
  "ReconMatrixPE": 104,
  "RepetitionTime": 1.49,
  "SAR": 0.0402418,
  "ScanOptions": "FS",
  "ScanningSequence": "EP",
  "SequenceName": "epfid2d1_104",
  "SequenceVariant": "SK_SS",
  "SeriesDescription": "func_task-gambling_run-1",
  "SeriesNumber": 17,
  "ShimSetting": [632, -7164, -8797, 674, 64, 87, -13, -17],
  "SliceThickness": 2,
  "SliceTiming": [0, 0.785, 0.0975, 0.8825, 0.1975, 0.98, 0.295, 1.0775, 0.3925, 1.1775, 0.49, 1.275, 0.5875, 1.3725, 0.6875, 0, 0.785, 0.0975, 0.8825, 0.1975, 0.98, 0.295, 1.0775, 0.3925, 1.1775, 0.49, 1.275, 0.5875, 1.3725, 0.6875, 0, 0.785, 0.0975, 0.8825, 0.1975, 0.98, 0.295, 1.0775, 0.3925, 1.1775, 0.49, 1.275, 0.5875, 1.3725, 0.6875, 0, 0.785, 0.0975, 0.8825, 0.1975, 0.98, 0.295, 1.0775, 0.3925, 1.1775, 0.49, 1.275, 0.5875, 1.3725, 0.6875],
  "SoftwareVersions": "syngo_MR_E11",
  "SpacingBetweenSlices": 2,
  "StationName": "MRC35049",
  "TaskName": "gambling",
  "TotalReadoutTime": 0.0576811,
  "TxRefAmp": 255.718,
  "WipMemBlock": "e9169a6c-03ed-4bc3-ae92-b5bb82cf4dc0||Sequence: R016 ve11c/master r/e634e98; Dec 19 2017 11:00:25 by eja",
  "dcmmeta_affine": [
    [-1.9976338148117065, -0.06242922320961952, 0.07457835972309113, 107.7426986694336],
    [-0.08492414653301239, 1.867119550704956, -0.7117951512336731, -54.74625778198242],
    [0.047404952347278595, 0.7141197919845581, 1.8675613403320312, -55.59830856323242],
    [0.0, 0.0, 0.0, 1.0]
],
  "dcmmeta_reorient_transform": [
    [0.0, -1.0, 0.0, 103.0],
    [1.0, 0.0, 0.0, 0.0],
    [0.0, 0.0, 1.0, 0.0],
    [0.0, 0.0, 0.0, 1.0]
],
  "dcmmeta_shape": [104, 104, 60, 129],
  "dcmmeta_slice_dim": 2,
  "dcmmeta_version": 0.6,
  "global": {
    "const": {
      "AcquisitionMatrix": [104, 0, 0, 104],
      "AngioFlag": "N",
      "BitsAllocated": 16,
      "BitsStored": 16,
      "BodyPartExamined": "BRAIN",
      "Columns": 832,
      "EchoNumbers": 1,
      "EchoTime": 37.0,
      "EchoTrainLength": 104,
      "FlipAngle": 52.0,
      "HighBit": 15,
      "ImageOrientationPatient": [0.99881688258057, 0.04246207354882, 0.02370247628338, -0.0312146118302, 0.93355979418259, -0.3570598811041],
      "ImagePositionPatient": [-805.72694029372, -848.11098115346, 260.64021650844],
      "ImageType": [
        "ORIGINAL",
        "PRIMARY",
        "M",
        "MB",
        "ND",
        "MOSAIC"
],
      "ImagedNucleus": "1H",
      "ImagingFrequency": 123.259523,
      "InPlanePhaseEncodingDirection": "COL",
      "MRAcquisitionType": "2D",
      "MagneticFieldStrength": 3.0,
      "Manufacturer": "SIEMENS",
      "ManufacturerModelName": "Prisma_fit",
      "Modality": "MR",
      "NumberOfAverages": 1.0,
      "NumberOfPhaseEncodingSteps": 104,
      "PercentPhaseFieldOfView": 100.0,
      "PercentSampling": 100.0,
      "PerformedProcedureStepStartTime": "160634.278000",
      "PhotometricInterpretation": "MONOCHROME2",
      "PixelBandwidth": 2290.0,
      "PixelRepresentation": 0,
      "PixelSpacing": [2.0, 2.0],
      "ProtocolName": "func_task-gambling_run-1",
      "RepetitionTime": 1490.0,
      "Rows": 832,
      "SAR": 0.04024177206056,
      "SamplesPerPixel": 1,
      "ScanOptions": "FS",
      "ScanningSequence": "EP",
      "SequenceName": "epfid2d1_104",
      "SequenceVariant": [
        "SK",
        "SS"
],
      "SeriesDescription": "func_task-gambling_run-1",
      "SeriesNumber": 17,
      "SeriesTime": "164415.835000",
      "SliceLocation": -28.414932933051,
      "SliceThickness": 2.0,
      "SmallestImagePixelValue": 0,
      "SoftwareVersions": "syngo MR E11",
      "SpacingBetweenSlices": 1.9999999414263,
      "SpecificCharacterSet": "ISO_IR 100",
      "StudyID": "1",
      "StudyTime": "160634.191000",
      "TransmitCoilName": "Body",
      "VariableFlipAngleFlag": "N",
      "WindowCenterWidthExplanation": "Algo1",
      "dBdt": 0.0},
    "slices": {}
  },
  "time": {
    "samples": {
      "AcquisitionNumber": [1, 2, 3, 4, 5, 6, 7, 8, 9, 10, 11, 12, 13, 14, 15, 16, 17, 18, 19, 20, 21, 22, 23, 24, 25, 26, 27, 28, 29, 30, 31, 32, 33, 34, 35, 36, 37, 38, 39, 40, 41, 42, 43, 44, 45, 46, 47, 48, 49, 50, 51, 52, 53, 54, 55, 56, 57, 58, 59, 60, 61, 62, 63, 64, 65, 66, 67, 68, 69, 70, 71, 72, 73, 74, 75, 76, 77, 78, 79, 80, 81, 82, 83, 84, 85, 86, 87, 88, 89, 90, 91, 92, 93, 94, 95, 96, 97, 98, 99, 100, 101, 102, 103, 104, 105, 106, 107, 108, 109, 110, 111, 112, 113, 114, 115, 116, 117, 118, 119, 120, 121, 122, 123, 124, 125, 126, 127, 128, 129],
      "AcquisitionTime": ["164254.800000", "164256.290000", "164257.780000", "164259.270000", "164300.760000", "164302.250000", "164303.740000", "164305.230000", "164306.720000", "164308.210000", "164309.700000", "164311.190000", "164312.680000", "164314.170000", "164315.660000", "164317.150000", "164318.640000", "164320.130000", "164321.620000", "164323.110000", "164324.600000", "164326.090000", "164327.580000", "164329.070000", "164330.560000", "164332.050000", "164333.540000", "164335.030000", "164336.520000", "164338.010000", "164339.500000", "164340.990000", "164342.480000", "164343.970000", "164345.460000", "164346.950000", "164348.440000", "164349.930000", "164351.420000", "164352.910000", "164354.400000", "164355.890000", "164357.380000", "164358.870000", "164400.360000", "164401.850000", "164403.340000", "164404.830000", "164406.320000", "164407.810000", "164409.300000", "164410.790000", "164412.280000", "164413.770000", "164415.260000", "164416.750000", "164418.240000", "164419.730000", "164421.220000", "164422.710000", "164424.200000", "164425.690000", "164427.180000", "164428.670000", "164430.160000", "164431.650000", "164433.140000", "164434.630000", "164436.120000", "164437.610000", "164439.100000", "164440.590000", "164442.080000", "164443.570000", "164445.060000", "164446.550000", "164448.040000", "164449.530000", "164451.020000", "164452.510000", "164454.000000", "164455.490000", "164456.980000", "164458.470000", "164459.960000", "164501.450000", "164502.940000", "164504.430000", "164505.920000", "164507.410000", "164508.900000", "164510.390000", "164511.880000", "164513.370000", "164514.860000", "164516.350000", "164517.840000", "164519.330000", "164520.820000", "164522.310000", "164523.800000", "164525.290000", "164526.780000", "164528.270000", "164529.760000", "164531.250000", "164532.740000", "164534.230000", "164535.720000", "164537.210000", "164538.700000", "164540.190000", "164541.680000", "164543.170000", "164544.660000", "164546.150000", "164547.640000", "164549.130000", "164550.620000", "164552.110000", "164553.600000", "164555.090000", "164556.580000", "164558.070000", "164559.560000", "164601.050000", "164602.540000", "164604.030000", "164605.520000"],
      "ContentTime": ["164415.837000", "164415.841000", "164415.844000", "164415.847000", "164415.849000", "164415.860000", "164415.863000", "164415.866000", "164415.869000", "164415.872000", "164415.875000", "164415.878000", "164415.881000", "164415.883000", "164415.886000", "164415.889000", "164415.892000", "164415.902000", "164415.905000", "164415.908000", "164415.911000", "164415.914000", "164415.917000", "164415.920000", "164415.923000", "164415.926000", "164415.929000", "164435.810000", "164435.813000", "164435.816000", "164435.819000", "164435.822000", "164435.826000", "164435.829000", "164435.832000", "164435.835000", "164435.837000", "164435.840000", "164435.843000", "164435.846000", "164435.849000", "164435.852000", "164435.855000", "164435.858000", "164435.861000", "164435.864000", "164435.867000", "164455.810000", "164455.813000", "164455.816000", "164455.819000", "164455.822000", "164455.825000", "164455.828000", "164455.831000", "164455.833000", "164455.836000", "164455.839000", "164455.842000", "164455.845000", "164455.848000", "164455.851000", "164455.854000", "164455.857000", "164455.870000", "164455.873000", "164455.875000", "164515.810000", "164515.813000", "164515.816000", "164515.819000", "164515.822000", "164515.832000", "164515.838000", "164515.841000", "164515.844000", "164515.847000", "164515.850000", "164515.853000", "164515.856000", "164515.859000", "164515.862000", "164515.865000", "164515.868000", "164515.871000", "164515.874000", "164515.877000", "164535.809000", "164535.816000", "164535.819000", "164535.822000", "164535.825000", "164535.828000", "164535.831000", "164535.834000", "164535.837000", "164535.839000", "164535.842000", "164535.845000", "164535.848000", "164535.851000", "164535.854000", "164535.857000", "164535.860000", "164535.863000", "164535.866000", "164535.869000", "164607.621000", "164607.624000", "164607.627000", "164607.630000", "164607.633000", "164607.636000", "164607.639000", "164607.642000", "164607.645000", "164607.648000", "164607.651000", "164607.654000", "164607.657000", "164607.660000", "164607.663000", "164607.666000", "164607.669000", "164607.672000", "164607.676000", "164607.679000", "164607.682000", "164607.685000"],
      "InstanceCreationTime": ["164415.837000", "164415.841000", "164415.844000", "164415.847000", "164415.849000", "164415.860000", "164415.863000", "164415.866000", "164415.869000", "164415.872000", "164415.875000", "164415.878000", "164415.881000", "164415.883000", "164415.886000", "164415.889000", "164415.892000", "164415.902000", "164415.905000", "164415.908000", "164415.911000", "164415.914000", "164415.917000", "164415.920000", "164415.923000", "164415.926000", "164415.929000", "164435.810000", "164435.813000", "164435.816000", "164435.819000", "164435.822000", "164435.826000", "164435.829000", "164435.832000", "164435.835000", "164435.837000", "164435.840000", "164435.843000", "164435.846000", "164435.849000", "164435.852000", "164435.855000", "164435.858000", "164435.861000", "164435.864000", "164435.867000", "164455.810000", "164455.813000", "164455.816000", "164455.819000", "164455.822000", "164455.825000", "164455.828000", "164455.831000", "164455.833000", "164455.836000", "164455.839000", "164455.842000", "164455.845000", "164455.848000", "164455.851000", "164455.854000", "164455.857000", "164455.870000", "164455.873000", "164455.875000", "164515.810000", "164515.813000", "164515.816000", "164515.819000", "164515.822000", "164515.832000", "164515.838000", "164515.841000", "164515.844000", "164515.847000", "164515.850000", "164515.853000", "164515.856000", "164515.859000", "164515.862000", "164515.865000", "164515.868000", "164515.871000", "164515.874000", "164515.877000", "164535.809000", "164535.816000", "164535.819000", "164535.822000", "164535.825000", "164535.828000", "164535.831000", "164535.834000", "164535.837000", "164535.839000", "164535.842000", "164535.845000", "164535.848000", "164535.851000", "164535.854000", "164535.857000", "164535.860000", "164535.863000", "164535.866000", "164535.869000", "164607.621000", "164607.624000", "164607.627000", "164607.630000", "164607.633000", "164607.636000", "164607.639000", "164607.642000", "164607.645000", "164607.648000", "164607.651000", "164607.654000", "164607.657000", "164607.660000", "164607.663000", "164607.666000", "164607.669000", "164607.672000", "164607.676000", "164607.679000", "164607.682000", "164607.685000"],
      "InstanceNumber": [1, 2, 3, 4, 5, 6, 7, 8, 9, 10, 11, 12, 13, 14, 15, 16, 17, 18, 19, 20, 21, 22, 23, 24, 25, 26, 27, 28, 29, 30, 31, 32, 33, 34, 35, 36, 37, 38, 39, 40, 41, 42, 43, 44, 45, 46, 47, 48, 49, 50, 51, 52, 53, 54, 55, 56, 57, 58, 59, 60, 61, 62, 63, 64, 65, 66, 67, 68, 69, 70, 71, 72, 73, 74, 75, 76, 77, 78, 79, 80, 81, 82, 83, 84, 85, 86, 87, 88, 89, 90, 91, 92, 93, 94, 95, 96, 97, 98, 99, 100, 101, 102, 103, 104, 105, 106, 107, 108, 109, 110, 111, 112, 113, 114, 115, 116, 117, 118, 119, 120, 121, 122, 123, 124, 125, 126, 127, 128, 129],
      "LargestImagePixelValue": [43322, 42021, 42775, 42308, 38753, 40325, 39038, 39655, 38004, 40059, 41308, 39911, 40334, 40669, 39336, 40086, 38872, 38764, 38992, 38249, 39357, 38115, 38337, 38542, 38861, 38748, 38158, 38124, 38572, 38261, 38827, 38466, 38668, 38813, 38786, 39709, 39533, 38592, 38998, 39213, 38988, 38721, 38876, 40573, 39900, 38769, 38995, 39478, 39268, 39572, 39110, 39010, 39813, 40654, 40744, 40590, 39865, 40016, 39879, 38913, 38792, 41350, 40582, 41093, 41125, 41951, 41801, 41816, 41776, 41219, 41819, 41228, 41598, 41906, 41860, 42345, 42142, 41798, 41876, 43552, 43476, 43396, 42626, 42957, 42785, 43471, 42899, 43109, 43530, 43400, 43805, 43740, 42387, 43447, 43881, 43310, 43346, 43467, 43767, 45647, 44924, 44916, 44862, 44913, 45118, 45040, 44733, 44094, 44606, 45097, 44468, 44870, 44725, 44936, 44340, 45134, 45087, 43619, 44170, 45166, 44311, 44724, 43811, 44505, 44396, 43778, 44309, 44169, 43135],
      "WindowCenter": [10244.0, 10198.0, 10202.0, 10196.0, 10169.0, 10179.0, 10166.0, 10170.0, 10156.0, 10180.0, 10192.0, 10157.0, 10172.0, 10200.0, 10204.0, 10207.0, 10171.0, 10161.0, 10150.0, 10133.0, 10154.0, 10147.0, 10162.0, 10162.0, 10157.0, 10149.0, 10145.0, 10154.0, 10167.0, 10154.0, 10155.0, 10133.0, 10131.0, 10141.0, 10148.0, 10170.0, 10178.0, 10168.0, 10172.0, 10164.0, 10166.0, 10157.0, 10159.0, 10181.0, 10177.0, 10185.0, 10203.0, 10197.0, 10192.0, 10171.0, 10149.0, 10149.0, 10153.0, 10167.0, 10158.0, 10171.0, 10171.0, 10180.0, 10180.0, 10153.0, 10135.0, 10136.0, 10144.0, 10189.0, 10228.0, 10214.0, 10192.0, 10178.0, 10176.0, 10181.0, 10185.0, 10190.0, 10181.0, 10179.0, 10176.0, 10165.0, 10165.0, 10169.0, 10175.0, 10193.0, 10192.0, 10210.0, 10210.0, 10224.0, 10209.0, 10186.0, 10163.0, 10158.0, 10177.0, 10184.0, 10193.0, 10198.0, 10184.0, 10187.0, 10198.0, 10233.0, 10253.0, 10234.0, 10215.0, 10213.0, 10184.0, 10192.0, 10212.0, 10239.0, 10232.0, 10217.0, 10195.0, 10181.0, 10184.0, 10190.0, 10214.0, 10239.0, 10236.0, 10226.0, 10199.0, 10197.0, 10191.0, 10179.0, 10199.0, 10205.0, 10207.0, 10225.0, 10220.0, 10219.0, 10209.0, 10202.0, 10203.0, 10210.0, 10198.0],
      "WindowWidth": [21682.0, 21567.0, 21566.0, 21555.0, 21502.0, 21514.0, 21486.0, 21487.0, 21468.0, 21515.0, 21540.0, 21456.0, 21488.0, 21554.0, 21581.0, 21575.0, 21501.0, 21479.0, 21452.0, 21416.0, 21462.0, 21454.0, 21484.0, 21481.0, 21464.0, 21446.0, 21447.0, 21463.0, 21487.0, 21461.0, 21470.0, 21410.0, 21406.0, 21436.0, 21442.0, 21488.0, 21510.0, 21487.0, 21492.0, 21477.0, 21487.0, 21466.0, 21472.0, 21509.0, 21503.0, 21530.0, 21570.0, 21557.0, 21542.0, 21489.0, 21449.0, 21451.0, 21456.0, 21487.0, 21459.0, 21487.0, 21492.0, 21515.0, 21514.0, 21467.0, 21425.0, 21405.0, 21431.0, 21536.0, 21629.0, 21581.0, 21533.0, 21498.0, 21493.0, 21512.0, 21515.0, 21531.0, 21510.0, 21505.0, 21493.0, 21467.0, 21470.0, 21484.0, 21493.0, 21524.0, 21518.0, 21569.0, 21572.0, 21599.0, 21563.0, 21505.0, 21457.0, 21444.0, 21501.0, 21509.0, 21530.0, 21537.0, 21514.0, 21513.0, 21533.0, 21621.0, 21667.0, 21621.0, 21576.0, 21566.0, 21495.0, 21513.0, 21567.0, 21627.0, 21608.0, 21577.0, 21521.0, 21495.0, 21497.0, 21509.0, 21576.0, 21629.0, 21625.0, 21596.0, 21535.0, 21530.0, 21512.0, 21505.0, 21543.0, 21550.0, 21556.0, 21594.0, 21585.0, 21581.0, 21557.0, 21547.0, 21551.0, 21564.0, 21544.0]
    },
    "slices": {}
  }
}