{
  "AcquisitionMatrixPE": 104,
  "AcquisitionNumber": 1,
  "AcquisitionTime": "16:47:14.412500",
  "BandwidthPerPixelPhaseEncode": 17.17,
  "BaseResolution": 104,
  "BodyPartExamined": "BRAIN",
  "CoilString": "HC1-7;NC1_2",
  "ConsistencyInfo": "N4_VE11C_LATEST_20160120",
  "ConversionSoftware": "dcm2niix",
  "ConversionSoftwareVersion": "v1.0.20190720  (JP2:OpenJPEG) GCC7.3.0",
  "DerivedVendorReportedEchoSpacing": 0.000560011,
  "DeviceSerialNumber": "167006",
  "DwellTime": 2.1e-06,
  "EchoTime": 0.037,
  "EchoTrainLength": 104,
  "EffectiveEchoSpacing": 0.000560011,
  "FlipAngle": 52,
  "ImageComments": "Unaliased_MB4_PE3_LB",
  "ImageOrientationPatientDICOM": [0.998817, 0.0424621, 0.0237025, -0.0312146, 0.93356, -0.35706],
  "ImageType": [
    "ORIGINAL",
    "PRIMARY",
    "M",
    "MB",
    "ND",
    "MOSAIC"
],
  "ImagingFrequency": 123.26,
  "InPlanePhaseEncodingDirectionDICOM": "COL",
  "InstitutionAddress": "Chemin_Queen-Mary_4565_Montreal_District_CA_H3W_1W5",
  "InstitutionName": "IUGM",
  "InstitutionalDepartmentName": "Department",
  "MRAcquisitionType": "2D",
  "MagneticFieldStrength": 3,
  "Manufacturer": "Siemens",
  "ManufacturersModelName": "Prisma_fit",
  "Modality": "MR",
  "MultibandAccelerationFactor": 4,
  "PartialFourier": 1,
  "PatientPosition": "HFS",
  "PercentPhaseFOV": 100,
  "PhaseEncodingDirection": "j",
  "PhaseEncodingSteps": 104,
  "PhaseResolution": 1,
  "PixelBandwidth": 2290,
  "ProcedureStepDescription": "hcptrt_generic",
  "ProtocolName": "func_task-motor_run-1",
  "PulseSequenceDetails": "%CustomerSeq%_cmrr_mbep2d_bold",
  "ReceiveCoilActiveElements": "HC1-7;NC1,2",
  "ReceiveCoilName": "HeadNeck_64",
  "ReconMatrixPE": 104,
  "RepetitionTime": 1.49,
  "SAR": 0.0403022,
  "ScanOptions": "FS",
  "ScanningSequence": "EP",
  "SequenceName": "epfid2d1_104",
  "SequenceVariant": "SK_SS",
  "SeriesDescription": "func_task-motor_run-1",
  "SeriesNumber": 19,
  "ShimSetting": [632, -7164, -8797, 674, 64, 87, -13, -17],
  "SliceThickness": 2,
  "SliceTiming": [0, 0.7825, 0.0975, 0.8825, 0.195, 0.98, 0.2925, 1.0775, 0.3925, 1.175, 0.49, 1.2725, 0.5875, 1.3725, 0.685, 0, 0.7825, 0.0975, 0.8825, 0.195, 0.98, 0.2925, 1.0775, 0.3925, 1.175, 0.49, 1.2725, 0.5875, 1.3725, 0.685, 0, 0.7825, 0.0975, 0.8825, 0.195, 0.98, 0.2925, 1.0775, 0.3925, 1.175, 0.49, 1.2725, 0.5875, 1.3725, 0.685, 0, 0.7825, 0.0975, 0.8825, 0.195, 0.98, 0.2925, 1.0775, 0.3925, 1.175, 0.49, 1.2725, 0.5875, 1.3725, 0.685],
  "SoftwareVersions": "syngo_MR_E11",
  "SpacingBetweenSlices": 2,
  "StationName": "MRC35049",
  "TaskName": "motor",
  "TotalReadoutTime": 0.0576811,
  "TxRefAmp": 255.718,
  "WipMemBlock": "e04ce694-10b7-4f72-a2bc-5ff824046ef8||Sequence: R016 ve11c/master r/e634e98; Dec 19 2017 11:00:25 by eja",
  "dcmmeta_affine": [
    [-1.9976338148117065, -0.06242922320961952, 0.07457835972309113, 107.7426986694336],
    [-0.08492414653301239, 1.867119550704956, -0.7117951512336731, -54.74625778198242],
    [0.047404952347278595, 0.7141197919845581, 1.8675613403320312, -55.59830856323242],
    [0.0, 0.0, 0.0, 1.0]
],
  "dcmmeta_reorient_transform": [
    [0.0, -1.0, 0.0, 103.0],
    [1.0, 0.0, 0.0, 0.0],
    [0.0, 0.0, 1.0, 0.0],
    [0.0, 0.0, 0.0, 1.0]
],
  "dcmmeta_shape": [104, 104, 60, 144],
  "dcmmeta_slice_dim": 2,
  "dcmmeta_version": 0.6,
  "global": {
    "const": {
      "AcquisitionMatrix": [104, 0, 0, 104],
      "AngioFlag": "N",
      "BitsAllocated": 16,
      "BitsStored": 16,
      "BodyPartExamined": "BRAIN",
      "Columns": 832,
      "EchoNumbers": 1,
      "EchoTime": 37.0,
      "EchoTrainLength": 104,
      "FlipAngle": 52.0,
      "HighBit": 15,
      "ImageOrientationPatient": [0.99881688258057, 0.04246207354882, 0.02370247628338, -0.0312146118302, 0.93355979418259, -0.3570598811041],
      "ImagePositionPatient": [-805.72694029372, -848.11098115346, 260.64021650844],
      "ImageType": [
        "ORIGINAL",
        "PRIMARY",
        "M",
        "MB",
        "ND",
        "MOSAIC"
],
      "ImagedNucleus": "1H",
      "ImagingFrequency": 123.259524,
      "InPlanePhaseEncodingDirection": "COL",
      "MRAcquisitionType": "2D",
      "MagneticFieldStrength": 3.0,
      "Manufacturer": "SIEMENS",
      "ManufacturerModelName": "Prisma_fit",
      "Modality": "MR",
      "NumberOfAverages": 1.0,
      "NumberOfPhaseEncodingSteps": 104,
      "PercentPhaseFieldOfView": 100.0,
      "PercentSampling": 100.0,
      "PerformedProcedureStepStartTime": "160634.278000",
      "PhotometricInterpretation": "MONOCHROME2",
      "PixelBandwidth": 2290.0,
      "PixelRepresentation": 0,
      "PixelSpacing": [2.0, 2.0],
      "ProtocolName": "func_task-motor_run-1",
      "RepetitionTime": 1490.0,
      "Rows": 832,
      "SAR": 0.04030223020729,
      "SamplesPerPixel": 1,
      "ScanOptions": "FS",
      "ScanningSequence": "EP",
      "SequenceName": "epfid2d1_104",
      "SequenceVariant": [
        "SK",
        "SS"
],
      "SeriesDescription": "func_task-motor_run-1",
      "SeriesNumber": 19,
      "SeriesTime": "164835.950000",
      "SliceLocation": -28.414932933051,
      "SliceThickness": 2.0,
      "SmallestImagePixelValue": 0,
      "SoftwareVersions": "syngo MR E11",
      "SpacingBetweenSlices": 1.9999999414263,
      "SpecificCharacterSet": "ISO_IR 100",
      "StudyID": "1",
      "StudyTime": "160634.191000",
      "TransmitCoilName": "Body",
      "VariableFlipAngleFlag": "N",
      "WindowCenterWidthExplanation": "Algo1",
      "dBdt": 0.0},
    "slices": {}
  },
  "time": {
    "samples": {
      "AcquisitionNumber": [1, 2, 3, 4, 5, 6, 7, 8, 9, 10, 11, 12, 13, 14, 15, 16, 17, 18, 19, 20, 21, 22, 23, 24, 25, 26, 27, 28, 29, 30, 31, 32, 33, 34, 35, 36, 37, 38, 39, 40, 41, 42, 43, 44, 45, 46, 47, 48, 49, 50, 51, 52, 53, 54, 55, 56, 57, 58, 59, 60, 61, 62, 63, 64, 65, 66, 67, 68, 69, 70, 71, 72, 73, 74, 75, 76, 77, 78, 79, 80, 81, 82, 83, 84, 85, 86, 87, 88, 89, 90, 91, 92, 93, 94, 95, 96, 97, 98, 99, 100, 101, 102, 103, 104, 105, 106, 107, 108, 109, 110, 111, 112, 113, 114, 115, 116, 117, 118, 119, 120, 121, 122, 123, 124, 125, 126, 127, 128, 129, 130, 131, 132, 133, 134, 135, 136, 137, 138, 139, 140, 141, 142, 143, 144],
      "AcquisitionTime": ["164714.412500", "164715.902500", "164717.392500", "164718.882500", "164720.372500", "164721.862500", "164723.352500", "164724.842500", "164726.332500", "164727.822500", "164729.312500", "164730.802500", "164732.292500", "164733.782500", "164735.272500", "164736.762500", "164738.252500", "164739.742500", "164741.232500", "164742.722500", "164744.212500", "164745.702500", "164747.192500", "164748.682500", "164750.172500", "164751.662500", "164753.152500", "164754.642500", "164756.132500", "164757.622500", "164759.112500", "164800.602500", "164802.092500", "164803.582500", "164805.072500", "164806.562500", "164808.052500", "164809.542500", "164811.032500", "164812.522500", "164814.012500", "164815.502500", "164816.992500", "164818.482500", "164819.972500", "164821.462500", "164822.952500", "164824.442500", "164825.932500", "164827.422500", "164828.912500", "164830.402500", "164831.892500", "164833.382500", "164834.872500", "164836.362500", "164837.852500", "164839.342500", "164840.832500", "164842.322500", "164843.812500", "164845.302500", "164846.792500", "164848.282500", "164849.772500", "164851.262500", "164852.752500", "164854.242500", "164855.732500", "164857.222500", "164858.712500", "164900.202500", "164901.692500", "164903.182500", "164904.672500", "164906.162500", "164907.652500", "164909.142500", "164910.632500", "164912.122500", "164913.612500", "164915.102500", "164916.592500", "164918.082500", "164919.572500", "164921.062500", "164922.552500", "164924.042500", "164925.532500", "164927.022500", "164928.512500", "164930.002500", "164931.492500", "164932.982500", "164934.472500", "164935.962500", "164937.452500", "164938.942500", "164940.432500", "164941.922500", "164943.412500", "164944.902500", "164946.392500", "164947.882500", "164949.372500", "164950.862500", "164952.352500", "164953.842500", "164955.332500", "164956.822500", "164958.312500", "164959.802500", "165001.292500", "165002.782500", "165004.272500", "165005.762500", "165007.252500", "165008.742500", "165010.232500", "165011.722500", "165013.212500", "165014.702500", "165016.192500", "165017.682500", "165019.172500", "165020.662500", "165022.152500", "165023.642500", "165025.132500", "165026.622500", "165028.112500", "165029.602500", "165031.092500", "165032.582500", "165034.072500", "165035.562500", "165037.052500", "165038.542500", "165040.032500", "165041.522500", "165043.012500", "165044.502500", "165045.992500", "165047.482500"],
      "ContentTime": ["164835.953000", "164835.957000", "164835.960000", "164835.963000", "164835.975000", "164835.978000", "164835.981000", "164835.984000", "164835.987000", "164835.990000", "164835.993000", "164835.996000", "164836.000000", "164836.003000", "164836.006000", "164836.009000", "164836.011000", "164836.014000", "164836.019000", "164836.022000", "164836.025000", "164836.031000", "164836.034000", "164836.037000", "164836.040000", "164836.043000", "164855.918000", "164855.921000", "164855.924000", "164855.927000", "164855.930000", "164855.933000", "164855.936000", "164855.939000", "164855.942000", "164855.945000", "164855.947000", "164855.950000", "164855.953000", "164855.965000", "164855.968000", "164855.970000", "164855.973000", "164855.976000", "164855.979000", "164855.982000", "164855.985000", "164915.918000", "164915.921000", "164915.924000", "164915.927000", "164915.930000", "164915.933000", "164915.936000", "164915.939000", "164915.942000", "164915.945000", "164915.948000", "164915.950000", "164915.953000", "164915.956000", "164915.959000", "164915.962000", "164915.965000", "164915.982000", "164915.985000", "164915.988000", "164935.918000", "164935.921000", "164935.924000", "164935.927000", "164935.930000", "164935.933000", "164935.936000", "164935.939000", "164935.942000", "164935.945000", "164935.948000", "164935.955000", "164935.958000", "164935.961000", "164935.964000", "164935.967000", "164935.970000", "164935.973000", "164935.976000", "164935.979000", "164955.918000", "164955.921000", "164955.924000", "164955.927000", "164955.930000", "164955.933000", "164955.936000", "164955.938000", "164955.941000", "164955.944000", "164955.947000", "164955.950000", "164955.953000", "164955.956000", "164955.959000", "164955.962000", "164955.965000", "164955.968000", "164955.971000", "164955.974000", "165015.918000", "165015.921000", "165015.924000", "165015.927000", "165015.930000", "165015.933000", "165015.936000", "165015.939000", "165015.942000", "165015.945000", "165015.947000", "165015.950000", "165015.953000", "165015.956000", "165049.577000", "165049.581000", "165049.587000", "165049.590000", "165049.593000", "165049.596000", "165049.599000", "165049.602000", "165049.605000", "165049.608000", "165049.612000", "165049.615000", "165049.619000", "165049.622000", "165049.626000", "165049.629000", "165049.632000", "165049.635000", "165049.639000", "165049.642000", "165049.645000", "165049.649000", "165049.652000"],
      "InstanceCreationTime": ["164835.953000", "164835.957000", "164835.960000", "164835.963000", "164835.975000", "164835.978000", "164835.981000", "164835.984000", "164835.987000", "164835.990000", "164835.993000", "164835.996000", "164836.000000", "164836.003000", "164836.006000", "164836.009000", "164836.011000", "164836.014000", "164836.019000", "164836.022000", "164836.025000", "164836.031000", "164836.034000", "164836.037000", "164836.040000", "164836.043000", "164855.918000", "164855.921000", "164855.924000", "164855.927000", "164855.930000", "164855.933000", "164855.936000", "164855.939000", "164855.942000", "164855.945000", "164855.947000", "164855.950000", "164855.953000", "164855.965000", "164855.968000", "164855.970000", "164855.973000", "164855.976000", "164855.979000", "164855.982000", "164855.985000", "164915.918000", "164915.921000", "164915.924000", "164915.927000", "164915.930000", "164915.933000", "164915.936000", "164915.939000", "164915.942000", "164915.945000", "164915.948000", "164915.950000", "164915.953000", "164915.956000", "164915.959000", "164915.962000", "164915.965000", "164915.982000", "164915.985000", "164915.988000", "164935.918000", "164935.921000", "164935.924000", "164935.927000", "164935.930000", "164935.933000", "164935.936000", "164935.939000", "164935.942000", "164935.945000", "164935.948000", "164935.955000", "164935.958000", "164935.961000", "164935.964000", "164935.967000", "164935.970000", "164935.973000", "164935.976000", "164935.979000", "164955.918000", "164955.921000", "164955.924000", "164955.927000", "164955.930000", "164955.933000", "164955.936000", "164955.938000", "164955.941000", "164955.944000", "164955.947000", "164955.950000", "164955.953000", "164955.956000", "164955.959000", "164955.962000", "164955.965000", "164955.968000", "164955.971000", "164955.974000", "165015.918000", "165015.921000", "165015.924000", "165015.927000", "165015.930000", "165015.933000", "165015.936000", "165015.939000", "165015.942000", "165015.945000", "165015.947000", "165015.950000", "165015.953000", "165015.956000", "165049.577000", "165049.581000", "165049.587000", "165049.590000", "165049.593000", "165049.596000", "165049.599000", "165049.602000", "165049.605000", "165049.608000", "165049.612000", "165049.615000", "165049.619000", "165049.622000", "165049.626000", "165049.629000", "165049.632000", "165049.635000", "165049.639000", "165049.642000", "165049.645000", "165049.649000", "165049.652000"],
      "InstanceNumber": [1, 2, 3, 4, 5, 6, 7, 8, 9, 10, 11, 12, 13, 14, 15, 16, 17, 18, 19, 20, 21, 22, 23, 24, 25, 26, 27, 28, 29, 30, 31, 32, 33, 34, 35, 36, 37, 38, 39, 40, 41, 42, 43, 44, 45, 46, 47, 48, 49, 50, 51, 52, 53, 54, 55, 56, 57, 58, 59, 60, 61, 62, 63, 64, 65, 66, 67, 68, 69, 70, 71, 72, 73, 74, 75, 76, 77, 78, 79, 80, 81, 82, 83, 84, 85, 86, 87, 88, 89, 90, 91, 92, 93, 94, 95, 96, 97, 98, 99, 100, 101, 102, 103, 104, 105, 106, 107, 108, 109, 110, 111, 112, 113, 114, 115, 116, 117, 118, 119, 120, 121, 122, 123, 124, 125, 126, 127, 128, 129, 130, 131, 132, 133, 134, 135, 136, 137, 138, 139, 140, 141, 142, 143, 144],
      "LargestImagePixelValue": [41135, 45151, 41586, 41138, 39625, 39621, 39743, 38606, 38161, 38177, 38435, 39072, 38331, 38413, 38556, 37872, 38237, 40934, 38024, 38327, 38197, 38197, 37749, 38389, 37949, 38084, 38326, 38487, 37775, 38249, 37937, 38670, 37861, 37908, 38248, 38285, 37873, 38011, 38417, 38444, 38126, 38371, 38537, 38220, 38652, 39084, 38977, 38461, 38677, 40309, 40576, 39336, 38840, 39428, 39180, 39348, 38266, 38333, 38696, 38584, 38990, 38774, 39414, 39051, 39525, 39806, 39008, 39162, 39144, 38973, 39558, 39375, 39350, 39527, 38863, 39861, 38977, 38979, 38829, 38057, 38811, 38292, 38072, 38172, 38266, 38270, 37930, 41594, 37846, 38361, 37961, 38140, 38012, 37689, 38151, 38326, 38702, 38966, 38603, 37918, 39804, 39372, 38872, 38540, 39021, 38680, 38574, 38095, 38016, 38555, 38797, 38516, 38933, 38714, 38605, 39138, 38981, 39032, 39181, 39753, 40287, 39713, 39220, 39112, 38818, 38405, 39457, 38921, 38823, 38532, 39293, 41158, 40368, 38201, 38553, 38397, 37869, 37551, 42250, 37657, 38485, 39694, 39697, 38939],
      "WindowCenter": [10245.0, 10244.0, 10204.0, 10211.0, 10221.0, 10238.0, 10226.0, 10185.0, 10168.0, 10157.0, 10164.0, 10198.0, 10203.0, 10189.0, 10171.0, 10154.0, 10150.0, 10175.0, 10173.0, 10192.0, 10212.0, 10223.0, 10201.0, 10185.0, 10166.0, 10159.0, 10176.0, 10188.0, 10183.0, 10194.0, 10168.0, 10154.0, 10142.0, 10141.0, 10148.0, 10159.0, 10153.0, 10159.0, 10167.0, 10164.0, 10166.0, 10170.0, 10179.0, 10173.0, 10169.0, 10176.0, 10166.0, 10161.0, 10175.0, 10194.0, 10204.0, 10194.0, 10196.0, 10202.0, 10185.0, 10185.0, 10168.0, 10170.0, 10187.0, 10188.0, 10196.0, 10187.0, 10192.0, 10188.0, 10192.0, 10202.0, 10186.0, 10175.0, 10174.0, 10167.0, 10178.0, 10180.0, 10189.0, 10197.0, 10177.0, 10186.0, 10184.0, 10194.0, 10205.0, 10190.0, 10187.0, 10181.0, 10174.0, 10189.0, 10188.0, 10182.0, 10186.0, 10219.0, 10174.0, 10181.0, 10155.0, 10145.0, 10167.0, 10176.0, 10181.0, 10171.0, 10152.0, 10148.0, 10157.0, 10165.0, 10191.0, 10190.0, 10178.0, 10170.0, 10172.0, 10166.0, 10175.0, 10163.0, 10171.0, 10194.0, 10196.0, 10204.0, 10195.0, 10199.0, 10189.0, 10188.0, 10187.0, 10184.0, 10184.0, 10197.0, 10213.0, 10209.0, 10209.0, 10196.0, 10180.0, 10163.0, 10180.0, 10186.0, 10185.0, 10182.0, 10193.0, 10216.0, 10202.0, 10178.0, 10203.0, 10214.0, 10211.0, 10178.0, 10194.0, 10139.0, 10149.0, 10186.0, 10194.0, 10189.0],
      "WindowWidth": [21697.0, 21668.0, 21581.0, 21584.0, 21615.0, 21646.0, 21622.0, 21529.0, 21492.0, 21468.0, 21486.0, 21568.0, 21582.0, 21550.0, 21509.0, 21473.0, 21463.0, 21504.0, 21506.0, 21549.0, 21596.0, 21622.0, 21575.0, 21532.0, 21489.0, 21478.0, 21515.0, 21546.0, 21532.0, 21555.0, 21496.0, 21458.0, 21439.0, 21439.0, 21450.0, 21478.0, 21462.0, 21472.0, 21488.0, 21486.0, 21494.0, 21496.0, 21519.0, 21511.0, 21495.0, 21509.0, 21487.0, 21479.0, 21509.0, 21542.0, 21566.0, 21548.0, 21556.0, 21568.0, 21527.0, 21531.0, 21491.0, 21497.0, 21535.0, 21536.0, 21563.0, 21537.0, 21548.0, 21543.0, 21546.0, 21578.0, 21539.0, 21507.0, 21505.0, 21489.0, 21509.0, 21515.0, 21539.0, 21556.0, 21513.0, 21529.0, 21532.0, 21551.0, 21579.0, 21543.0, 21535.0, 21529.0, 21514.0, 21547.0, 21542.0, 21530.0, 21540.0, 21611.0, 21507.0, 21522.0, 21462.0, 21441.0, 21508.0, 21521.0, 21525.0, 21500.0, 21460.0, 21451.0, 21468.0, 21495.0, 21542.0, 21535.0, 21514.0, 21498.0, 21497.0, 21484.0, 21511.0, 21486.0, 21504.0, 21552.0, 21560.0, 21578.0, 21556.0, 21575.0, 21546.0, 21544.0, 21542.0, 21533.0, 21530.0, 21557.0, 21592.0, 21581.0, 21579.0, 21557.0, 21522.0, 21485.0, 21515.0, 21536.0, 21533.0, 21530.0, 21547.0, 21597.0, 21570.0, 21516.0, 21576.0, 21599.0, 21595.0, 21518.0, 21544.0, 21440.0, 21454.0, 21534.0, 21555.0, 21544.0]
    },
    "slices": {}
  }
}