{
  "AcquisitionMatrixPE": 104,
  "AcquisitionNumber": 1,
  "AcquisitionTime": "15:18:16.062500",
  "BandwidthPerPixelPhaseEncode": 17.17,
  "BaseResolution": 104,
  "BodyPartExamined": "BRAIN",
  "CoilString": "HC1-7;NC1_2",
  "ConsistencyInfo": "N4_VE11C_LATEST_20160120",
  "ConversionSoftware": "dcm2niix",
  "ConversionSoftwareVersion": "v1.0.20190720  (JP2:OpenJPEG) GCC7.3.0",
  "DerivedVendorReportedEchoSpacing": 0.000560011,
  "DeviceSerialNumber": "167006",
  "DwellTime": 2.1e-06,
  "EchoTime": 0.037,
  "EchoTrainLength": 104,
  "EffectiveEchoSpacing": 0.000560011,
  "FlipAngle": 52,
  "ImageComments": "Unaliased_MB4_PE3_LB",
  "ImageOrientationPatientDICOM": [0.999989, -0.000302703, 0.00471727, 0.00261799, 0.866379, -0.499379],
  "ImageType": [
    "ORIGINAL",
    "PRIMARY",
    "M",
    "MB",
    "ND",
    "MOSAIC"
],
  "ImagingFrequency": 123.259,
  "InPlanePhaseEncodingDirectionDICOM": "COL",
  "InstitutionAddress": "Chemin_Queen-Mary_4565_Montreal_District_CA_H3W_1W5",
  "InstitutionName": "IUGM",
  "InstitutionalDepartmentName": "Department",
  "MRAcquisitionType": "2D",
  "MagneticFieldStrength": 3,
  "Manufacturer": "Siemens",
  "ManufacturersModelName": "Prisma_fit",
  "Modality": "MR",
  "MultibandAccelerationFactor": 4,
  "PartialFourier": 1,
  "PatientPosition": "HFS",
  "PercentPhaseFOV": 100,
  "PhaseEncodingDirection": "j",
  "PhaseEncodingSteps": 104,
  "PhaseResolution": 1,
  "PixelBandwidth": 2290,
  "ProcedureStepDescription": "hcptrt_generic",
  "ProtocolName": "func_task-relational_run-1",
  "PulseSequenceDetails": "%CustomerSeq%_cmrr_mbep2d_bold",
  "ReceiveCoilActiveElements": "HC1-7;NC1,2",
  "ReceiveCoilName": "HeadNeck_64",
  "ReconMatrixPE": 104,
  "RepetitionTime": 1.49,
  "SAR": 0.0388747,
  "ScanOptions": "FS",
  "ScanningSequence": "EP",
  "SequenceName": "epfid2d1_104",
  "SequenceVariant": "SK_SS",
  "SeriesDescription": "func_task-relational_run-1",
  "SeriesNumber": 19,
  "ShimSetting": [620, -7196, -8870, 399, -33, -207, 28, -34],
  "SliceThickness": 2,
  "SliceTiming": [0, 0.785, 0.0975, 0.8825, 0.1975, 0.98, 0.295, 1.0775, 0.3925, 1.1775, 0.49, 1.275, 0.5875, 1.3725, 0.6875, 0, 0.785, 0.0975, 0.8825, 0.1975, 0.98, 0.295, 1.0775, 0.3925, 1.1775, 0.49, 1.275, 0.5875, 1.3725, 0.6875, 0, 0.785, 0.0975, 0.8825, 0.1975, 0.98, 0.295, 1.0775, 0.3925, 1.1775, 0.49, 1.275, 0.5875, 1.3725, 0.6875, 0, 0.785, 0.0975, 0.8825, 0.1975, 0.98, 0.295, 1.0775, 0.3925, 1.1775, 0.49, 1.275, 0.5875, 1.3725, 0.6875],
  "SoftwareVersions": "syngo_MR_E11",
  "SpacingBetweenSlices": 2,
  "StationName": "MRC35049",
  "TaskName": "relational",
  "TotalReadoutTime": 0.0576811,
  "TxRefAmp": 251.995,
  "WipMemBlock": "1a547404-8c85-4db0-998d-7ca0e6202508||Sequence: R016 ve11c/master r/e634e98; Dec 19 2017 11:00:25 by eja",
  "dcmmeta_affine": [
    [-1.999977707862854, 0.0052359821274876595, 0.00787156168371439, 101.99117279052734],
    [0.0006054061814211309, 1.7327589988708496, -0.998772144317627, -60.62862014770508],
    [0.009434536099433899, 0.9987585544586182, 1.7327412366867065, -101.0554428100586],
    [0.0, 0.0, 0.0, 1.0]
],
  "dcmmeta_reorient_transform": [
    [0.0, -1.0, 0.0, 103.0],
    [1.0, 0.0, 0.0, 0.0],
    [0.0, 0.0, 1.0, 0.0],
    [0.0, 0.0, 0.0, 1.0]
],
  "dcmmeta_shape": [104, 104, 60, 119],
  "dcmmeta_slice_dim": 2,
  "dcmmeta_version": 0.6,
  "global": {
    "const": {
      "AcquisitionMatrix": [104, 0, 0, 104],
      "AngioFlag": "N",
      "BitsAllocated": 16,
      "BitsStored": 16,
      "BodyPartExamined": "BRAIN",
      "Columns": 832,
      "EchoNumbers": 1,
      "EchoTime": 37.0,
      "EchoTrainLength": 104,
      "FlipAngle": 52.0,
      "HighBit": 15,
      "ImageOrientationPatient": [0.99998882781344, -0.0003027030957, 0.00471726818703, 0.00261799105558, 0.866379518117, -0.4993792914311],
      "ImagePositionPatient": [-832.42824302997, -748.34948111215, 361.9306447697],
      "ImageType": [
        "ORIGINAL",
        "PRIMARY",
        "M",
        "MB",
        "ND",
        "MOSAIC"
],
      "ImagedNucleus": "1H",
      "ImagingFrequency": 123.259142,
      "InPlanePhaseEncodingDirection": "COL",
      "MRAcquisitionType": "2D",
      "MagneticFieldStrength": 3.0,
      "Manufacturer": "SIEMENS",
      "ManufacturerModelName": "Prisma_fit",
      "Modality": "MR",
      "NumberOfAverages": 1.0,
      "NumberOfPhaseEncodingSteps": 104,
      "PercentPhaseFieldOfView": 100.0,
      "PercentSampling": 100.0,
      "PerformedProcedureStepStartTime": "143123.928000",
      "PhotometricInterpretation": "MONOCHROME2",
      "PixelBandwidth": 2290.0,
      "PixelRepresentation": 0,
      "PixelSpacing": [2.0, 2.0],
      "ProtocolName": "func_task-relational_run-1",
      "RepetitionTime": 1490.0,
      "Rows": 832,
      "SAR": 0.03887473696357,
      "SamplesPerPixel": 1,
      "ScanOptions": "FS",
      "ScanningSequence": "EP",
      "SequenceName": "epfid2d1_104",
      "SequenceVariant": [
        "SK",
        "SS"
],
      "SeriesDescription": "func_task-relational_run-1",
      "SeriesNumber": 19,
      "SeriesTime": "151939.269000",
      "SliceLocation": -56.872964063825,
      "SliceThickness": 2.0,
      "SmallestImagePixelValue": 0,
      "SoftwareVersions": "syngo MR E11",
      "SpacingBetweenSlices": 2.0000000090978,
      "SpecificCharacterSet": "ISO_IR 100",
      "StudyID": "1",
      "StudyTime": "143123.866000",
      "TransmitCoilName": "Body",
      "VariableFlipAngleFlag": "N",
      "WindowCenterWidthExplanation": "Algo1",
      "dBdt": 0.0},
    "slices": {}
  },
  "time": {
    "samples": {
      "AcquisitionNumber": [1, 2, 3, 4, 5, 6, 7, 8, 9, 10, 11, 12, 13, 14, 15, 16, 17, 18, 19, 20, 21, 22, 23, 24, 25, 26, 27, 28, 29, 30, 31, 32, 33, 34, 35, 36, 37, 38, 39, 40, 41, 42, 43, 44, 45, 46, 47, 48, 49, 50, 51, 52, 53, 54, 55, 56, 57, 58, 59, 60, 61, 62, 63, 64, 65, 66, 67, 68, 69, 70, 71, 72, 73, 74, 75, 76, 77, 78, 79, 80, 81, 82, 83, 84, 85, 86, 87, 88, 89, 90, 91, 92, 93, 94, 95, 96, 97, 98, 99, 100, 101, 102, 103, 104, 105, 106, 107, 108, 109, 110, 111, 112, 113, 114, 115, 116, 117, 118, 119],
      "AcquisitionTime": ["151816.062500", "151817.552500", "151819.042500", "151820.532500", "151822.022500", "151823.512500", "151825.002500", "151826.492500", "151827.982500", "151829.472500", "151830.962500", "151832.452500", "151833.942500", "151835.432500", "151836.922500", "151838.412500", "151839.902500", "151841.392500", "151842.882500", "151844.372500", "151845.862500", "151847.352500", "151848.842500", "151850.332500", "151851.822500", "151853.312500", "151854.802500", "151856.292500", "151857.782500", "151859.272500", "151900.762500", "151902.252500", "151903.742500", "151905.232500", "151906.722500", "151908.212500", "151909.702500", "151911.192500", "151912.682500", "151914.172500", "151915.662500", "151917.152500", "151918.642500", "151920.132500", "151921.622500", "151923.112500", "151924.602500", "151926.092500", "151927.582500", "151929.072500", "151930.562500", "151932.052500", "151933.542500", "151935.032500", "151936.522500", "151938.012500", "151939.502500", "151940.992500", "151942.482500", "151943.972500", "151945.462500", "151946.952500", "151948.442500", "151949.932500", "151951.422500", "151952.912500", "151954.402500", "151955.892500", "151957.382500", "151958.872500", "152000.362500", "152001.852500", "152003.342500", "152004.832500", "152006.322500", "152007.812500", "152009.302500", "152010.792500", "152012.282500", "152013.772500", "152015.262500", "152016.752500", "152018.242500", "152019.732500", "152021.222500", "152022.712500", "152024.202500", "152025.692500", "152027.182500", "152028.672500", "152030.162500", "152031.652500", "152033.142500", "152034.632500", "152036.122500", "152037.612500", "152039.102500", "152040.592500", "152042.082500", "152043.572500", "152045.062500", "152046.552500", "152048.042500", "152049.532500", "152051.022500", "152052.512500", "152054.002500", "152055.492500", "152056.982500", "152058.472500", "152059.962500", "152101.452500", "152102.942500", "152104.432500", "152105.922500", "152107.412500", "152108.902500", "152110.392500", "152111.882500"],
      "ContentTime": ["151939.271000", "151939.275000", "151939.292000", "151939.295000", "151939.298000", "151939.301000", "151939.304000", "151939.306000", "151939.319000", "151939.322000", "151939.324000", "151939.327000", "151939.330000", "151939.333000", "151939.336000", "151939.339000", "151939.342000", "151939.355000", "151939.358000", "151939.361000", "151939.364000", "151939.367000", "151939.370000", "151939.373000", "151939.376000", "151939.379000", "151939.382000", "151939.385000", "151939.388000", "151939.391000", "151959.199000", "151959.208000", "151959.211000", "151959.214000", "151959.217000", "151959.220000", "151959.223000", "151959.226000", "151959.228000", "151959.231000", "151959.234000", "151959.237000", "151959.240000", "151959.243000", "151959.246000", "151959.249000", "151959.252000", "151959.255000", "151959.258000", "151959.261000", "151959.270000", "152019.198000", "152019.201000", "152019.204000", "152019.207000", "152019.210000", "152019.213000", "152019.216000", "152019.219000", "152019.221000", "152019.224000", "152019.227000", "152019.230000", "152019.233000", "152019.236000", "152019.239000", "152019.242000", "152019.248000", "152019.251000", "152019.253000", "152019.256000", "152039.198000", "152039.201000", "152039.204000", "152039.219000", "152039.222000", "152039.225000", "152039.228000", "152039.231000", "152039.234000", "152039.242000", "152039.245000", "152039.248000", "152039.251000", "152039.254000", "152039.256000", "152039.259000", "152039.262000", "152039.265000", "152039.268000", "152039.271000", "152114.047000", "152114.050000", "152114.053000", "152114.056000", "152114.059000", "152114.062000", "152114.065000", "152114.068000", "152114.071000", "152114.074000", "152114.077000", "152114.080000", "152114.083000", "152114.086000", "152114.089000", "152114.092000", "152114.095000", "152114.098000", "152114.101000", "152114.104000", "152114.107000", "152114.110000", "152114.114000", "152114.117000", "152114.120000", "152114.123000", "152114.126000", "152114.129000"],
      "InstanceCreationTime": ["151939.271000", "151939.275000", "151939.292000", "151939.295000", "151939.298000", "151939.301000", "151939.304000", "151939.306000", "151939.319000", "151939.322000", "151939.324000", "151939.327000", "151939.330000", "151939.333000", "151939.336000", "151939.339000", "151939.342000", "151939.355000", "151939.358000", "151939.361000", "151939.364000", "151939.367000", "151939.370000", "151939.373000", "151939.376000", "151939.379000", "151939.382000", "151939.385000", "151939.388000", "151939.391000", "151959.199000", "151959.208000", "151959.211000", "151959.214000", "151959.217000", "151959.220000", "151959.223000", "151959.226000", "151959.228000", "151959.231000", "151959.234000", "151959.237000", "151959.240000", "151959.243000", "151959.246000", "151959.249000", "151959.252000", "151959.255000", "151959.258000", "151959.261000", "151959.270000", "152019.198000", "152019.201000", "152019.204000", "152019.207000", "152019.210000", "152019.213000", "152019.216000", "152019.219000", "152019.221000", "152019.224000", "152019.227000", "152019.230000", "152019.233000", "152019.236000", "152019.239000", "152019.242000", "152019.248000", "152019.251000", "152019.253000", "152019.256000", "152039.198000", "152039.201000", "152039.204000", "152039.219000", "152039.222000", "152039.225000", "152039.228000", "152039.231000", "152039.234000", "152039.242000", "152039.245000", "152039.248000", "152039.251000", "152039.254000", "152039.256000", "152039.259000", "152039.262000", "152039.265000", "152039.268000", "152039.271000", "152114.047000", "152114.050000", "152114.053000", "152114.056000", "152114.059000", "152114.062000", "152114.065000", "152114.068000", "152114.071000", "152114.074000", "152114.077000", "152114.080000", "152114.083000", "152114.086000", "152114.089000", "152114.092000", "152114.095000", "152114.098000", "152114.101000", "152114.104000", "152114.107000", "152114.110000", "152114.114000", "152114.117000", "152114.120000", "152114.123000", "152114.126000", "152114.129000"],
      "InstanceNumber": [1, 2, 3, 4, 5, 6, 7, 8, 9, 10, 11, 12, 13, 14, 15, 16, 17, 18, 19, 20, 21, 22, 23, 24, 25, 26, 27, 28, 29, 30, 31, 32, 33, 34, 35, 36, 37, 38, 39, 40, 41, 42, 43, 44, 45, 46, 47, 48, 49, 50, 51, 52, 53, 54, 55, 56, 57, 58, 59, 60, 61, 62, 63, 64, 65, 66, 67, 68, 69, 70, 71, 72, 73, 74, 75, 76, 77, 78, 79, 80, 81, 82, 83, 84, 85, 86, 87, 88, 89, 90, 91, 92, 93, 94, 95, 96, 97, 98, 99, 100, 101, 102, 103, 104, 105, 106, 107, 108, 109, 110, 111, 112, 113, 114, 115, 116, 117, 118, 119],
      "LargestImagePixelValue": [45650, 44192, 43372, 43279, 43070, 43654, 42440, 42869, 43119, 42698, 42225, 42198, 42290, 41661, 41824, 41527, 41136, 41108, 41113, 41231, 40360, 41382, 40768, 40381, 41137, 40349, 41119, 40435, 40603, 40477, 40797, 40765, 41240, 42862, 41922, 42051, 41582, 41890, 41153, 41680, 41280, 41481, 41608, 42132, 41747, 41320, 41752, 41639, 41136, 41756, 41461, 42048, 41731, 41510, 41150, 41823, 41522, 41360, 41425, 42370, 41884, 41910, 42082, 42246, 42502, 41970, 42553, 42356, 42686, 42463, 42962, 42952, 42992, 42853, 42603, 42668, 42896, 42933, 43057, 43173, 42585, 42469, 42348, 42498, 41847, 42018, 42204, 42044, 41977, 42224, 41570, 41686, 42017, 42079, 41743, 41821, 41795, 42153, 42157, 42886, 42758, 42651, 42192, 41403, 41434, 40664, 40267, 40015, 40368, 40976, 40683, 40625, 41508, 42284, 41504, 41356, 41720, 41502, 41382],
      "WindowCenter": [10931.0, 10843.0, 10801.0, 10798.0, 10786.0, 10792.0, 10786.0, 10792.0, 10790.0, 10776.0, 10771.0, 10774.0, 10776.0, 10774.0, 10787.0, 10785.0, 10780.0, 10772.0, 10768.0, 10768.0, 10764.0, 10766.0, 10764.0, 10760.0, 10768.0, 10754.0, 10759.0, 10749.0, 10759.0, 10761.0, 10764.0, 10756.0, 10758.0, 10772.0, 10758.0, 10758.0, 10760.0, 10743.0, 10729.0, 10733.0, 10746.0, 10754.0, 10768.0, 10766.0, 10754.0, 10749.0, 10743.0, 10742.0, 10743.0, 10761.0, 10766.0, 10767.0, 10765.0, 10752.0, 10750.0, 10753.0, 10755.0, 10755.0, 10752.0, 10767.0, 10749.0, 10753.0, 10761.0, 10766.0, 10764.0, 10751.0, 10763.0, 10766.0, 10779.0, 10778.0, 10766.0, 10750.0, 10756.0, 10765.0, 10766.0, 10765.0, 10768.0, 10763.0, 10753.0, 10750.0, 10755.0, 10757.0, 10758.0, 10756.0, 10759.0, 10759.0, 10758.0, 10760.0, 10768.0, 10775.0, 10766.0, 10760.0, 10759.0, 10760.0, 10757.0, 10768.0, 10755.0, 10767.0, 10763.0, 10770.0, 10764.0, 10756.0, 10757.0, 10759.0, 10807.0, 10758.0, 10714.0, 10712.0, 10725.0, 10731.0, 10718.0, 10708.0, 10721.0, 10741.0, 10752.0, 10772.0, 10771.0, 10771.0, 10770.0],
      "WindowWidth": [23455.0, 23212.0, 23099.0, 23088.0, 23050.0, 23056.0, 23044.0, 23056.0, 23047.0, 23018.0, 23009.0, 23034.0, 23019.0, 23020.0, 23048.0, 23044.0, 23036.0, 23017.0, 23007.0, 23008.0, 23002.0, 23002.0, 23003.0, 23000.0, 23007.0, 22980.0, 22986.0, 22977.0, 22987.0, 23006.0, 23002.0, 22983.0, 22985.0, 23010.0, 22976.0, 22975.0, 22998.0, 22947.0, 22925.0, 22925.0, 22959.0, 22977.0, 23022.0, 22994.0, 22971.0, 22960.0, 22943.0, 22943.0, 22957.0, 22988.0, 23000.0, 22997.0, 23003.0, 22964.0, 22972.0, 22971.0, 22975.0, 22972.0, 22973.0, 23003.0, 22955.0, 22975.0, 22991.0, 22997.0, 22991.0, 22963.0, 22993.0, 22996.0, 23035.0, 23029.0, 22998.0, 22964.0, 22983.0, 23007.0, 23006.0, 22998.0, 23008.0, 22992.0, 22967.0, 22956.0, 22970.0, 22978.0, 22985.0, 22973.0, 22980.0, 22985.0, 22981.0, 22987.0, 23010.0, 23022.0, 23010.0, 22999.0, 22982.0, 22988.0, 22990.0, 23003.0, 22978.0, 22999.0, 23000.0, 23000.0, 22993.0, 22974.0, 22986.0, 22989.0, 23103.0, 22994.0, 22889.0, 22882.0, 22914.0, 22921.0, 22891.0, 22866.0, 22895.0, 22961.0, 22983.0, 23032.0, 23028.0, 23025.0, 23022.0]
    },
    "slices": {}
  }
}