{
  "AcquisitionMatrixPE": 104,
  "AcquisitionNumber": 1,
  "AcquisitionTime": "15:13:20.707500",
  "BandwidthPerPixelPhaseEncode": 17.17,
  "BaseResolution": 104,
  "BodyPartExamined": "BRAIN",
  "CoilString": "HC1-7;NC1_2",
  "ConsistencyInfo": "N4_VE11C_LATEST_20160120",
  "ConversionSoftware": "dcm2niix",
  "ConversionSoftwareVersion": "v1.0.20190720  (JP2:OpenJPEG) GCC7.3.0",
  "DerivedVendorReportedEchoSpacing": 0.000560011,
  "DeviceSerialNumber": "167006",
  "DwellTime": 2.1e-06,
  "EchoTime": 0.037,
  "EchoTrainLength": 104,
  "EffectiveEchoSpacing": 0.000560011,
  "FlipAngle": 52,
  "ImageComments": "Unaliased_MB4_PE3_LB",
  "ImageOrientationPatientDICOM": [0.999989, -0.000302703, 0.00471727, 0.00261799, 0.866379, -0.499379],
  "ImageType": [
    "ORIGINAL",
    "PRIMARY",
    "M",
    "MB",
    "ND",
    "MOSAIC"
],
  "ImagingFrequency": 123.259,
  "InPlanePhaseEncodingDirectionDICOM": "COL",
  "InstitutionAddress": "Chemin_Queen-Mary_4565_Montreal_District_CA_H3W_1W5",
  "InstitutionName": "IUGM",
  "InstitutionalDepartmentName": "Department",
  "MRAcquisitionType": "2D",
  "MagneticFieldStrength": 3,
  "Manufacturer": "Siemens",
  "ManufacturersModelName": "Prisma_fit",
  "Modality": "MR",
  "MultibandAccelerationFactor": 4,
  "PartialFourier": 1,
  "PatientPosition": "HFS",
  "PercentPhaseFOV": 100,
  "PhaseEncodingDirection": "j",
  "PhaseEncodingSteps": 104,
  "PhaseResolution": 1,
  "PixelBandwidth": 2290,
  "ProcedureStepDescription": "hcptrt_generic",
  "ProtocolName": "func_task-language_run-1",
  "PulseSequenceDetails": "%CustomerSeq%_cmrr_mbep2d_bold",
  "ReceiveCoilActiveElements": "HC1-7;NC1,2",
  "ReceiveCoilName": "HeadNeck_64",
  "ReconMatrixPE": 104,
  "RepetitionTime": 1.49,
  "SAR": 0.0390278,
  "ScanOptions": "FS",
  "ScanningSequence": "EP",
  "SequenceName": "epfid2d1_104",
  "SequenceVariant": "SK_SS",
  "SeriesDescription": "func_task-language_run-1",
  "SeriesNumber": 17,
  "ShimSetting": [620, -7196, -8870, 399, -33, -207, 28, -34],
  "SliceThickness": 2,
  "SliceTiming": [0, 0.785, 0.0975, 0.8825, 0.195, 0.98, 0.295, 1.0775, 0.3925, 1.175, 0.49, 1.275, 0.5875, 1.3725, 0.685, 0, 0.785, 0.0975, 0.8825, 0.195, 0.98, 0.295, 1.0775, 0.3925, 1.175, 0.49, 1.275, 0.5875, 1.3725, 0.685, 0, 0.785, 0.0975, 0.8825, 0.195, 0.98, 0.295, 1.0775, 0.3925, 1.175, 0.49, 1.275, 0.5875, 1.3725, 0.685, 0, 0.785, 0.0975, 0.8825, 0.195, 0.98, 0.295, 1.0775, 0.3925, 1.175, 0.49, 1.275, 0.5875, 1.3725, 0.685],
  "SoftwareVersions": "syngo_MR_E11",
  "SpacingBetweenSlices": 2,
  "StationName": "MRC35049",
  "TaskName": "language",
  "TotalReadoutTime": 0.0576811,
  "TxRefAmp": 251.995,
  "WipMemBlock": "144efc55-940f-487d-9209-ee5d8e5c12cd||Sequence: R016 ve11c/master r/e634e98; Dec 19 2017 11:00:25 by eja",
  "dcmmeta_affine": [
    [-1.999977707862854, 0.0052359821274876595, 0.00787156168371439, 101.99117279052734],
    [0.0006054061814211309, 1.7327589988708496, -0.998772144317627, -60.62862014770508],
    [0.009434536099433899, 0.9987585544586182, 1.7327412366867065, -101.0554428100586],
    [0.0, 0.0, 0.0, 1.0]
],
  "dcmmeta_reorient_transform": [
    [0.0, -1.0, 0.0, 103.0],
    [1.0, 0.0, 0.0, 0.0],
    [0.0, 0.0, 1.0, 0.0],
    [0.0, 0.0, 0.0, 1.0]
],
  "dcmmeta_shape": [104, 104, 60, 159],
  "dcmmeta_slice_dim": 2,
  "dcmmeta_version": 0.6,
  "global": {
    "const": {
      "AcquisitionMatrix": [104, 0, 0, 104],
      "AngioFlag": "N",
      "BitsAllocated": 16,
      "BitsStored": 16,
      "BodyPartExamined": "BRAIN",
      "Columns": 832,
      "EchoNumbers": 1,
      "EchoTime": 37.0,
      "EchoTrainLength": 104,
      "FlipAngle": 52.0,
      "HighBit": 15,
      "ImageOrientationPatient": [0.99998882781344, -0.0003027030957, 0.00471726818703, 0.00261799105558, 0.866379518117, -0.4993792914311],
      "ImagePositionPatient": [-832.42824302997, -748.34948111215, 361.9306447697],
      "ImageType": [
        "ORIGINAL",
        "PRIMARY",
        "M",
        "MB",
        "ND",
        "MOSAIC"
],
      "ImagedNucleus": "1H",
      "ImagingFrequency": 123.259133,
      "InPlanePhaseEncodingDirection": "COL",
      "MRAcquisitionType": "2D",
      "MagneticFieldStrength": 3.0,
      "Manufacturer": "SIEMENS",
      "ManufacturerModelName": "Prisma_fit",
      "Modality": "MR",
      "NumberOfAverages": 1.0,
      "NumberOfPhaseEncodingSteps": 104,
      "PercentPhaseFieldOfView": 100.0,
      "PercentSampling": 100.0,
      "PerformedProcedureStepStartTime": "143123.928000",
      "PhotometricInterpretation": "MONOCHROME2",
      "PixelBandwidth": 2290.0,
      "PixelRepresentation": 0,
      "PixelSpacing": [2.0, 2.0],
      "ProtocolName": "func_task-language_run-1",
      "RepetitionTime": 1490.0,
      "Rows": 832,
      "SAR": 0.03902783126434,
      "SamplesPerPixel": 1,
      "ScanOptions": "FS",
      "ScanningSequence": "EP",
      "SequenceName": "epfid2d1_104",
      "SequenceVariant": [
        "SK",
        "SS"
],
      "SeriesDescription": "func_task-language_run-1",
      "SeriesNumber": 17,
      "SeriesTime": "151447.318000",
      "SliceLocation": -56.872964063825,
      "SliceThickness": 2.0,
      "SmallestImagePixelValue": 0,
      "SoftwareVersions": "syngo MR E11",
      "SpacingBetweenSlices": 2.0000000090978,
      "SpecificCharacterSet": "ISO_IR 100",
      "StudyID": "1",
      "StudyTime": "143123.866000",
      "TransmitCoilName": "Body",
      "VariableFlipAngleFlag": "N",
      "WindowCenterWidthExplanation": "Algo1",
      "dBdt": 0.0},
    "slices": {}
  },
  "time": {
    "samples": {
      "AcquisitionNumber": [1, 2, 3, 4, 5, 6, 7, 8, 9, 10, 11, 12, 13, 14, 15, 16, 17, 18, 19, 20, 21, 22, 23, 24, 25, 26, 27, 28, 29, 30, 31, 32, 33, 34, 35, 36, 37, 38, 39, 40, 41, 42, 43, 44, 45, 46, 47, 48, 49, 50, 51, 52, 53, 54, 55, 56, 57, 58, 59, 60, 61, 62, 63, 64, 65, 66, 67, 68, 69, 70, 71, 72, 73, 74, 75, 76, 77, 78, 79, 80, 81, 82, 83, 84, 85, 86, 87, 88, 89, 90, 91, 92, 93, 94, 95, 96, 97, 98, 99, 100, 101, 102, 103, 104, 105, 106, 107, 108, 109, 110, 111, 112, 113, 114, 115, 116, 117, 118, 119, 120, 121, 122, 123, 124, 125, 126, 127, 128, 129, 130, 131, 132, 133, 134, 135, 136, 137, 138, 139, 140, 141, 142, 143, 144, 145, 146, 147, 148, 149, 150, 151, 152, 153, 154, 155, 156, 157, 158, 159],
      "AcquisitionTime": ["151320.707500", "151322.197500", "151323.687500", "151325.177500", "151326.667500", "151328.157500", "151329.647500", "151331.137500", "151332.627500", "151334.117500", "151335.607500", "151337.097500", "151338.587500", "151340.077500", "151341.567500", "151343.057500", "151344.547500", "151346.037500", "151347.527500", "151349.017500", "151350.507500", "151351.997500", "151353.487500", "151354.977500", "151356.467500", "151357.957500", "151359.447500", "151400.937500", "151402.427500", "151403.917500", "151405.407500", "151406.897500", "151408.387500", "151409.877500", "151411.367500", "151412.857500", "151414.347500", "151415.837500", "151417.327500", "151418.817500", "151420.307500", "151421.797500", "151423.287500", "151424.777500", "151426.267500", "151427.757500", "151429.247500", "151430.737500", "151432.227500", "151433.717500", "151435.207500", "151436.697500", "151438.187500", "151439.677500", "151441.167500", "151442.657500", "151444.147500", "151445.637500", "151447.127500", "151448.617500", "151450.107500", "151451.597500", "151453.087500", "151454.577500", "151456.067500", "151457.557500", "151459.047500", "151500.537500", "151502.027500", "151503.517500", "151505.007500", "151506.497500", "151507.987500", "151509.477500", "151510.967500", "151512.457500", "151513.947500", "151515.437500", "151516.927500", "151518.417500", "151519.907500", "151521.397500", "151522.887500", "151524.377500", "151525.867500", "151527.357500", "151528.847500", "151530.337500", "151531.827500", "151533.317500", "151534.807500", "151536.297500", "151537.787500", "151539.277500", "151540.767500", "151542.257500", "151543.747500", "151545.237500", "151546.727500", "151548.217500", "151549.707500", "151551.197500", "151552.687500", "151554.177500", "151555.667500", "151557.157500", "151558.647500", "151600.137500", "151601.627500", "151603.117500", "151604.607500", "151606.097500", "151607.587500", "151609.077500", "151610.567500", "151612.057500", "151613.547500", "151615.037500", "151616.527500", "151618.017500", "151619.507500", "151620.997500", "151622.487500", "151623.977500", "151625.467500", "151626.957500", "151628.447500", "151629.937500", "151631.427500", "151632.917500", "151634.407500", "151635.897500", "151637.387500", "151638.877500", "151640.367500", "151641.857500", "151643.347500", "151644.837500", "151646.327500", "151647.817500", "151649.307500", "151650.797500", "151652.287500", "151653.777500", "151655.267500", "151656.757500", "151658.247500", "151659.737500", "151701.227500", "151702.717500", "151704.207500", "151705.697500", "151707.187500", "151708.677500", "151710.167500", "151711.657500", "151713.147500", "151714.637500", "151716.127500"],
      "ContentTime": ["151447.321000", "151447.325000", "151447.328000", "151447.331000", "151447.333000", "151447.336000", "151447.339000", "151447.342000", "151447.345000", "151447.356000", "151447.359000", "151447.362000", "151447.365000", "151447.368000", "151447.371000", "151447.374000", "151447.377000", "151447.380000", "151447.383000", "151447.385000", "151447.388000", "151447.391000", "151447.394000", "151447.397000", "151447.400000", "151447.403000", "151447.406000", "151447.409000", "151447.412000", "151447.415000", "151447.418000", "151447.424000", "151447.427000", "151447.430000", "151507.287000", "151507.290000", "151507.293000", "151507.302000", "151507.305000", "151507.308000", "151507.311000", "151507.314000", "151507.317000", "151507.320000", "151507.322000", "151507.325000", "151507.328000", "151507.331000", "151507.334000", "151507.337000", "151507.340000", "151507.343000", "151507.346000", "151507.349000", "151527.288000", "151527.291000", "151527.294000", "151527.297000", "151527.300000", "151527.303000", "151527.306000", "151527.309000", "151527.312000", "151527.314000", "151527.317000", "151527.320000", "151527.323000", "151527.326000", "151527.329000", "151527.332000", "151527.335000", "151527.338000", "151527.341000", "151527.344000", "151527.346000", "151547.288000", "151547.291000", "151547.294000", "151547.297000", "151547.300000", "151547.303000", "151547.306000", "151547.309000", "151547.311000", "151547.314000", "151547.317000", "151547.320000", "151547.323000", "151547.326000", "151547.329000", "151547.332000", "151547.335000", "151547.338000", "151547.341000", "151547.344000", "151627.287000", "151627.290000", "151627.293000", "151627.296000", "151627.299000", "151627.302000", "151627.305000", "151627.307000", "151627.310000", "151627.313000", "151627.316000", "151627.319000", "151627.322000", "151627.325000", "151627.328000", "151627.331000", "151627.334000", "151627.337000", "151627.340000", "151627.343000", "151627.346000", "151627.359000", "151627.362000", "151627.365000", "151627.368000", "151627.371000", "151627.374000", "151627.377000", "151627.380000", "151627.383000", "151707.287000", "151707.290000", "151707.293000", "151707.296000", "151707.299000", "151707.302000", "151707.305000", "151707.308000", "151707.311000", "151707.314000", "151707.317000", "151707.321000", "151707.324000", "151707.327000", "151707.330000", "151707.333000", "151707.336000", "151707.339000", "151707.342000", "151707.345000", "151707.348000", "151707.351000", "151707.354000", "151707.357000", "151707.360000", "151707.362000", "151717.813000", "151717.816000", "151717.820000", "151717.823000", "151717.826000", "151717.829000", "151717.832000", "151717.835000"],
      "InstanceCreationTime": ["151447.321000", "151447.325000", "151447.328000", "151447.331000", "151447.333000", "151447.336000", "151447.339000", "151447.342000", "151447.345000", "151447.356000", "151447.359000", "151447.362000", "151447.365000", "151447.368000", "151447.371000", "151447.374000", "151447.377000", "151447.380000", "151447.383000", "151447.385000", "151447.388000", "151447.391000", "151447.394000", "151447.397000", "151447.400000", "151447.403000", "151447.406000", "151447.409000", "151447.412000", "151447.415000", "151447.418000", "151447.424000", "151447.427000", "151447.430000", "151507.287000", "151507.290000", "151507.293000", "151507.302000", "151507.305000", "151507.308000", "151507.311000", "151507.314000", "151507.317000", "151507.320000", "151507.322000", "151507.325000", "151507.328000", "151507.331000", "151507.334000", "151507.337000", "151507.340000", "151507.343000", "151507.346000", "151507.349000", "151527.288000", "151527.291000", "151527.294000", "151527.297000", "151527.300000", "151527.303000", "151527.306000", "151527.309000", "151527.312000", "151527.314000", "151527.317000", "151527.320000", "151527.323000", "151527.326000", "151527.329000", "151527.332000", "151527.335000", "151527.338000", "151527.341000", "151527.344000", "151527.346000", "151547.288000", "151547.291000", "151547.294000", "151547.297000", "151547.300000", "151547.303000", "151547.306000", "151547.309000", "151547.311000", "151547.314000", "151547.317000", "151547.320000", "151547.323000", "151547.326000", "151547.329000", "151547.332000", "151547.335000", "151547.338000", "151547.341000", "151547.344000", "151627.287000", "151627.290000", "151627.293000", "151627.296000", "151627.299000", "151627.302000", "151627.305000", "151627.307000", "151627.310000", "151627.313000", "151627.316000", "151627.319000", "151627.322000", "151627.325000", "151627.328000", "151627.331000", "151627.334000", "151627.337000", "151627.340000", "151627.343000", "151627.346000", "151627.359000", "151627.362000", "151627.365000", "151627.368000", "151627.371000", "151627.374000", "151627.377000", "151627.380000", "151627.383000", "151707.287000", "151707.290000", "151707.293000", "151707.296000", "151707.299000", "151707.302000", "151707.305000", "151707.308000", "151707.311000", "151707.314000", "151707.317000", "151707.321000", "151707.324000", "151707.327000", "151707.330000", "151707.333000", "151707.336000", "151707.339000", "151707.342000", "151707.345000", "151707.348000", "151707.351000", "151707.354000", "151707.357000", "151707.360000", "151707.362000", "151717.813000", "151717.816000", "151717.820000", "151717.823000", "151717.826000", "151717.829000", "151717.832000", "151717.835000"],
      "InstanceNumber": [1, 2, 3, 4, 5, 6, 7, 8, 9, 10, 11, 12, 13, 14, 15, 16, 17, 18, 19, 20, 21, 22, 23, 24, 25, 26, 27, 28, 29, 30, 31, 32, 33, 34, 35, 36, 37, 38, 39, 40, 41, 42, 43, 44, 45, 46, 47, 48, 49, 50, 51, 52, 53, 54, 55, 56, 57, 58, 59, 60, 61, 62, 63, 64, 65, 66, 67, 68, 69, 70, 71, 72, 73, 74, 75, 76, 77, 78, 79, 80, 81, 82, 83, 84, 85, 86, 87, 88, 89, 90, 91, 92, 93, 94, 95, 96, 97, 98, 99, 100, 101, 102, 103, 104, 105, 106, 107, 108, 109, 110, 111, 112, 113, 114, 115, 116, 117, 118, 119, 120, 121, 122, 123, 124, 125, 126, 127, 128, 129, 130, 131, 132, 133, 134, 135, 136, 137, 138, 139, 140, 141, 142, 143, 144, 145, 146, 147, 148, 149, 150, 151, 152, 153, 154, 155, 156, 157, 158, 159],
      "LargestImagePixelValue": [45131, 43508, 42992, 42161, 42000, 41813, 41856, 41844, 41438, 42606, 41796, 41816, 41539, 41764, 41877, 41802, 41404, 41507, 41381, 41661, 41772, 41708, 41740, 41198, 41522, 41420, 40842, 47329, 40829, 40630, 41219, 41142, 41097, 40627, 39894, 40765, 40327, 40122, 41172, 40337, 39934, 40375, 40172, 40764, 40173, 40403, 40577, 40689, 41345, 40871, 40850, 41333, 41299, 40791, 40748, 40740, 40914, 40776, 41190, 40954, 40654, 40822, 40625, 40782, 40658, 40647, 40730, 41053, 40906, 40714, 40542, 40827, 40813, 41044, 40745, 40840, 41082, 41122, 41112, 40795, 40932, 40713, 40846, 40786, 40790, 41147, 41157, 41004, 41422, 40940, 40829, 41135, 41131, 41009, 40914, 40984, 40476, 40601, 40328, 40362, 39933, 40326, 40412, 40070, 41434, 40440, 40570, 40813, 40235, 40619, 40316, 40132, 40509, 40374, 40119, 41075, 41342, 39922, 39775, 39898, 39990, 39956, 40069, 39907, 40299, 39838, 40080, 40022, 40186, 40023, 40011, 40145, 39981, 40309, 39934, 40018, 40311, 40566, 40226, 39936, 40315, 40088, 40080, 40333, 40564, 40615, 40292, 40605, 40337, 40782, 40115, 39941, 40023, 39817, 40629, 39812, 41241, 40712, 41229],
      "WindowCenter": [10959.0, 10913.0, 10901.0, 10893.0, 10868.0, 10849.0, 10833.0, 10824.0, 10818.0, 10851.0, 10845.0, 10843.0, 10838.0, 10838.0, 10826.0, 10824.0, 10819.0, 10835.0, 10832.0, 10833.0, 10845.0, 10857.0, 10867.0, 10856.0, 10849.0, 10833.0, 10825.0, 10898.0, 10836.0, 10847.0, 10853.0, 10850.0, 10837.0, 10829.0, 10819.0, 10833.0, 10830.0, 10829.0, 10852.0, 10838.0, 10828.0, 10829.0, 10832.0, 10847.0, 10831.0, 10828.0, 10831.0, 10829.0, 10826.0, 10812.0, 10826.0, 10829.0, 10833.0, 10818.0, 10826.0, 10826.0, 10818.0, 10806.0, 10807.0, 10804.0, 10815.0, 10831.0, 10845.0, 10865.0, 10848.0, 10840.0, 10827.0, 10810.0, 10808.0, 10806.0, 10806.0, 10812.0, 10818.0, 10806.0, 10809.0, 10804.0, 10807.0, 10819.0, 10830.0, 10812.0, 10824.0, 10818.0, 10827.0, 10819.0, 10813.0, 10811.0, 10803.0, 10804.0, 10810.0, 10818.0, 10816.0, 10828.0, 10825.0, 10816.0, 10826.0, 10832.0, 10832.0, 10828.0, 10813.0, 10800.0, 10799.0, 10801.0, 10811.0, 10815.0, 10828.0, 10821.0, 10818.0, 10815.0, 10808.0, 10815.0, 10811.0, 10810.0, 10810.0, 10799.0, 10793.0, 10812.0, 10822.0, 10804.0, 10814.0, 10843.0, 10844.0, 10814.0, 10799.0, 10802.0, 10801.0, 10797.0, 10814.0, 10823.0, 10820.0, 10813.0, 10816.0, 10819.0, 10800.0, 10802.0, 10794.0, 10796.0, 10808.0, 10825.0, 10835.0, 10825.0, 10837.0, 10837.0, 10835.0, 10833.0, 10832.0, 10812.0, 10813.0, 10819.0, 10814.0, 10818.0, 10800.0, 10807.0, 10808.0, 10816.0, 10829.0, 10827.0, 10848.0, 10847.0, 10831.0],
      "WindowWidth": [23511.0, 23376.0, 23328.0, 23301.0, 23238.0, 23192.0, 23149.0, 23129.0, 23116.0, 23196.0, 23177.0, 23169.0, 23165.0, 23167.0, 23131.0, 23131.0, 23114.0, 23155.0, 23148.0, 23148.0, 23182.0, 23206.0, 23226.0, 23198.0, 23189.0, 23152.0, 23131.0, 23278.0, 23161.0, 23205.0, 23201.0, 23191.0, 23163.0, 23144.0, 23122.0, 23152.0, 23146.0, 23143.0, 23201.0, 23168.0, 23139.0, 23143.0, 23154.0, 23195.0, 23147.0, 23138.0, 23149.0, 23150.0, 23125.0, 23097.0, 23143.0, 23136.0, 23161.0, 23113.0, 23131.0, 23133.0, 23114.0, 23085.0, 23082.0, 23081.0, 23114.0, 23140.0, 23175.0, 23227.0, 23180.0, 23167.0, 23151.0, 23099.0, 23091.0, 23089.0, 23086.0, 23101.0, 23121.0, 23086.0, 23096.0, 23077.0, 23088.0, 23116.0, 23164.0, 23105.0, 23131.0, 23118.0, 23146.0, 23118.0, 23117.0, 23100.0, 23081.0, 23089.0, 23097.0, 23114.0, 23110.0, 23136.0, 23136.0, 23116.0, 23135.0, 23144.0, 23157.0, 23141.0, 23104.0, 23075.0, 23085.0, 23079.0, 23105.0, 23114.0, 23150.0, 23128.0, 23121.0, 23117.0, 23095.0, 23110.0, 23103.0, 23098.0, 23099.0, 23071.0, 23058.0, 23119.0, 23136.0, 23090.0, 23113.0, 23177.0, 23175.0, 23105.0, 23073.0, 23075.0, 23072.0, 23074.0, 23109.0, 23143.0, 23118.0, 23107.0, 23109.0, 23128.0, 23072.0, 23074.0, 23056.0, 23062.0, 23085.0, 23136.0, 23157.0, 23127.0, 23163.0, 23160.0, 23151.0, 23141.0, 23140.0, 23091.0, 23094.0, 23109.0, 23101.0, 23125.0, 23074.0, 23086.0, 23092.0, 23113.0, 23144.0, 23157.0, 23196.0, 23198.0, 23159.0]
    },
    "slices": {}
  }
}