{
  "AcquisitionMatrixPE": 104,
  "AcquisitionNumber": 1,
  "AcquisitionTime": "14:41:4.235000",
  "BandwidthPerPixelPhaseEncode": 17.17,
  "BaseResolution": 104,
  "BodyPartExamined": "BRAIN",
  "CoilString": "HC1-7;NC1_2",
  "ConsistencyInfo": "N4_VE11C_LATEST_20160120",
  "ConversionSoftware": "dcm2niix",
  "ConversionSoftwareVersion": "v1.0.20190720  (JP2:OpenJPEG) GCC7.3.0",
  "DerivedVendorReportedEchoSpacing": 0.000560011,
  "DeviceSerialNumber": "167006",
  "DwellTime": 2.1e-06,
  "EchoTime": 0.037,
  "EchoTrainLength": 104,
  "EffectiveEchoSpacing": 0.000560011,
  "FlipAngle": 52,
  "ImageComments": "Unaliased_MB4_PE3_LB",
  "ImageOrientationPatientDICOM": [0.999989, -0.000302703, 0.00471727, 0.00261799, 0.866379, -0.499379],
  "ImageType": [
    "ORIGINAL",
    "PRIMARY",
    "M",
    "MB",
    "ND",
    "MOSAIC"
],
  "ImagingFrequency": 123.259,
  "InPlanePhaseEncodingDirectionDICOM": "COL",
  "InstitutionAddress": "Chemin_Queen-Mary_4565_Montreal_District_CA_H3W_1W5",
  "InstitutionName": "IUGM",
  "InstitutionalDepartmentName": "Department",
  "MRAcquisitionType": "2D",
  "MagneticFieldStrength": 3,
  "Manufacturer": "Siemens",
  "ManufacturersModelName": "Prisma_fit",
  "Modality": "MR",
  "MultibandAccelerationFactor": 4,
  "PartialFourier": 1,
  "PatientPosition": "HFS",
  "PercentPhaseFOV": 100,
  "PhaseEncodingDirection": "j",
  "PhaseEncodingSteps": 104,
  "PhaseResolution": 1,
  "PixelBandwidth": 2290,
  "ProcedureStepDescription": "hcptrt_generic",
  "ProtocolName": "func_task-restingstate_run-1",
  "PulseSequenceDetails": "%CustomerSeq%_cmrr_mbep2d_bold",
  "ReceiveCoilActiveElements": "HC1-7;NC1,2",
  "ReceiveCoilName": "HeadNeck_64",
  "ReconMatrixPE": 104,
  "RepetitionTime": 1.49,
  "SAR": 0.0393782,
  "ScanOptions": "FS",
  "ScanningSequence": "EP",
  "SequenceName": "epfid2d1_104",
  "SequenceVariant": "SK_SS",
  "SeriesDescription": "func_task-restingstate_run-1",
  "SeriesNumber": 7,
  "ShimSetting": [620, -7196, -8870, 399, -33, -207, 28, -34],
  "SliceThickness": 2,
  "SliceTiming": [0, 0.7825, 0.0975, 0.88, 0.195, 0.98, 0.2925, 1.0775, 0.39, 1.175, 0.49, 1.2725, 0.5875, 1.37, 0.685, 0, 0.7825, 0.0975, 0.88, 0.195, 0.98, 0.2925, 1.0775, 0.39, 1.175, 0.49, 1.2725, 0.5875, 1.37, 0.685, 0, 0.7825, 0.0975, 0.88, 0.195, 0.98, 0.2925, 1.0775, 0.39, 1.175, 0.49, 1.2725, 0.5875, 1.37, 0.685, 0, 0.7825, 0.0975, 0.88, 0.195, 0.98, 0.2925, 1.0775, 0.39, 1.175, 0.49, 1.2725, 0.5875, 1.37, 0.685],
  "SoftwareVersions": "syngo_MR_E11",
  "SpacingBetweenSlices": 2,
  "StationName": "MRC35049",
  "TaskName": "restingstate",
  "TotalReadoutTime": 0.0576811,
  "TxRefAmp": 251.995,
  "WipMemBlock": "21fd79cc-188f-49c8-891f-327475313e09||Sequence: R016 ve11c/master r/e634e98; Dec 19 2017 11:00:25 by eja",
  "dcmmeta_affine": [
    [-1.999977707862854, 0.0052359821274876595, 0.00787156168371439, 101.99117279052734],
    [0.0006054061814211309, 1.7327589988708496, -0.998772144317627, -60.62862014770508],
    [0.009434536099433899, 0.9987585544586182, 1.7327412366867065, -101.0554428100586],
    [0.0, 0.0, 0.0, 1.0]
],
  "dcmmeta_reorient_transform": [
    [0.0, -1.0, 0.0, 103.0],
    [1.0, 0.0, 0.0, 0.0],
    [0.0, 0.0, 1.0, 0.0],
    [0.0, 0.0, 0.0, 1.0]
],
  "dcmmeta_shape": [104, 104, 60, 600],
  "dcmmeta_slice_dim": 2,
  "dcmmeta_version": 0.6,
  "global": {
    "const": {
      "AcquisitionMatrix": [104, 0, 0, 104],
      "AngioFlag": "N",
      "BitsAllocated": 16,
      "BitsStored": 16,
      "BodyPartExamined": "BRAIN",
      "Columns": 832,
      "EchoNumbers": 1,
      "EchoTime": 37.0,
      "EchoTrainLength": 104,
      "FlipAngle": 52.0,
      "HighBit": 15,
      "ImageOrientationPatient": [0.99998882781344, -0.0003027030957, 0.00471726818703, 0.00261799105558, 0.866379518117, -0.4993792914311],
      "ImagePositionPatient": [-832.42824302997, -748.34948111215, 361.9306447697],
      "ImageType": [
        "ORIGINAL",
        "PRIMARY",
        "M",
        "MB",
        "ND",
        "MOSAIC"
],
      "ImagedNucleus": "1H",
      "ImagingFrequency": 123.259116,
      "InPlanePhaseEncodingDirection": "COL",
      "MRAcquisitionType": "2D",
      "MagneticFieldStrength": 3.0,
      "Manufacturer": "SIEMENS",
      "ManufacturerModelName": "Prisma_fit",
      "Modality": "MR",
      "NumberOfAverages": 1.0,
      "NumberOfPhaseEncodingSteps": 104,
      "PercentPhaseFieldOfView": 100.0,
      "PercentSampling": 100.0,
      "PerformedProcedureStepStartTime": "143123.928000",
      "PhotometricInterpretation": "MONOCHROME2",
      "PixelBandwidth": 2290.0,
      "PixelRepresentation": 0,
      "PixelSpacing": [2.0, 2.0],
      "ProtocolName": "func_task-restingstate_run-1",
      "RepetitionTime": 1490.0,
      "Rows": 832,
      "SAR": 0.03937820760469,
      "SamplesPerPixel": 1,
      "ScanOptions": "FS",
      "ScanningSequence": "EP",
      "SequenceName": "epfid2d1_104",
      "SequenceVariant": [
        "SK",
        "SS"
],
      "SeriesDescription": "func_task-restingstate_run-1",
      "SeriesNumber": 7,
      "SeriesTime": "144239.246000",
      "SliceLocation": -56.872964063825,
      "SliceThickness": 2.0,
      "SmallestImagePixelValue": 0,
      "SoftwareVersions": "syngo MR E11",
      "SpacingBetweenSlices": 2.0000000090978,
      "SpecificCharacterSet": "ISO_IR 100",
      "StudyID": "1",
      "StudyTime": "143123.866000",
      "TransmitCoilName": "Body",
      "VariableFlipAngleFlag": "N",
      "dBdt": 0.0},
    "slices": {}
  },
  "time": {
    "samples": {
      "AcquisitionNumber": [1, 2, 3, 4, 5, 6, 7, 8, 9, 10, 11, 12, 13, 14, 15, 16, 17, 18, 19, 20, 21, 22, 23, 24, 25, 26, 27, 28, 29, 30, 31, 32, 33, 34, 35, 36, 37, 38, 39, 40, 41, 42, 43, 44, 45, 46, 47, 48, 49, 50, 51, 52, 53, 54, 55, 56, 57, 58, 59, 60, 61, 62, 63, 64, 65, 66, 67, 68, 69, 70, 71, 72, 73, 74, 75, 76, 77, 78, 79, 80, 81, 82, 83, 84, 85, 86, 87, 88, 89, 90, 91, 92, 93, 94, 95, 96, 97, 98, 99, 100, 101, 102, 103, 104, 105, 106, 107, 108, 109, 110, 111, 112, 113, 114, 115, 116, 117, 118, 119, 120, 121, 122, 123, 124, 125, 126, 127, 128, 129, 130, 131, 132, 133, 134, 135, 136, 137, 138, 139, 140, 141, 142, 143, 144, 145, 146, 147, 148, 149, 150, 151, 152, 153, 154, 155, 156, 157, 158, 159, 160, 161, 162, 163, 164, 165, 166, 167, 168, 169, 170, 171, 172, 173, 174, 175, 176, 177, 178, 179, 180, 181, 182, 183, 184, 185, 186, 187, 188, 189, 190, 191, 192, 193, 194, 195, 196, 197, 198, 199, 200, 201, 202, 203, 204, 205, 206, 207, 208, 209, 210, 211, 212, 213, 214, 215, 216, 217, 218, 219, 220, 221, 222, 223, 224, 225, 226, 227, 228, 229, 230, 231, 232, 233, 234, 235, 236, 237, 238, 239, 240, 241, 242, 243, 244, 245, 246, 247, 248, 249, 250, 251, 252, 253, 254, 255, 256, 257, 258, 259, 260, 261, 262, 263, 264, 265, 266, 267, 268, 269, 270, 271, 272, 273, 274, 275, 276, 277, 278, 279, 280, 281, 282, 283, 284, 285, 286, 287, 288, 289, 290, 291, 292, 293, 294, 295, 296, 297, 298, 299, 300, 301, 302, 303, 304, 305, 306, 307, 308, 309, 310, 311, 312, 313, 314, 315, 316, 317, 318, 319, 320, 321, 322, 323, 324, 325, 326, 327, 328, 329, 330, 331, 332, 333, 334, 335, 336, 337, 338, 339, 340, 341, 342, 343, 344, 345, 346, 347, 348, 349, 350, 351, 352, 353, 354, 355, 356, 357, 358, 359, 360, 361, 362, 363, 364, 365, 366, 367, 368, 369, 370, 371, 372, 373, 374, 375, 376, 377, 378, 379, 380, 381, 382, 383, 384, 385, 386, 387, 388, 389, 390, 391, 392, 393, 394, 395, 396, 397, 398, 399, 400, 401, 402, 403, 404, 405, 406, 407, 408, 409, 410, 411, 412, 413, 414, 415, 416, 417, 418, 419, 420, 421, 422, 423, 424, 425, 426, 427, 428, 429, 430, 431, 432, 433, 434, 435, 436, 437, 438, 439, 440, 441, 442, 443, 444, 445, 446, 447, 448, 449, 450, 451, 452, 453, 454, 455, 456, 457, 458, 459, 460, 461, 462, 463, 464, 465, 466, 467, 468, 469, 470, 471, 472, 473, 474, 475, 476, 477, 478, 479, 480, 481, 482, 483, 484, 485, 486, 487, 488, 489, 490, 491, 492, 493, 494, 495, 496, 497, 498, 499, 500, 501, 502, 503, 504, 505, 506, 507, 508, 509, 510, 511, 512, 513, 514, 515, 516, 517, 518, 519, 520, 521, 522, 523, 524, 525, 526, 527, 528, 529, 530, 531, 532, 533, 534, 535, 536, 537, 538, 539, 540, 541, 542, 543, 544, 545, 546, 547, 548, 549, 550, 551, 552, 553, 554, 555, 556, 557, 558, 559, 560, 561, 562, 563, 564, 565, 566, 567, 568, 569, 570, 571, 572, 573, 574, 575, 576, 577, 578, 579, 580, 581, 582, 583, 584, 585, 586, 587, 588, 589, 590, 591, 592, 593, 594, 595, 596, 597, 598, 599, 600],
      "AcquisitionTime": ["144104.235000", "144105.725000", "144107.215000", "144108.705000", "144110.195000", "144111.685000", "144113.175000", "144114.665000", "144116.155000", "144117.645000", "144119.135000", "144120.625000", "144122.115000", "144123.605000", "144125.095000", "144126.585000", "144128.075000", "144129.565000", "144131.055000", "144132.545000", "144134.035000", "144135.525000", "144137.015000", "144138.505000", "144139.995000", "144141.485000", "144142.975000", "144144.465000", "144145.955000", "144147.445000", "144148.935000", "144150.425000", "144151.915000", "144153.405000", "144154.895000", "144156.385000", "144157.875000", "144159.365000", "144200.855000", "144202.345000", "144203.835000", "144205.325000", "144206.815000", "144208.305000", "144209.795000", "144211.285000", "144212.775000", "144214.265000", "144215.755000", "144217.245000", "144218.735000", "144220.225000", "144221.715000", "144223.205000", "144224.695000", "144226.185000", "144227.675000", "144229.165000", "144230.655000", "144232.145000", "144233.635000", "144235.125000", "144236.615000", "144238.105000", "144239.595000", "144241.085000", "144242.575000", "144244.065000", "144245.555000", "144247.045000", "144248.535000", "144250.025000", "144251.515000", "144253.005000", "144254.495000", "144255.985000", "144257.475000", "144258.965000", "144300.455000", "144301.945000", "144303.435000", "144304.925000", "144306.415000", "144307.905000", "144309.395000", "144310.885000", "144312.375000", "144313.865000", "144315.355000", "144316.845000", "144318.335000", "144319.825000", "144321.315000", "144322.805000", "144324.295000", "144325.785000", "144327.275000", "144328.765000", "144330.255000", "144331.745000", "144333.235000", "144334.725000", "144336.215000", "144337.705000", "144339.195000", "144340.685000", "144342.175000", "144343.665000", "144345.155000", "144346.645000", "144348.135000", "144349.625000", "144351.115000", "144352.605000", "144354.095000", "144355.585000", "144357.075000", "144358.565000", "144400.055000", "144401.545000", "144403.035000", "144404.525000", "144406.015000", "144407.505000", "144408.995000", "144410.485000", "144411.975000", "144413.465000", "144414.955000", "144416.445000", "144417.935000", "144419.425000", "144420.915000", "144422.405000", "144423.895000", "144425.385000", "144426.875000", "144428.365000", "144429.855000", "144431.345000", "144432.835000", "144434.325000", "144435.815000", "144437.305000", "144438.795000", "144440.285000", "144441.775000", "144443.265000", "144444.755000", "144446.245000", "144447.735000", "144449.225000", "144450.715000", "144452.205000", "144453.695000", "144455.185000", "144456.675000", "144458.165000", "144459.655000", "144501.145000", "144502.635000", "144504.125000", "144505.615000", "144507.105000", "144508.595000", "144510.085000", "144511.575000", "144513.065000", "144514.555000", "144516.045000", "144517.535000", "144519.025000", "144520.515000", "144522.005000", "144523.495000", "144524.985000", "144526.475000", "144527.965000", "144529.455000", "144530.945000", "144532.435000", "144533.925000", "144535.415000", "144536.905000", "144538.395000", "144539.885000", "144541.375000", "144542.865000", "144544.355000", "144545.845000", "144547.335000", "144548.825000", "144550.315000", "144551.805000", "144553.295000", "144554.785000", "144556.275000", "144557.765000", "144559.255000", "144600.745000", "144602.235000", "144603.725000", "144605.215000", "144606.705000", "144608.195000", "144609.685000", "144611.175000", "144612.665000", "144614.155000", "144615.645000", "144617.135000", "144618.625000", "144620.115000", "144621.605000", "144623.095000", "144624.585000", "144626.075000", "144627.565000", "144629.055000", "144630.545000", "144632.035000", "144633.525000", "144635.015000", "144636.505000", "144637.995000", "144639.485000", "144640.975000", "144642.465000", "144643.955000", "144645.445000", "144646.935000", "144648.425000", "144649.915000", "144651.405000", "144652.895000", "144654.385000", "144655.875000", "144657.365000", "144658.855000", "144700.345000", "144701.835000", "144703.325000", "144704.815000", "144706.305000", "144707.795000", "144709.285000", "144710.775000", "144712.265000", "144713.755000", "144715.245000", "144716.735000", "144718.225000", "144719.715000", "144721.205000", "144722.695000", "144724.185000", "144725.675000", "144727.165000", "144728.655000", "144730.145000", "144731.635000", "144733.125000", "144734.615000", "144736.105000", "144737.595000", "144739.085000", "144740.575000", "144742.065000", "144743.555000", "144745.045000", "144746.535000", "144748.025000", "144749.515000", "144751.005000", "144752.495000", "144753.985000", "144755.475000", "144756.965000", "144758.455000", "144759.945000", "144801.435000", "144802.925000", "144804.415000", "144805.905000", "144807.395000", "144808.885000", "144810.375000", "144811.865000", "144813.355000", "144814.845000", "144816.335000", "144817.825000", "144819.315000", "144820.805000", "144822.295000", "144823.785000", "144825.275000", "144826.765000", "144828.255000", "144829.745000", "144831.235000", "144832.725000", "144834.215000", "144835.705000", "144837.195000", "144838.685000", "144840.175000", "144841.665000", "144843.155000", "144844.645000", "144846.135000", "144847.625000", "144849.115000", "144850.605000", "144852.095000", "144853.585000", "144855.075000", "144856.565000", "144858.055000", "144859.545000", "144901.035000", "144902.525000", "144904.015000", "144905.505000", "144906.995000", "144908.485000", "144909.975000", "144911.465000", "144912.955000", "144914.445000", "144915.935000", "144917.425000", "144918.915000", "144920.405000", "144921.895000", "144923.385000", "144924.875000", "144926.365000", "144927.855000", "144929.345000", "144930.835000", "144932.325000", "144933.815000", "144935.305000", "144936.795000", "144938.285000", "144939.775000", "144941.265000", "144942.755000", "144944.245000", "144945.735000", "144947.225000", "144948.715000", "144950.205000", "144951.695000", "144953.185000", "144954.675000", "144956.165000", "144957.655000", "144959.145000", "145000.635000", "145002.125000", "145003.615000", "145005.105000", "145006.595000", "145008.085000", "145009.575000", "145011.065000", "145012.555000", "145014.045000", "145015.535000", "145017.025000", "145018.515000", "145020.005000", "145021.495000", "145022.985000", "145024.475000", "145025.965000", "145027.455000", "145028.945000", "145030.435000", "145031.925000", "145033.415000", "145034.905000", "145036.395000", "145037.885000", "145039.375000", "145040.865000", "145042.355000", "145043.845000", "145045.335000", "145046.825000", "145048.315000", "145049.805000", "145051.295000", "145052.785000", "145054.275000", "145055.765000", "145057.255000", "145058.745000", "145100.235000", "145101.725000", "145103.215000", "145104.705000", "145106.195000", "145107.685000", "145109.175000", "145110.665000", "145112.155000", "145113.645000", "145115.135000", "145116.625000", "145118.115000", "145119.605000", "145121.095000", "145122.585000", "145124.075000", "145125.565000", "145127.055000", "145128.545000", "145130.035000", "145131.525000", "145133.015000", "145134.505000", "145135.995000", "145137.485000", "145138.975000", "145140.465000", "145141.955000", "145143.445000", "145144.935000", "145146.425000", "145147.915000", "145149.405000", "145150.895000", "145152.385000", "145153.875000", "145155.365000", "145156.855000", "145158.345000", "145159.835000", "145201.325000", "145202.815000", "145204.305000", "145205.795000", "145207.285000", "145208.775000", "145210.265000", "145211.755000", "145213.245000", "145214.735000", "145216.225000", "145217.715000", "145219.205000", "145220.695000", "145222.185000", "145223.675000", "145225.165000", "145226.655000", "145228.145000", "145229.635000", "145231.125000", "145232.615000", "145234.105000", "145235.595000", "145237.085000", "145238.575000", "145240.065000", "145241.555000", "145243.045000", "145244.535000", "145246.025000", "145247.515000", "145249.005000", "145250.495000", "145251.985000", "145253.475000", "145254.965000", "145256.455000", "145257.945000", "145259.435000", "145300.925000", "145302.415000", "145303.905000", "145305.395000", "145306.885000", "145308.375000", "145309.865000", "145311.355000", "145312.845000", "145314.335000", "145315.825000", "145317.315000", "145318.805000", "145320.295000", "145321.785000", "145323.275000", "145324.765000", "145326.255000", "145327.745000", "145329.235000", "145330.725000", "145332.215000", "145333.705000", "145335.195000", "145336.685000", "145338.175000", "145339.665000", "145341.155000", "145342.645000", "145344.135000", "145345.625000", "145347.115000", "145348.605000", "145350.095000", "145351.585000", "145353.075000", "145354.565000", "145356.055000", "145357.545000", "145359.035000", "145400.525000", "145402.015000", "145403.505000", "145404.995000", "145406.485000", "145407.975000", "145409.465000", "145410.955000", "145412.445000", "145413.935000", "145415.425000", "145416.915000", "145418.405000", "145419.895000", "145421.385000", "145422.875000", "145424.365000", "145425.855000", "145427.345000", "145428.835000", "145430.325000", "145431.815000", "145433.305000", "145434.795000", "145436.285000", "145437.775000", "145439.265000", "145440.755000", "145442.245000", "145443.735000", "145445.225000", "145446.715000", "145448.205000", "145449.695000", "145451.185000", "145452.675000", "145454.165000", "145455.655000", "145457.145000", "145458.635000", "145500.125000", "145501.615000", "145503.105000", "145504.595000", "145506.085000", "145507.575000", "145509.065000", "145510.555000", "145512.045000", "145513.535000", "145515.025000", "145516.515000", "145518.005000", "145519.495000", "145520.985000", "145522.475000", "145523.965000", "145525.455000", "145526.945000", "145528.435000", "145529.925000", "145531.415000", "145532.905000", "145534.395000", "145535.885000", "145537.375000", "145538.865000", "145540.355000", "145541.845000", "145543.335000", "145544.825000", "145546.315000", "145547.805000", "145549.295000", "145550.785000", "145552.275000", "145553.765000", "145555.255000", "145556.745000"],
      "ContentTime": ["144239.248000", "144239.252000", "144239.255000", "144239.258000", "144239.261000", "144239.264000", "144239.266000", "144239.269000", "144239.272000", "144239.275000", "144239.278000", "144239.281000", "144239.284000", "144239.287000", "144239.290000", "144239.293000", "144239.296000", "144239.299000", "144239.301000", "144239.304000", "144239.307000", "144239.310000", "144239.313000", "144239.317000", "144239.327000", "144239.331000", "144239.334000", "144239.337000", "144239.340000", "144239.343000", "144239.346000", "144239.349000", "144239.352000", "144239.355000", "144239.358000", "144239.361000", "144239.364000", "144239.366000", "144239.369000", "144259.198000", "144259.201000", "144259.204000", "144259.207000", "144259.210000", "144259.213000", "144259.216000", "144259.219000", "144259.223000", "144259.226000", "144259.229000", "144259.232000", "144259.235000", "144259.238000", "144259.241000", "144259.244000", "144259.247000", "144259.250000", "144259.252000", "144259.255000", "144319.198000", "144319.201000", "144319.204000", "144319.207000", "144319.210000", "144319.213000", "144319.216000", "144319.219000", "144319.222000", "144319.225000", "144319.228000", "144319.231000", "144319.233000", "144319.236000", "144319.239000", "144319.242000", "144319.245000", "144319.248000", "144319.251000", "144319.254000", "144319.257000", "144339.198000", "144339.201000", "144339.204000", "144339.207000", "144339.210000", "144339.213000", "144339.216000", "144339.219000", "144339.222000", "144339.225000", "144339.228000", "144339.231000", "144339.234000", "144339.236000", "144339.239000", "144339.242000", "144339.245000", "144339.251000", "144339.254000", "144339.257000", "144419.199000", "144419.202000", "144419.205000", "144419.218000", "144419.221000", "144419.224000", "144419.227000", "144419.230000", "144419.233000", "144419.242000", "144419.245000", "144419.248000", "144419.251000", "144419.254000", "144419.257000", "144419.260000", "144419.263000", "144419.266000", "144419.269000", "144419.272000", "144419.275000", "144419.277000", "144419.280000", "144419.283000", "144419.286000", "144419.289000", "144419.292000", "144419.295000", "144419.298000", "144419.301000", "144459.199000", "144459.202000", "144459.205000", "144459.208000", "144459.211000", "144459.214000", "144459.217000", "144459.220000", "144459.223000", "144459.226000", "144459.229000", "144459.231000", "144459.234000", "144459.237000", "144459.240000", "144459.243000", "144459.246000", "144459.249000", "144459.252000", "144459.255000", "144459.258000", "144459.261000", "144459.264000", "144459.267000", "144459.270000", "144459.273000", "144459.276000", "144539.198000", "144539.201000", "144539.204000", "144539.207000", "144539.210000", "144539.213000", "144539.216000", "144539.219000", "144539.222000", "144539.230000", "144539.233000", "144539.236000", "144539.239000", "144539.242000", "144539.245000", "144539.248000", "144539.251000", "144539.254000", "144539.257000", "144539.260000", "144539.263000", "144539.266000", "144539.268000", "144539.271000", "144539.274000", "144539.277000", "144619.199000", "144619.202000", "144619.205000", "144619.208000", "144619.211000", "144619.214000", "144619.217000", "144619.220000", "144619.223000", "144619.226000", "144619.228000", "144619.231000", "144619.234000", "144619.244000", "144619.247000", "144619.250000", "144619.253000", "144619.256000", "144619.259000", "144619.262000", "144619.265000", "144619.268000", "144619.271000", "144619.273000", "144619.276000", "144619.279000", "144619.282000", "144659.199000", "144659.202000", "144659.205000", "144659.208000", "144659.211000", "144659.214000", "144659.217000", "144659.220000", "144659.223000", "144659.226000", "144659.229000", "144659.232000", "144659.235000", "144659.238000", "144659.240000", "144659.250000", "144659.253000", "144659.256000", "144659.259000", "144659.262000", "144659.265000", "144659.268000", "144659.271000", "144659.274000", "144659.277000", "144659.280000", "144659.283000", "144739.198000", "144739.201000", "144739.204000", "144739.207000", "144739.210000", "144739.213000", "144739.225000", "144739.228000", "144739.231000", "144739.234000", "144739.237000", "144739.240000", "144739.243000", "144739.246000", "144739.249000", "144739.252000", "144739.265000", "144739.268000", "144739.271000", "144739.274000", "144739.277000", "144739.280000", "144739.282000", "144739.285000", "144739.288000", "144739.291000", "144739.294000", "144819.199000", "144819.202000", "144819.205000", "144819.208000", "144819.211000", "144819.214000", "144819.217000", "144819.220000", "144819.223000", "144819.226000", "144819.229000", "144819.232000", "144819.235000", "144819.237000", "144819.240000", "144819.243000", "144819.246000", "144819.249000", "144819.252000", "144819.255000", "144819.258000", "144819.261000", "144819.264000", "144819.287000", "144819.290000", "144819.293000", "144819.296000", "144859.199000", "144859.202000", "144859.205000", "144859.209000", "144859.212000", "144859.215000", "144859.218000", "144859.222000", "144859.225000", "144859.228000", "144859.231000", "144859.234000", "144859.237000", "144859.241000", "144859.244000", "144859.247000", "144859.250000", "144859.253000", "144859.256000", "144859.259000", "144859.263000", "144859.266000", "144859.269000", "144859.272000", "144859.275000", "144859.278000", "144859.282000", "144939.199000", "144939.202000", "144939.205000", "144939.208000", "144939.211000", "144939.214000", "144939.228000", "144939.231000", "144939.234000", "144939.237000", "144939.240000", "144939.243000", "144939.246000", "144939.249000", "144939.252000", "144939.254000", "144939.257000", "144939.260000", "144939.263000", "144939.266000", "144939.269000", "144939.272000", "144939.275000", "144939.278000", "144939.281000", "144939.284000", "145019.198000", "145019.201000", "145019.204000", "145019.207000", "145019.210000", "145019.213000", "145019.216000", "145019.219000", "145019.222000", "145019.225000", "145019.228000", "145019.231000", "145019.234000", "145019.237000", "145019.240000", "145019.242000", "145019.245000", "145019.248000", "145019.251000", "145019.254000", "145019.257000", "145019.260000", "145019.263000", "145019.266000", "145019.269000", "145019.272000", "145019.275000", "145059.199000", "145059.202000", "145059.205000", "145059.208000", "145059.211000", "145059.214000", "145059.217000", "145059.220000", "145059.223000", "145059.226000", "145059.229000", "145059.231000", "145059.242000", "145059.245000", "145059.248000", "145059.251000", "145059.254000", "145059.257000", "145059.260000", "145059.263000", "145059.266000", "145059.269000", "145059.272000", "145059.275000", "145059.278000", "145059.281000", "145059.284000", "145139.199000", "145139.202000", "145139.205000", "145139.208000", "145139.211000", "145139.218000", "145139.221000", "145139.224000", "145139.227000", "145139.230000", "145139.233000", "145139.236000", "145139.239000", "145139.241000", "145139.244000", "145139.247000", "145139.250000", "145139.253000", "145139.256000", "145139.259000", "145139.262000", "145139.265000", "145139.268000", "145139.271000", "145139.274000", "145139.276000", "145139.279000", "145219.198000", "145219.201000", "145219.204000", "145219.207000", "145219.210000", "145219.213000", "145219.216000", "145219.219000", "145219.222000", "145219.225000", "145219.228000", "145219.231000", "145219.234000", "145219.237000", "145219.240000", "145219.242000", "145219.245000", "145219.248000", "145219.251000", "145219.254000", "145219.257000", "145219.260000", "145219.263000", "145219.266000", "145219.269000", "145219.272000", "145219.275000", "145259.199000", "145259.203000", "145259.206000", "145259.209000", "145259.216000", "145259.219000", "145259.222000", "145259.225000", "145259.228000", "145259.231000", "145259.234000", "145259.237000", "145259.240000", "145259.243000", "145259.250000", "145259.253000", "145259.256000", "145259.259000", "145259.262000", "145259.265000", "145259.268000", "145259.271000", "145259.274000", "145259.277000", "145259.281000", "145259.284000", "145259.287000", "145339.199000", "145339.202000", "145339.205000", "145339.208000", "145339.211000", "145339.214000", "145339.217000", "145339.220000", "145339.223000", "145339.226000", "145339.229000", "145339.232000", "145339.235000", "145339.238000", "145339.241000", "145339.244000", "145339.247000", "145339.250000", "145339.253000", "145339.256000", "145339.259000", "145339.262000", "145339.264000", "145339.268000", "145339.271000", "145339.274000", "145339.277000", "145419.199000", "145419.202000", "145419.205000", "145419.208000", "145419.211000", "145419.218000", "145419.221000", "145419.224000", "145419.228000", "145419.231000", "145419.234000", "145419.237000", "145419.240000", "145419.243000", "145419.246000", "145419.249000", "145419.251000", "145419.254000", "145419.257000", "145419.260000", "145419.263000", "145419.266000", "145419.269000", "145419.275000", "145419.278000", "145419.281000", "145459.198000", "145459.329000", "145459.332000", "145459.335000", "145459.338000", "145459.341000", "145459.344000", "145459.347000", "145459.350000", "145459.353000", "145459.355000", "145459.358000", "145459.361000", "145459.364000", "145459.367000", "145459.370000", "145459.373000", "145459.376000", "145459.379000", "145459.382000", "145459.385000", "145459.387000", "145459.390000", "145459.393000", "145459.396000", "145459.399000", "145459.402000", "145539.199000", "145539.202000", "145539.205000", "145539.208000", "145539.211000", "145539.214000", "145539.217000", "145539.220000", "145539.223000", "145539.226000", "145539.229000", "145539.232000", "145539.235000", "145539.238000", "145539.240000", "145539.243000", "145539.246000", "145539.250000", "145539.253000", "145539.256000", "145539.259000", "145539.262000", "145539.265000", "145539.267000", "145539.270000", "145539.273000", "145539.276000", "145559.253000", "145559.256000", "145559.259000", "145559.262000", "145559.267000", "145559.272000", "145559.277000", "145559.289000", "145559.293000", "145559.298000", "145559.301000", "145559.305000", "145559.310000", "145559.313000"],
