{
  "AcquisitionMatrixPE": 104,
  "AcquisitionNumber": 1,
  "AcquisitionTime": "15:02:25.075000",
  "BandwidthPerPixelPhaseEncode": 17.17,
  "BaseResolution": 104,
  "BodyPartExamined": "BRAIN",
  "CoilString": "HC1-7;NC1_2",
  "ConsistencyInfo": "N4_VE11C_LATEST_20160120",
  "ConversionSoftware": "dcm2niix",
  "ConversionSoftwareVersion": "v1.0.20190720  (JP2:OpenJPEG) GCC7.3.0",
  "DerivedVendorReportedEchoSpacing": 0.000560011,
  "DeviceSerialNumber": "167006",
  "DwellTime": 2.1e-06,
  "EchoTime": 0.037,
  "EchoTrainLength": 104,
  "EffectiveEchoSpacing": 0.000560011,
  "FlipAngle": 52,
  "ImageComments": "Unaliased_MB4_PE3_LB",
  "ImageOrientationPatientDICOM": [0.999989, -0.000302703, 0.00471727, 0.00261799, 0.866379, -0.499379],
  "ImageType": [
    "ORIGINAL",
    "PRIMARY",
    "M",
    "MB",
    "ND",
    "MOSAIC"
],
  "ImagingFrequency": 123.259,
  "InPlanePhaseEncodingDirectionDICOM": "COL",
  "InstitutionAddress": "Chemin_Queen-Mary_4565_Montreal_District_CA_H3W_1W5",
  "InstitutionName": "IUGM",
  "InstitutionalDepartmentName": "Department",
  "MRAcquisitionType": "2D",
  "MagneticFieldStrength": 3,
  "Manufacturer": "Siemens",
  "ManufacturersModelName": "Prisma_fit",
  "Modality": "MR",
  "MultibandAccelerationFactor": 4,
  "PartialFourier": 1,
  "PatientPosition": "HFS",
  "PercentPhaseFOV": 100,
  "PhaseEncodingDirection": "j",
  "PhaseEncodingSteps": 104,
  "PhaseResolution": 1,
  "PixelBandwidth": 2290,
  "ProcedureStepDescription": "hcptrt_generic",
  "ProtocolName": "func_task-social_run-1",
  "PulseSequenceDetails": "%CustomerSeq%_cmrr_mbep2d_bold",
  "ReceiveCoilActiveElements": "HC1-7;NC1,2",
  "ReceiveCoilName": "HeadNeck_64",
  "ReconMatrixPE": 104,
  "RepetitionTime": 1.49,
  "SAR": 0.0389618,
  "ScanOptions": "FS",
  "ScanningSequence": "EP",
  "SequenceName": "epfid2d1_104",
  "SequenceVariant": "SK_SS",
  "SeriesDescription": "func_task-social_run-1",
  "SeriesNumber": 11,
  "ShimSetting": [620, -7196, -8870, 399, -33, -207, 28, -34],
  "SliceThickness": 2,
  "SliceTiming": [0, 0.785, 0.1, 0.8825, 0.1975, 0.98, 0.295, 1.08, 0.3925, 1.1775, 0.49, 1.275, 0.59, 1.3725, 0.6875, 0, 0.785, 0.1, 0.8825, 0.1975, 0.98, 0.295, 1.08, 0.3925, 1.1775, 0.49, 1.275, 0.59, 1.3725, 0.6875, 0, 0.785, 0.1, 0.8825, 0.1975, 0.98, 0.295, 1.08, 0.3925, 1.1775, 0.49, 1.275, 0.59, 1.3725, 0.6875, 0, 0.785, 0.1, 0.8825, 0.1975, 0.98, 0.295, 1.08, 0.3925, 1.1775, 0.49, 1.275, 0.59, 1.3725, 0.6875],
  "SoftwareVersions": "syngo_MR_E11",
  "SpacingBetweenSlices": 2,
  "StationName": "MRC35049",
  "TaskName": "social",
  "TotalReadoutTime": 0.0576811,
  "TxRefAmp": 251.995,
  "WipMemBlock": "d795e7d2-7884-4cf7-9b67-2260e16f2c90||Sequence: R016 ve11c/master r/e634e98; Dec 19 2017 11:00:25 by eja",
  "dcmmeta_affine": [
    [-1.999977707862854, 0.0052359821274876595, 0.00787156168371439, 101.99117279052734],
    [0.0006054061814211309, 1.7327589988708496, -0.998772144317627, -60.62862014770508],
    [0.009434536099433899, 0.9987585544586182, 1.7327412366867065, -101.0554428100586],
    [0.0, 0.0, 0.0, 1.0]
],
  "dcmmeta_reorient_transform": [
    [0.0, -1.0, 0.0, 103.0],
    [1.0, 0.0, 0.0, 0.0],
    [0.0, 0.0, 1.0, 0.0],
    [0.0, 0.0, 0.0, 1.0]
],
  "dcmmeta_shape": [104, 104, 60, 139],
  "dcmmeta_slice_dim": 2,
  "dcmmeta_version": 0.6,
  "global": {
    "const": {
      "AcquisitionMatrix": [104, 0, 0, 104],
      "AngioFlag": "N",
      "BitsAllocated": 16,
      "BitsStored": 16,
      "BodyPartExamined": "BRAIN",
      "Columns": 832,
      "EchoNumbers": 1,
      "EchoTime": 37.0,
      "EchoTrainLength": 104,
      "FlipAngle": 52.0,
      "HighBit": 15,
      "ImageOrientationPatient": [0.99998882781344, -0.0003027030957, 0.00471726818703, 0.00261799105558, 0.866379518117, -0.4993792914311],
      "ImagePositionPatient": [-832.42824302997, -748.34948111215, 361.9306447697],
      "ImageType": [
        "ORIGINAL",
        "PRIMARY",
        "M",
        "MB",
        "ND",
        "MOSAIC"
],
      "ImagedNucleus": "1H",
      "ImagingFrequency": 123.259131,
      "InPlanePhaseEncodingDirection": "COL",
      "MRAcquisitionType": "2D",
      "MagneticFieldStrength": 3.0,
      "Manufacturer": "SIEMENS",
      "ManufacturerModelName": "Prisma_fit",
      "Modality": "MR",
      "NumberOfAverages": 1.0,
      "NumberOfPhaseEncodingSteps": 104,
      "PercentPhaseFieldOfView": 100.0,
      "PercentSampling": 100.0,
      "PerformedProcedureStepStartTime": "143123.928000",
      "PhotometricInterpretation": "MONOCHROME2",
      "PixelBandwidth": 2290.0,
      "PixelRepresentation": 0,
      "PixelSpacing": [2.0, 2.0],
      "ProtocolName": "func_task-social_run-1",
      "RepetitionTime": 1490.0,
      "Rows": 832,
      "SAR": 0.03896176796484,
      "SamplesPerPixel": 1,
      "ScanOptions": "FS",
      "ScanningSequence": "EP",
      "SequenceName": "epfid2d1_104",
      "SequenceVariant": [
        "SK",
        "SS"
],
      "SeriesDescription": "func_task-social_run-1",
      "SeriesNumber": 11,
      "SeriesTime": "150347.317000",
      "SliceLocation": -56.872964063825,
      "SliceThickness": 2.0,
      "SmallestImagePixelValue": 0,
      "SoftwareVersions": "syngo MR E11",
      "SpacingBetweenSlices": 2.0000000090978,
      "SpecificCharacterSet": "ISO_IR 100",
      "StudyID": "1",
      "StudyTime": "143123.866000",
      "TransmitCoilName": "Body",
      "VariableFlipAngleFlag": "N",
      "WindowCenterWidthExplanation": "Algo1",
      "dBdt": 0.0},
    "slices": {}
  },
  "time": {
    "samples": {
      "AcquisitionNumber": [1, 2, 3, 4, 5, 6, 7, 8, 9, 10, 11, 12, 13, 14, 15, 16, 17, 18, 19, 20, 21, 22, 23, 24, 25, 26, 27, 28, 29, 30, 31, 32, 33, 34, 35, 36, 37, 38, 39, 40, 41, 42, 43, 44, 45, 46, 47, 48, 49, 50, 51, 52, 53, 54, 55, 56, 57, 58, 59, 60, 61, 62, 63, 64, 65, 66, 67, 68, 69, 70, 71, 72, 73, 74, 75, 76, 77, 78, 79, 80, 81, 82, 83, 84, 85, 86, 87, 88, 89, 90, 91, 92, 93, 94, 95, 96, 97, 98, 99, 100, 101, 102, 103, 104, 105, 106, 107, 108, 109, 110, 111, 112, 113, 114, 115, 116, 117, 118, 119, 120, 121, 122, 123, 124, 125, 126, 127, 128, 129, 130, 131, 132, 133, 134, 135, 136, 137, 138, 139],
      "AcquisitionTime": ["150225.075000", "150226.565000", "150228.055000", "150229.545000", "150231.035000", "150232.525000", "150234.015000", "150235.505000", "150236.995000", "150238.485000", "150239.975000", "150241.465000", "150242.955000", "150244.445000", "150245.935000", "150247.425000", "150248.915000", "150250.405000", "150251.895000", "150253.385000", "150254.875000", "150256.365000", "150257.855000", "150259.345000", "150300.835000", "150302.325000", "150303.815000", "150305.305000", "150306.795000", "150308.285000", "150309.775000", "150311.265000", "150312.755000", "150314.245000", "150315.735000", "150317.225000", "150318.715000", "150320.205000", "150321.695000", "150323.185000", "150324.675000", "150326.165000", "150327.655000", "150329.145000", "150330.635000", "150332.125000", "150333.615000", "150335.105000", "150336.595000", "150338.085000", "150339.575000", "150341.065000", "150342.555000", "150344.045000", "150345.535000", "150347.025000", "150348.515000", "150350.005000", "150351.495000", "150352.985000", "150354.475000", "150355.965000", "150357.455000", "150358.945000", "150400.435000", "150401.925000", "150403.415000", "150404.905000", "150406.395000", "150407.885000", "150409.375000", "150410.865000", "150412.355000", "150413.845000", "150415.335000", "150416.825000", "150418.315000", "150419.805000", "150421.295000", "150422.785000", "150424.275000", "150425.765000", "150427.255000", "150428.745000", "150430.235000", "150431.725000", "150433.215000", "150434.705000", "150436.195000", "150437.685000", "150439.175000", "150440.665000", "150442.155000", "150443.645000", "150445.135000", "150446.625000", "150448.115000", "150449.605000", "150451.095000", "150452.585000", "150454.075000", "150455.565000", "150457.055000", "150458.545000", "150500.035000", "150501.525000", "150503.015000", "150504.505000", "150505.995000", "150507.485000", "150508.975000", "150510.465000", "150511.955000", "150513.445000", "150514.935000", "150516.425000", "150517.915000", "150519.405000", "150520.895000", "150522.385000", "150523.875000", "150525.365000", "150526.855000", "150528.345000", "150529.835000", "150531.325000", "150532.815000", "150534.305000", "150535.795000", "150537.285000", "150538.775000", "150540.265000", "150541.755000", "150543.245000", "150544.735000", "150546.225000", "150547.715000", "150549.205000", "150550.695000"],
      "ContentTime": ["150347.319000", "150347.333000", "150347.336000", "150347.339000", "150347.342000", "150347.345000", "150347.348000", "150347.351000", "150347.354000", "150347.357000", "150347.360000", "150347.370000", "150347.373000", "150347.376000", "150347.379000", "150347.389000", "150347.392000", "150347.394000", "150347.397000", "150347.400000", "150347.403000", "150347.406000", "150347.409000", "150347.412000", "150347.415000", "150347.418000", "150407.288000", "150407.291000", "150407.294000", "150407.297000", "150407.300000", "150407.303000", "150407.306000", "150407.308000", "150407.311000", "150407.315000", "150407.318000", "150407.320000", "150407.332000", "150407.335000", "150407.338000", "150407.341000", "150407.344000", "150407.347000", "150407.350000", "150407.353000", "150427.287000", "150427.290000", "150427.293000", "150427.296000", "150427.299000", "150427.302000", "150427.305000", "150427.307000", "150427.310000", "150427.313000", "150427.316000", "150427.319000", "150427.322000", "150427.326000", "150427.329000", "150427.332000", "150427.335000", "150427.338000", "150427.341000", "150427.344000", "150447.287000", "150447.290000", "150447.293000", "150447.296000", "150447.299000", "150447.302000", "150447.305000", "150447.308000", "150447.311000", "150447.314000", "150447.317000", "150447.320000", "150447.323000", "150447.326000", "150447.328000", "150447.331000", "150447.334000", "150447.337000", "150447.340000", "150447.343000", "150447.346000", "150507.287000", "150507.290000", "150507.293000", "150507.296000", "150507.299000", "150507.302000", "150507.305000", "150507.308000", "150507.311000", "150507.314000", "150507.317000", "150507.320000", "150507.322000", "150507.325000", "150507.328000", "150507.331000", "150507.334000", "150507.337000", "150507.340000", "150507.343000", "150547.287000", "150547.290000", "150547.293000", "150547.296000", "150547.299000", "150547.302000", "150547.305000", "150547.308000", "150547.311000", "150547.313000", "150547.316000", "150547.319000", "150547.322000", "150547.325000", "150547.328000", "150547.331000", "150547.334000", "150547.337000", "150547.340000", "150547.343000", "150547.346000", "150547.349000", "150547.352000", "150547.355000", "150547.358000", "150547.361000", "150547.364000", "150547.367000", "150552.453000", "150552.456000", "150552.459000", "150552.462000"],
      "InstanceCreationTime": ["150347.319000", "150347.333000", "150347.336000", "150347.339000", "150347.342000", "150347.345000", "150347.348000", "150347.351000", "150347.354000", "150347.357000", "150347.360000", "150347.370000", "150347.373000", "150347.376000", "150347.379000", "150347.389000", "150347.392000", "150347.394000", "150347.397000", "150347.400000", "150347.403000", "150347.406000", "150347.409000", "150347.412000", "150347.415000", "150347.418000", "150407.288000", "150407.291000", "150407.294000", "150407.297000", "150407.300000", "150407.303000", "150407.306000", "150407.308000", "150407.311000", "150407.315000", "150407.318000", "150407.320000", "150407.332000", "150407.335000", "150407.338000", "150407.341000", "150407.344000", "150407.347000", "150407.350000", "150407.353000", "150427.287000", "150427.290000", "150427.293000", "150427.296000", "150427.299000", "150427.302000", "150427.305000", "150427.307000", "150427.310000", "150427.313000", "150427.316000", "150427.319000", "150427.322000", "150427.326000", "150427.329000", "150427.332000", "150427.335000", "150427.338000", "150427.341000", "150427.344000", "150447.287000", "150447.290000", "150447.293000", "150447.296000", "150447.299000", "150447.302000", "150447.305000", "150447.308000", "150447.311000", "150447.314000", "150447.317000", "150447.320000", "150447.323000", "150447.326000", "150447.328000", "150447.331000", "150447.334000", "150447.337000", "150447.340000", "150447.343000", "150447.346000", "150507.287000", "150507.290000", "150507.293000", "150507.296000", "150507.299000", "150507.302000", "150507.305000", "150507.308000", "150507.311000", "150507.314000", "150507.317000", "150507.320000", "150507.322000", "150507.325000", "150507.328000", "150507.331000", "150507.334000", "150507.337000", "150507.340000", "150507.343000", "150547.287000", "150547.290000", "150547.293000", "150547.296000", "150547.299000", "150547.302000", "150547.305000", "150547.308000", "150547.311000", "150547.313000", "150547.316000", "150547.319000", "150547.322000", "150547.325000", "150547.328000", "150547.331000", "150547.334000", "150547.337000", "150547.340000", "150547.343000", "150547.346000", "150547.349000", "150547.352000", "150547.355000", "150547.358000", "150547.361000", "150547.364000", "150547.367000", "150552.453000", "150552.456000", "150552.459000", "150552.462000"],
      "InstanceNumber": [1, 2, 3, 4, 5, 6, 7, 8, 9, 10, 11, 12, 13, 14, 15, 16, 17, 18, 19, 20, 21, 22, 23, 24, 25, 26, 27, 28, 29, 30, 31, 32, 33, 34, 35, 36, 37, 38, 39, 40, 41, 42, 43, 44, 45, 46, 47, 48, 49, 50, 51, 52, 53, 54, 55, 56, 57, 58, 59, 60, 61, 62, 63, 64, 65, 66, 67, 68, 69, 70, 71, 72, 73, 74, 75, 76, 77, 78, 79, 80, 81, 82, 83, 84, 85, 86, 87, 88, 89, 90, 91, 92, 93, 94, 95, 96, 97, 98, 99, 100, 101, 102, 103, 104, 105, 106, 107, 108, 109, 110, 111, 112, 113, 114, 115, 116, 117, 118, 119, 120, 121, 122, 123, 124, 125, 126, 127, 128, 129, 130, 131, 132, 133, 134, 135, 136, 137, 138, 139],
      "LargestImagePixelValue": [43859, 42428, 42167, 41726, 41212, 41439, 40699, 41106, 41522, 40956, 40851, 40843, 40743, 40372, 40707, 40713, 40448, 40672, 40497, 40738, 40706, 40715, 40683, 40652, 40604, 40838, 40593, 40878, 40981, 41084, 40988, 40655, 40650, 40822, 40574, 40542, 40436, 40205, 40502, 40691, 40556, 41035, 40585, 40640, 40450, 40930, 40471, 40726, 40574, 40280, 40508, 40634, 40857, 40653, 40645, 40449, 40546, 40027, 40470, 40264, 40825, 40811, 40338, 40493, 40856, 40701, 40734, 40292, 40191, 40230, 40594, 40246, 41031, 40278, 41175, 40731, 40292, 40868, 40666, 40699, 40628, 40472, 40551, 40500, 40264, 40323, 40666, 40821, 40580, 40549, 40297, 40684, 40440, 40318, 40204, 40395, 40386, 40483, 40320, 40519, 41813, 40903, 40689, 40691, 40691, 40404, 40806, 40466, 40304, 40496, 40725, 40787, 40796, 40492, 40564, 40973, 40920, 40525, 40593, 40587, 39988, 40416, 40632, 40359, 40255, 40381, 40205, 40483, 40822, 40699, 40449, 40312, 40206, 40785, 40575, 40326, 40977, 40426, 41280],
      "WindowCenter": [10976.0, 10930.0, 10904.0, 10890.0, 10868.0, 10857.0, 10844.0, 10856.0, 10871.0, 10860.0, 10849.0, 10839.0, 10829.0, 10831.0, 10838.0, 10841.0, 10840.0, 10841.0, 10849.0, 10864.0, 10857.0, 10853.0, 10857.0, 10858.0, 10840.0, 10835.0, 10820.0, 10825.0, 10830.0, 10828.0, 10828.0, 10810.0, 10801.0, 10812.0, 10809.0, 10817.0, 10812.0, 10817.0, 10816.0, 10817.0, 10827.0, 10833.0, 10836.0, 10831.0, 10833.0, 10836.0, 10839.0, 10851.0, 10841.0, 10824.0, 10811.0, 10816.0, 10817.0, 10801.0, 10809.0, 10802.0, 10820.0, 10823.0, 10823.0, 10824.0, 10827.0, 10817.0, 10810.0, 10824.0, 10827.0, 10831.0, 10830.0, 10824.0, 10817.0, 10819.0, 10820.0, 10823.0, 10845.0, 10847.0, 10854.0, 10833.0, 10820.0, 10818.0, 10808.0, 10809.0, 10819.0, 10827.0, 10827.0, 10819.0, 10804.0, 10795.0, 10798.0, 10795.0, 10803.0, 10810.0, 10813.0, 10820.0, 10823.0, 10823.0, 10813.0, 10805.0, 10811.0, 10825.0, 10850.0, 10851.0, 10862.0, 10835.0, 10829.0, 10804.0, 10795.0, 10791.0, 10817.0, 10823.0, 10839.0, 10830.0, 10818.0, 10804.0, 10806.0, 10802.0, 10810.0, 10809.0, 10816.0, 10817.0, 10821.0, 10828.0, 10816.0, 10816.0, 10836.0, 10842.0, 10852.0, 10843.0, 10827.0, 10825.0, 10828.0, 10823.0, 10824.0, 10830.0, 10814.0, 10804.0, 10793.0, 10796.0, 10810.0, 10817.0, 10849.0],
      "WindowWidth": [23572.0, 23436.0, 23355.0, 23323.0, 23260.0, 23229.0, 23201.0, 23224.0, 23255.0, 23233.0, 23208.0, 23184.0, 23165.0, 23171.0, 23187.0, 23195.0, 23194.0, 23195.0, 23215.0, 23246.0, 23233.0, 23224.0, 23234.0, 23236.0, 23196.0, 23178.0, 23143.0, 23153.0, 23161.0, 23163.0, 23158.0, 23119.0, 23098.0, 23120.0, 23119.0, 23139.0, 23127.0, 23137.0, 23137.0, 23140.0, 23163.0, 23175.0, 23184.0, 23176.0, 23179.0, 23181.0, 23188.0, 23221.0, 23194.0, 23154.0, 23123.0, 23133.0, 23136.0, 23099.0, 23128.0, 23102.0, 23149.0, 23149.0, 23153.0, 23153.0, 23159.0, 23132.0, 23119.0, 23149.0, 23159.0, 23169.0, 23168.0, 23155.0, 23139.0, 23141.0, 23144.0, 23154.0, 23199.0, 23212.0, 23228.0, 23186.0, 23140.0, 23134.0, 23112.0, 23114.0, 23142.0, 23161.0, 23153.0, 23134.0, 23104.0, 23085.0, 23090.0, 23084.0, 23112.0, 23122.0, 23130.0, 23148.0, 23154.0, 23153.0, 23129.0, 23112.0, 23125.0, 23155.0, 23217.0, 23220.0, 23253.0, 23175.0, 23158.0, 23115.0, 23090.0, 23077.0, 23138.0, 23150.0, 23181.0, 23160.0, 23131.0, 23103.0, 23103.0, 23097.0, 23116.0, 23115.0, 23129.0, 23133.0, 23144.0, 23162.0, 23136.0, 23136.0, 23180.0, 23194.0, 23223.0, 23202.0, 23161.0, 23160.0, 23161.0, 23155.0, 23152.0, 23163.0, 23127.0, 23103.0, 23079.0, 23085.0, 23122.0, 23136.0, 23222.0]
    },
    "slices": {}
  }
}