{
  "AcquisitionMatrixPE": 104,
  "AcquisitionNumber": 1,
  "AcquisitionTime": "15:06:53.320000",
  "BandwidthPerPixelPhaseEncode": 17.17,
  "BaseResolution": 104,
  "BodyPartExamined": "BRAIN",
  "CoilString": "HC1-7;NC1_2",
  "ConsistencyInfo": "N4_VE11C_LATEST_20160120",
  "ConversionSoftware": "dcm2niix",
  "ConversionSoftwareVersion": "v1.0.20190720  (JP2:OpenJPEG) GCC7.3.0",
  "DerivedVendorReportedEchoSpacing": 0.000560011,
  "DeviceSerialNumber": "167006",
  "DwellTime": 2.1e-06,
  "EchoTime": 0.037,
  "EchoTrainLength": 104,
  "EffectiveEchoSpacing": 0.000560011,
  "FlipAngle": 52,
  "ImageComments": "Unaliased_MB4_PE3_LB",
  "ImageOrientationPatientDICOM": [0.999989, -0.000302703, 0.00471727, 0.00261799, 0.866379, -0.499379],
  "ImageType": [
    "ORIGINAL",
    "PRIMARY",
    "M",
    "MB",
    "ND",
    "MOSAIC"
],
  "ImagingFrequency": 123.259,
  "InPlanePhaseEncodingDirectionDICOM": "COL",
  "InstitutionAddress": "Chemin_Queen-Mary_4565_Montreal_District_CA_H3W_1W5",
  "InstitutionName": "IUGM",
  "InstitutionalDepartmentName": "Department",
  "MRAcquisitionType": "2D",
  "MagneticFieldStrength": 3,
  "Manufacturer": "Siemens",
  "ManufacturersModelName": "Prisma_fit",
  "Modality": "MR",
  "MultibandAccelerationFactor": 4,
  "PartialFourier": 1,
  "PatientPosition": "HFS",
  "PercentPhaseFOV": 100,
  "PhaseEncodingDirection": "j",
  "PhaseEncodingSteps": 104,
  "PhaseResolution": 1,
  "PixelBandwidth": 2290,
  "ProcedureStepDescription": "hcptrt_generic",
  "ProtocolName": "func_task-gambling_run-1",
  "PulseSequenceDetails": "%CustomerSeq%_cmrr_mbep2d_bold",
  "ReceiveCoilActiveElements": "HC1-7;NC1,2",
  "ReceiveCoilName": "HeadNeck_64",
  "ReconMatrixPE": 104,
  "RepetitionTime": 1.49,
  "SAR": 0.0389215,
  "ScanOptions": "FS",
  "ScanningSequence": "EP",
  "SequenceName": "epfid2d1_104",
  "SequenceVariant": "SK_SS",
  "SeriesDescription": "func_task-gambling_run-1",
  "SeriesNumber": 13,
  "ShimSetting": [620, -7196, -8870, 399, -33, -207, 28, -34],
  "SliceThickness": 2,
  "SliceTiming": [0, 0.7825, 0.0975, 0.88, 0.195, 0.98, 0.2925, 1.0775, 0.39, 1.175, 0.49, 1.2725, 0.5875, 1.37, 0.685, 0, 0.7825, 0.0975, 0.88, 0.195, 0.98, 0.2925, 1.0775, 0.39, 1.175, 0.49, 1.2725, 0.5875, 1.37, 0.685, 0, 0.7825, 0.0975, 0.88, 0.195, 0.98, 0.2925, 1.0775, 0.39, 1.175, 0.49, 1.2725, 0.5875, 1.37, 0.685, 0, 0.7825, 0.0975, 0.88, 0.195, 0.98, 0.2925, 1.0775, 0.39, 1.175, 0.49, 1.2725, 0.5875, 1.37, 0.685],
  "SoftwareVersions": "syngo_MR_E11",
  "SpacingBetweenSlices": 2,
  "StationName": "MRC35049",
  "TaskName": "gambling",
  "TotalReadoutTime": 0.0576811,
  "TxRefAmp": 251.995,
  "WipMemBlock": "f368f3d3-1f3b-4951-a311-81c6b6cf38a3||Sequence: R016 ve11c/master r/e634e98; Dec 19 2017 11:00:25 by eja",
  "dcmmeta_affine": [
    [-1.999977707862854, 0.0052359821274876595, 0.00787156168371439, 101.99117279052734],
    [0.0006054061814211309, 1.7327589988708496, -0.998772144317627, -60.62862014770508],
    [0.009434536099433899, 0.9987585544586182, 1.7327412366867065, -101.0554428100586],
    [0.0, 0.0, 0.0, 1.0]
],
  "dcmmeta_reorient_transform": [
    [0.0, -1.0, 0.0, 103.0],
    [1.0, 0.0, 0.0, 0.0],
    [0.0, 0.0, 1.0, 0.0],
    [0.0, 0.0, 0.0, 1.0]
],
  "dcmmeta_shape": [104, 104, 60, 129],
  "dcmmeta_slice_dim": 2,
  "dcmmeta_version": 0.6,
  "global": {
    "const": {
      "AcquisitionMatrix": [104, 0, 0, 104],
      "AngioFlag": "N",
      "BitsAllocated": 16,
      "BitsStored": 16,
      "BodyPartExamined": "BRAIN",
      "Columns": 832,
      "EchoNumbers": 1,
      "EchoTime": 37.0,
      "EchoTrainLength": 104,
      "FlipAngle": 52.0,
      "HighBit": 15,
      "ImageOrientationPatient": [0.99998882781344, -0.0003027030957, 0.00471726818703, 0.00261799105558, 0.866379518117, -0.4993792914311],
      "ImagePositionPatient": [-832.42824302997, -748.34948111215, 361.9306447697],
      "ImageType": [
        "ORIGINAL",
        "PRIMARY",
        "M",
        "MB",
        "ND",
        "MOSAIC"
],
      "ImagedNucleus": "1H",
      "ImagingFrequency": 123.25914,
      "InPlanePhaseEncodingDirection": "COL",
      "MRAcquisitionType": "2D",
      "MagneticFieldStrength": 3.0,
      "Manufacturer": "SIEMENS",
      "ManufacturerModelName": "Prisma_fit",
      "Modality": "MR",
      "NumberOfAverages": 1.0,
      "NumberOfPhaseEncodingSteps": 104,
      "PercentPhaseFieldOfView": 100.0,
      "PercentSampling": 100.0,
      "PerformedProcedureStepStartTime": "143123.928000",
      "PhotometricInterpretation": "MONOCHROME2",
      "PixelBandwidth": 2290.0,
      "PixelRepresentation": 0,
      "PixelSpacing": [2.0, 2.0],
      "ProtocolName": "func_task-gambling_run-1",
      "RepetitionTime": 1490.0,
      "Rows": 832,
      "SAR": 0.03892145220253,
      "SamplesPerPixel": 1,
      "ScanOptions": "FS",
      "ScanningSequence": "EP",
      "SequenceName": "epfid2d1_104",
      "SequenceVariant": [
        "SK",
        "SS"
],
      "SeriesDescription": "func_task-gambling_run-1",
      "SeriesNumber": 13,
      "SeriesTime": "150759.239000",
      "SliceLocation": -56.872964063825,
      "SliceThickness": 2.0,
      "SmallestImagePixelValue": 0,
      "SoftwareVersions": "syngo MR E11",
      "SpacingBetweenSlices": 2.0000000090978,
      "SpecificCharacterSet": "ISO_IR 100",
      "StudyID": "1",
      "StudyTime": "143123.866000",
      "TransmitCoilName": "Body",
      "VariableFlipAngleFlag": "N",
      "WindowCenterWidthExplanation": "Algo1",
      "dBdt": 0.0},
    "slices": {}
  },
  "time": {
    "samples": {
      "AcquisitionNumber": [1, 2, 3, 4, 5, 6, 7, 8, 9, 10, 11, 12, 13, 14, 15, 16, 17, 18, 19, 20, 21, 22, 23, 24, 25, 26, 27, 28, 29, 30, 31, 32, 33, 34, 35, 36, 37, 38, 39, 40, 41, 42, 43, 44, 45, 46, 47, 48, 49, 50, 51, 52, 53, 54, 55, 56, 57, 58, 59, 60, 61, 62, 63, 64, 65, 66, 67, 68, 69, 70, 71, 72, 73, 74, 75, 76, 77, 78, 79, 80, 81, 82, 83, 84, 85, 86, 87, 88, 89, 90, 91, 92, 93, 94, 95, 96, 97, 98, 99, 100, 101, 102, 103, 104, 105, 106, 107, 108, 109, 110, 111, 112, 113, 114, 115, 116, 117, 118, 119, 120, 121, 122, 123, 124, 125, 126, 127, 128, 129],
      "AcquisitionTime": ["150653.320000", "150654.810000", "150656.300000", "150657.790000", "150659.280000", "150700.770000", "150702.260000", "150703.750000", "150705.240000", "150706.730000", "150708.220000", "150709.710000", "150711.200000", "150712.690000", "150714.180000", "150715.670000", "150717.160000", "150718.650000", "150720.140000", "150721.630000", "150723.120000", "150724.610000", "150726.100000", "150727.590000", "150729.080000", "150730.570000", "150732.060000", "150733.550000", "150735.040000", "150736.530000", "150738.020000", "150739.510000", "150741.000000", "150742.490000", "150743.980000", "150745.470000", "150746.960000", "150748.450000", "150749.940000", "150751.430000", "150752.920000", "150754.410000", "150755.900000", "150757.390000", "150758.880000", "150800.370000", "150801.860000", "150803.350000", "150804.840000", "150806.330000", "150807.820000", "150809.310000", "150810.800000", "150812.290000", "150813.780000", "150815.270000", "150816.760000", "150818.250000", "150819.740000", "150821.230000", "150822.720000", "150824.210000", "150825.700000", "150827.190000", "150828.680000", "150830.170000", "150831.660000", "150833.150000", "150834.640000", "150836.130000", "150837.620000", "150839.110000", "150840.600000", "150842.090000", "150843.580000", "150845.070000", "150846.560000", "150848.050000", "150849.540000", "150851.030000", "150852.520000", "150854.010000", "150855.500000", "150856.990000", "150858.480000", "150859.970000", "150901.460000", "150902.950000", "150904.440000", "150905.930000", "150907.420000", "150908.910000", "150910.400000", "150911.890000", "150913.380000", "150914.870000", "150916.360000", "150917.850000", "150919.340000", "150920.830000", "150922.320000", "150923.810000", "150925.300000", "150926.790000", "150928.280000", "150929.770000", "150931.260000", "150932.750000", "150934.240000", "150935.730000", "150937.220000", "150938.710000", "150940.200000", "150941.690000", "150943.180000", "150944.670000", "150946.160000", "150947.650000", "150949.140000", "150950.630000", "150952.120000", "150953.610000", "150955.100000", "150956.590000", "150958.080000", "150959.570000", "151001.060000", "151002.550000", "151004.040000"],
      "ContentTime": ["150759.241000", "150759.246000", "150759.249000", "150759.252000", "150759.255000", "150759.258000", "150759.261000", "150759.268000", "150759.271000", "150759.286000", "150759.289000", "150759.292000", "150819.199000", "150819.202000", "150819.205000", "150819.208000", "150819.211000", "150819.214000", "150819.217000", "150819.219000", "150819.222000", "150819.225000", "150819.228000", "150819.231000", "150819.234000", "150819.237000", "150819.240000", "150819.243000", "150819.246000", "150819.249000", "150819.252000", "150819.254000", "150839.198000", "150839.201000", "150839.204000", "150839.207000", "150839.210000", "150839.213000", "150839.216000", "150839.218000", "150839.221000", "150839.224000", "150839.227000", "150839.230000", "150839.233000", "150839.236000", "150839.239000", "150839.242000", "150839.246000", "150839.249000", "150839.252000", "150839.255000", "150859.198000", "150859.201000", "150859.204000", "150859.207000", "150859.210000", "150859.213000", "150859.220000", "150859.223000", "150859.226000", "150859.229000", "150859.232000", "150859.235000", "150859.256000", "150859.259000", "150859.262000", "150859.264000", "150859.267000", "150859.270000", "150859.273000", "150859.276000", "150859.279000", "150919.199000", "150919.202000", "150919.205000", "150919.208000", "150919.216000", "150919.219000", "150919.222000", "150919.225000", "150919.228000", "150919.238000", "150919.241000", "150919.244000", "150919.247000", "150919.250000", "150919.253000", "150919.256000", "150919.259000", "150919.262000", "150919.265000", "150919.268000", "150959.199000", "150959.202000", "150959.205000", "150959.208000", "150959.211000", "150959.214000", "150959.217000", "150959.220000", "150959.223000", "150959.226000", "150959.229000", "150959.231000", "150959.234000", "150959.237000", "150959.240000", "150959.243000", "150959.246000", "150959.249000", "150959.252000", "150959.255000", "150959.258000", "150959.261000", "150959.264000", "150959.267000", "150959.270000", "150959.273000", "150959.276000", "150959.279000", "150959.282000", "150959.285000", "150959.288000", "151005.868000", "151005.872000", "151005.875000", "151005.878000", "151005.881000"],
      "InstanceCreationTime": ["150759.241000", "150759.246000", "150759.249000", "150759.252000", "150759.255000", "150759.258000", "150759.261000", "150759.268000", "150759.271000", "150759.286000", "150759.289000", "150759.292000", "150819.199000", "150819.202000", "150819.205000", "150819.208000", "150819.211000", "150819.214000", "150819.217000", "150819.219000", "150819.222000", "150819.225000", "150819.228000", "150819.231000", "150819.234000", "150819.237000", "150819.240000", "150819.243000", "150819.246000", "150819.249000", "150819.252000", "150819.254000", "150839.198000", "150839.201000", "150839.204000", "150839.207000", "150839.210000", "150839.213000", "150839.216000", "150839.218000", "150839.221000", "150839.224000", "150839.227000", "150839.230000", "150839.233000", "150839.236000", "150839.239000", "150839.242000", "150839.246000", "150839.249000", "150839.252000", "150839.255000", "150859.198000", "150859.201000", "150859.204000", "150859.207000", "150859.210000", "150859.213000", "150859.220000", "150859.223000", "150859.226000", "150859.229000", "150859.232000", "150859.235000", "150859.256000", "150859.259000", "150859.262000", "150859.264000", "150859.267000", "150859.270000", "150859.273000", "150859.276000", "150859.279000", "150919.199000", "150919.202000", "150919.205000", "150919.208000", "150919.216000", "150919.219000", "150919.222000", "150919.225000", "150919.228000", "150919.238000", "150919.241000", "150919.244000", "150919.247000", "150919.250000", "150919.253000", "150919.256000", "150919.259000", "150919.262000", "150919.265000", "150919.268000", "150959.199000", "150959.202000", "150959.205000", "150959.208000", "150959.211000", "150959.214000", "150959.217000", "150959.220000", "150959.223000", "150959.226000", "150959.229000", "150959.231000", "150959.234000", "150959.237000", "150959.240000", "150959.243000", "150959.246000", "150959.249000", "150959.252000", "150959.255000", "150959.258000", "150959.261000", "150959.264000", "150959.267000", "150959.270000", "150959.273000", "150959.276000", "150959.279000", "150959.282000", "150959.285000", "150959.288000", "151005.868000", "151005.872000", "151005.875000", "151005.878000", "151005.881000"],
      "InstanceNumber": [1, 2, 3, 4, 5, 6, 7, 8, 9, 10, 11, 12, 13, 14, 15, 16, 17, 18, 19, 20, 21, 22, 23, 24, 25, 26, 27, 28, 29, 30, 31, 32, 33, 34, 35, 36, 37, 38, 39, 40, 41, 42, 43, 44, 45, 46, 47, 48, 49, 50, 51, 52, 53, 54, 55, 56, 57, 58, 59, 60, 61, 62, 63, 64, 65, 66, 67, 68, 69, 70, 71, 72, 73, 74, 75, 76, 77, 78, 79, 80, 81, 82, 83, 84, 85, 86, 87, 88, 89, 90, 91, 92, 93, 94, 95, 96, 97, 98, 99, 100, 101, 102, 103, 104, 105, 106, 107, 108, 109, 110, 111, 112, 113, 114, 115, 116, 117, 118, 119, 120, 121, 122, 123, 124, 125, 126, 127, 128, 129],
      "LargestImagePixelValue": [43705, 42481, 41971, 41505, 41046, 41202, 41204, 41021, 41041, 40884, 41098, 40954, 41595, 40925, 40638, 40546, 40787, 40705, 40411, 40854, 40787, 40510, 40658, 40766, 40553, 41021, 40941, 40910, 40894, 40713, 40902, 40871, 40700, 40823, 40648, 41138, 40829, 40513, 40837, 40798, 40995, 40678, 41057, 40951, 40763, 40744, 40736, 43180, 40977, 40835, 41228, 41182, 40919, 41102, 40732, 40709, 41048, 40778, 40910, 41938, 40925, 40353, 40220, 40156, 40855, 40843, 41107, 41013, 41025, 40849, 40704, 40693, 40627, 40445, 40779, 40932, 40729, 40876, 40736, 40859, 40749, 40810, 40854, 41062, 40829, 41004, 40743, 41544, 40815, 40797, 40719, 40764, 40554, 40855, 41167, 41278, 40751, 40992, 40629, 40538, 40558, 40693, 41032, 40432, 41139, 41125, 41098, 40651, 40659, 40772, 40803, 40629, 41111, 40696, 40758, 45962, 41604, 40123, 39975, 40457, 39829, 40098, 40660, 40726, 40662, 40296, 39993, 42752, 40965],
      "WindowCenter": [10908.0, 10830.0, 10821.0, 10816.0, 10808.0, 10797.0, 10792.0, 10781.0, 10794.0, 10788.0, 10790.0, 10795.0, 10806.0, 10816.0, 10804.0, 10799.0, 10784.0, 10797.0, 10790.0, 10796.0, 10800.0, 10793.0, 10788.0, 10778.0, 10777.0, 10777.0, 10790.0, 10798.0, 10796.0, 10798.0, 10789.0, 10780.0, 10770.0, 10774.0, 10776.0, 10783.0, 10784.0, 10779.0, 10776.0, 10776.0, 10777.0, 10776.0, 10787.0, 10796.0, 10795.0, 10781.0, 10770.0, 10815.0, 10797.0, 10806.0, 10804.0, 10783.0, 10767.0, 10757.0, 10729.0, 10775.0, 10814.0, 10827.0, 10825.0, 10829.0, 10788.0, 10765.0, 10761.0, 10754.0, 10764.0, 10767.0, 10785.0, 10785.0, 10777.0, 10779.0, 10780.0, 10778.0, 10778.0, 10783.0, 10782.0, 10786.0, 10778.0, 10783.0, 10778.0, 10782.0, 10785.0, 10793.0, 10796.0, 10798.0, 10791.0, 10787.0, 10775.0, 10776.0, 10775.0, 10786.0, 10778.0, 10751.0, 10739.0, 10749.0, 10778.0, 10799.0, 10806.0, 10794.0, 10781.0, 10772.0, 10767.0, 10775.0, 10795.0, 10800.0, 10804.0, 10794.0, 10778.0, 10771.0, 10760.0, 10769.0, 10791.0, 10792.0, 10797.0, 10785.0, 10778.0, 10835.0, 10808.0, 10795.0, 10757.0, 10733.0, 10752.0, 10771.0, 10790.0, 10778.0, 10776.0, 10753.0, 10752.0, 10782.0, 10770.0],
      "WindowWidth": [23421.0, 23203.0, 23167.0, 23152.0, 23126.0, 23093.0, 23075.0, 23054.0, 23080.0, 23068.0, 23079.0, 23084.0, 23106.0, 23145.0, 23112.0, 23101.0, 23065.0, 23095.0, 23077.0, 23089.0, 23101.0, 23086.0, 23073.0, 23046.0, 23051.0, 23047.0, 23074.0, 23098.0, 23091.0, 23098.0, 23079.0, 23055.0, 23033.0, 23040.0, 23042.0, 23055.0, 23058.0, 23050.0, 23043.0, 23042.0, 23046.0, 23045.0, 23068.0, 23088.0, 23088.0, 23056.0, 23031.0, 23130.0, 23094.0, 23112.0, 23106.0, 23058.0, 23020.0, 23001.0, 22935.0, 23050.0, 23128.0, 23161.0, 23157.0, 23168.0, 23072.0, 23021.0, 23020.0, 23001.0, 23016.0, 23022.0, 23067.0, 23062.0, 23042.0, 23054.0, 23058.0, 23048.0, 23048.0, 23064.0, 23060.0, 23066.0, 23048.0, 23054.0, 23047.0, 23054.0, 23064.0, 23082.0, 23089.0, 23095.0, 23089.0, 23085.0, 23043.0, 23050.0, 23044.0, 23062.0, 23047.0, 22985.0, 22957.0, 22981.0, 23044.0, 23093.0, 23117.0, 23082.0, 23061.0, 23041.0, 23022.0, 23043.0, 23096.0, 23105.0, 23108.0, 23084.0, 23046.0, 23037.0, 23007.0, 23030.0, 23075.0, 23089.0, 23090.0, 23068.0, 23045.0, 23177.0, 23118.0, 23089.0, 23004.0, 22953.0, 22995.0, 23031.0, 23074.0, 23057.0, 23046.0, 23002.0, 22996.0, 23056.0, 23033.0]
    },
    "slices": {}
  }
}