{
  "AcquisitionMatrixPE": 104,
  "AcquisitionNumber": 1,
  "AcquisitionTime": "15:25:38.220000",
  "BandwidthPerPixelPhaseEncode": 17.17,
  "BaseResolution": 104,
  "BodyPartExamined": "BRAIN",
  "CoilString": "HC1-7;NC1_2",
  "ConsistencyInfo": "N4_VE11C_LATEST_20160120",
  "ConversionSoftware": "dcm2niix",
  "ConversionSoftwareVersion": "v1.0.20190720  (JP2:OpenJPEG) GCC7.3.0",
  "DerivedVendorReportedEchoSpacing": 0.000560011,
  "DeviceSerialNumber": "167006",
  "DwellTime": 2.1e-06,
  "EchoTime": 0.037,
  "EchoTrainLength": 104,
  "EffectiveEchoSpacing": 0.000560011,
  "FlipAngle": 52,
  "ImageComments": "Unaliased_MB4_PE3_LB",
  "ImageOrientationPatientDICOM": [0.999989, -0.000302703, 0.00471727, 0.00261799, 0.866379, -0.499379],
  "ImageType": [
    "ORIGINAL",
    "PRIMARY",
    "M",
    "MB",
    "ND",
    "MOSAIC"
],
  "ImagingFrequency": 123.259,
  "InPlanePhaseEncodingDirectionDICOM": "COL",
  "InstitutionAddress": "Chemin_Queen-Mary_4565_Montreal_District_CA_H3W_1W5",
  "InstitutionName": "IUGM",
  "InstitutionalDepartmentName": "Department",
  "MRAcquisitionType": "2D",
  "MagneticFieldStrength": 3,
  "Manufacturer": "Siemens",
  "ManufacturersModelName": "Prisma_fit",
  "Modality": "MR",
  "MultibandAccelerationFactor": 4,
  "PartialFourier": 1,
  "PatientPosition": "HFS",
  "PercentPhaseFOV": 100,
  "PhaseEncodingDirection": "j",
  "PhaseEncodingSteps": 104,
  "PhaseResolution": 1,
  "PixelBandwidth": 2290,
  "ProcedureStepDescription": "hcptrt_generic",
  "ProtocolName": "func_task-wm_run-1",
  "PulseSequenceDetails": "%CustomerSeq%_cmrr_mbep2d_bold",
  "ReceiveCoilActiveElements": "HC1-7;NC1,2",
  "ReceiveCoilName": "HeadNeck_64",
  "ReconMatrixPE": 104,
  "RepetitionTime": 1.49,
  "SAR": 0.0391271,
  "ScanOptions": "FS",
  "ScanningSequence": "EP",
  "SequenceName": "epfid2d1_104",
  "SequenceVariant": "SK_SS",
  "SeriesDescription": "func_task-wm_run-1",
  "SeriesNumber": 23,
  "ShimSetting": [620, -7196, -8870, 399, -33, -207, 28, -34],
  "SliceThickness": 2,
  "SliceTiming": [0, 0.7825, 0.0975, 0.88, 0.195, 0.98, 0.2925, 1.0775, 0.39, 1.175, 0.49, 1.2725, 0.5875, 1.37, 0.685, 0, 0.7825, 0.0975, 0.88, 0.195, 0.98, 0.2925, 1.0775, 0.39, 1.175, 0.49, 1.2725, 0.5875, 1.37, 0.685, 0, 0.7825, 0.0975, 0.88, 0.195, 0.98, 0.2925, 1.0775, 0.39, 1.175, 0.49, 1.2725, 0.5875, 1.37, 0.685, 0, 0.7825, 0.0975, 0.88, 0.195, 0.98, 0.2925, 1.0775, 0.39, 1.175, 0.49, 1.2725, 0.5875, 1.37, 0.685],
  "SoftwareVersions": "syngo_MR_E11",
  "SpacingBetweenSlices": 2,
  "StationName": "MRC35049",
  "TaskName": "wm",
  "TotalReadoutTime": 0.0576811,
  "TxRefAmp": 251.995,
  "WipMemBlock": "3612fc12-4ab9-43f3-ac72-f015fdc441dd||Sequence: R016 ve11c/master r/e634e98; Dec 19 2017 11:00:25 by eja",
  "dcmmeta_affine": [
    [-1.999977707862854, 0.0052359821274876595, 0.00787156168371439, 101.99117279052734],
    [0.0006054061814211309, 1.7327589988708496, -0.998772144317627, -60.62862014770508],
    [0.009434536099433899, 0.9987585544586182, 1.7327412366867065, -101.0554428100586],
    [0.0, 0.0, 0.0, 1.0]
],
  "dcmmeta_reorient_transform": [
    [0.0, -1.0, 0.0, 103.0],
    [1.0, 0.0, 0.0, 0.0],
    [0.0, 0.0, 1.0, 0.0],
    [0.0, 0.0, 0.0, 1.0]
],
  "dcmmeta_shape": [104, 104, 60, 202],
  "dcmmeta_slice_dim": 2,
  "dcmmeta_version": 0.6,
  "global": {
    "const": {
      "AcquisitionMatrix": [104, 0, 0, 104],
      "AngioFlag": "N",
      "BitsAllocated": 16,
      "BitsStored": 16,
      "BodyPartExamined": "BRAIN",
      "Columns": 832,
      "EchoNumbers": 1,
      "EchoTime": 37.0,
      "EchoTrainLength": 104,
      "FlipAngle": 52.0,
      "HighBit": 15,
      "ImageOrientationPatient": [0.99998882781344, -0.0003027030957, 0.00471726818703, 0.00261799105558, 0.866379518117, -0.4993792914311],
      "ImagePositionPatient": [-832.42824302997, -748.34948111215, 361.9306447697],
      "ImageType": [
        "ORIGINAL",
        "PRIMARY",
        "M",
        "MB",
        "ND",
        "MOSAIC"
],
      "ImagedNucleus": "1H",
      "ImagingFrequency": 123.259137,
      "InPlanePhaseEncodingDirection": "COL",
      "MRAcquisitionType": "2D",
      "MagneticFieldStrength": 3.0,
      "Manufacturer": "SIEMENS",
      "ManufacturerModelName": "Prisma_fit",
      "Modality": "MR",
      "NumberOfAverages": 1.0,
      "NumberOfPhaseEncodingSteps": 104,
      "PercentPhaseFieldOfView": 100.0,
      "PercentSampling": 100.0,
      "PerformedProcedureStepStartTime": "143123.928000",
      "PhotometricInterpretation": "MONOCHROME2",
      "PixelBandwidth": 2290.0,
      "PixelRepresentation": 0,
      "PixelSpacing": [2.0, 2.0],
      "ProtocolName": "func_task-wm_run-1",
      "RepetitionTime": 1490.0,
      "Rows": 832,
      "SAR": 0.03912705034253,
      "SamplesPerPixel": 1,
      "ScanOptions": "FS",
      "ScanningSequence": "EP",
      "SequenceName": "epfid2d1_104",
      "SequenceVariant": [
        "SK",
        "SS"
],
      "SeriesDescription": "func_task-wm_run-1",
      "SeriesNumber": 23,
      "SeriesTime": "152707.317000",
      "SliceLocation": -56.872964063825,
      "SliceThickness": 2.0,
      "SmallestImagePixelValue": 0,
      "SoftwareVersions": "syngo MR E11",
      "SpacingBetweenSlices": 2.0000000090978,
      "SpecificCharacterSet": "ISO_IR 100",
      "StudyID": "1",
      "StudyTime": "143123.866000",
      "TransmitCoilName": "Body",
      "VariableFlipAngleFlag": "N",
      "WindowCenterWidthExplanation": "Algo1",
      "dBdt": 0.0},
    "slices": {}
  },
  "time": {
    "samples": {
      "AcquisitionNumber": [1, 2, 3, 4, 5, 6, 7, 8, 9, 10, 11, 12, 13, 14, 15, 16, 17, 18, 19, 20, 21, 22, 23, 24, 25, 26, 27, 28, 29, 30, 31, 32, 33, 34, 35, 36, 37, 38, 39, 40, 41, 42, 43, 44, 45, 46, 47, 48, 49, 50, 51, 52, 53, 54, 55, 56, 57, 58, 59, 60, 61, 62, 63, 64, 65, 66, 67, 68, 69, 70, 71, 72, 73, 74, 75, 76, 77, 78, 79, 80, 81, 82, 83, 84, 85, 86, 87, 88, 89, 90, 91, 92, 93, 94, 95, 96, 97, 98, 99, 100, 101, 102, 103, 104, 105, 106, 107, 108, 109, 110, 111, 112, 113, 114, 115, 116, 117, 118, 119, 120, 121, 122, 123, 124, 125, 126, 127, 128, 129, 130, 131, 132, 133, 134, 135, 136, 137, 138, 139, 140, 141, 142, 143, 144, 145, 146, 147, 148, 149, 150, 151, 152, 153, 154, 155, 156, 157, 158, 159, 160, 161, 162, 163, 164, 165, 166, 167, 168, 169, 170, 171, 172, 173, 174, 175, 176, 177, 178, 179, 180, 181, 182, 183, 184, 185, 186, 187, 188, 189, 190, 191, 192, 193, 194, 195, 196, 197, 198, 199, 200, 201, 202],
      "AcquisitionTime": ["152538.220000", "152539.710000", "152541.200000", "152542.690000", "152544.180000", "152545.670000", "152547.160000", "152548.650000", "152550.140000", "152551.630000", "152553.120000", "152554.610000", "152556.100000", "152557.590000", "152559.080000", "152600.570000", "152602.060000", "152603.550000", "152605.040000", "152606.530000", "152608.020000", "152609.510000", "152611.000000", "152612.490000", "152613.980000", "152615.470000", "152616.960000", "152618.450000", "152619.940000", "152621.430000", "152622.920000", "152624.410000", "152625.900000", "152627.390000", "152628.880000", "152630.370000", "152631.860000", "152633.350000", "152634.840000", "152636.330000", "152637.820000", "152639.310000", "152640.800000", "152642.290000", "152643.780000", "152645.270000", "152646.760000", "152648.250000", "152649.740000", "152651.230000", "152652.720000", "152654.210000", "152655.700000", "152657.190000", "152658.680000", "152700.170000", "152701.660000", "152703.150000", "152704.640000", "152706.130000", "152707.620000", "152709.110000", "152710.600000", "152712.090000", "152713.580000", "152715.070000", "152716.560000", "152718.050000", "152719.540000", "152721.030000", "152722.520000", "152724.010000", "152725.500000", "152726.990000", "152728.480000", "152729.970000", "152731.460000", "152732.950000", "152734.440000", "152735.930000", "152737.420000", "152738.910000", "152740.400000", "152741.890000", "152743.380000", "152744.870000", "152746.360000", "152747.850000", "152749.340000", "152750.830000", "152752.320000", "152753.810000", "152755.300000", "152756.790000", "152758.280000", "152759.770000", "152801.260000", "152802.750000", "152804.240000", "152805.730000", "152807.220000", "152808.710000", "152810.200000", "152811.690000", "152813.180000", "152814.670000", "152816.160000", "152817.650000", "152819.140000", "152820.630000", "152822.120000", "152823.610000", "152825.100000", "152826.590000", "152828.080000", "152829.570000", "152831.060000", "152832.550000", "152834.040000", "152835.530000", "152837.020000", "152838.510000", "152840.000000", "152841.490000", "152842.980000", "152844.470000", "152845.960000", "152847.450000", "152848.940000", "152850.430000", "152851.920000", "152853.410000", "152854.900000", "152856.390000", "152857.880000", "152859.370000", "152900.860000", "152902.350000", "152903.840000", "152905.330000", "152906.820000", "152908.310000", "152909.800000", "152911.290000", "152912.780000", "152914.270000", "152915.760000", "152917.250000", "152918.740000", "152920.230000", "152921.720000", "152923.210000", "152924.700000", "152926.190000", "152927.680000", "152929.170000", "152930.660000", "152932.150000", "152933.640000", "152935.130000", "152936.620000", "152938.110000", "152939.600000", "152941.090000", "152942.580000", "152944.070000", "152945.560000", "152947.050000", "152948.540000", "152950.030000", "152951.520000", "152953.010000", "152954.500000", "152955.990000", "152957.480000", "152958.970000", "153000.460000", "153001.950000", "153003.440000", "153004.930000", "153006.420000", "153007.910000", "153009.400000", "153010.890000", "153012.380000", "153013.870000", "153015.360000", "153016.850000", "153018.340000", "153019.830000", "153021.320000", "153022.810000", "153024.300000", "153025.790000", "153027.280000", "153028.770000", "153030.260000", "153031.750000", "153033.240000", "153034.730000", "153036.220000", "153037.710000"],
      "ContentTime": ["152707.320000", "152707.324000", "152707.327000", "152707.329000", "152707.332000", "152707.335000", "152707.338000", "152707.341000", "152707.351000", "152707.354000", "152707.357000", "152707.360000", "152707.363000", "152707.366000", "152707.369000", "152707.372000", "152707.375000", "152707.377000", "152707.380000", "152707.383000", "152707.386000", "152707.389000", "152707.392000", "152707.395000", "152707.398000", "152707.401000", "152707.404000", "152707.407000", "152707.410000", "152707.413000", "152707.416000", "152707.419000", "152707.422000", "152707.424000", "152707.427000", "152727.288000", "152727.291000", "152727.294000", "152727.297000", "152727.300000", "152727.303000", "152727.306000", "152727.309000", "152727.312000", "152727.315000", "152727.317000", "152727.320000", "152727.323000", "152727.326000", "152727.329000", "152727.332000", "152727.335000", "152727.338000", "152727.341000", "152727.344000", "152747.287000", "152747.290000", "152747.293000", "152747.296000", "152747.310000", "152747.316000", "152747.318000", "152747.321000", "152747.334000", "152747.337000", "152747.340000", "152747.343000", "152747.346000", "152747.349000", "152747.352000", "152747.354000", "152747.357000", "152747.360000", "152747.363000", "152747.366000", "152807.287000", "152807.290000", "152807.293000", "152807.296000", "152807.299000", "152807.302000", "152807.305000", "152807.308000", "152807.310000", "152807.313000", "152807.316000", "152807.319000", "152807.322000", "152807.325000", "152807.328000", "152807.331000", "152807.334000", "152807.337000", "152807.340000", "152807.343000", "152847.287000", "152847.290000", "152847.293000", "152847.296000", "152847.299000", "152847.302000", "152847.305000", "152847.308000", "152847.311000", "152847.314000", "152847.317000", "152847.319000", "152847.322000", "152847.325000", "152847.328000", "152847.331000", "152847.334000", "152847.337000", "152847.340000", "152847.343000", "152847.346000", "152847.363000", "152847.366000", "152847.369000", "152847.372000", "152847.375000", "152847.378000", "152847.381000", "152847.384000", "152847.387000", "152847.389000", "152927.288000", "152927.291000", "152927.294000", "152927.297000", "152927.300000", "152927.303000", "152927.306000", "152927.309000", "152927.312000", "152927.315000", "152927.318000", "152927.321000", "152927.324000", "152927.327000", "152927.330000", "152927.333000", "152927.336000", "152927.339000", "152927.341000", "152927.344000", "152927.347000", "152927.350000", "152927.353000", "152927.356000", "152927.359000", "152927.362000", "152927.365000", "153007.287000", "153007.290000", "153007.293000", "153007.296000", "153007.299000", "153007.302000", "153007.305000", "153007.308000", "153007.311000", "153007.314000", "153007.317000", "153007.320000", "153007.323000", "153007.326000", "153007.329000", "153007.332000", "153007.335000", "153007.338000", "153007.341000", "153007.343000", "153007.346000", "153007.349000", "153007.352000", "153007.355000", "153007.358000", "153007.361000", "153007.364000", "153039.969000", "153039.972000", "153039.975000", "153039.978000", "153039.981000", "153039.985000", "153039.988000", "153039.990000", "153039.993000", "153039.996000", "153040.000000", "153040.003000", "153040.006000", "153040.009000", "153040.019000", "153040.022000", "153040.025000", "153040.028000", "153040.032000", "153040.035000", "153040.038000", "153040.041000"],
      "InstanceCreationTime": ["152707.320000", "152707.324000", "152707.327000", "152707.329000", "152707.332000", "152707.335000", "152707.338000", "152707.341000", "152707.351000", "152707.354000", "152707.357000", "152707.360000", "152707.363000", "152707.366000", "152707.369000", "152707.372000", "152707.375000", "152707.377000", "152707.380000", "152707.383000", "152707.386000", "152707.389000", "152707.392000", "152707.395000", "152707.398000", "152707.401000", "152707.404000", "152707.407000", "152707.410000", "152707.413000", "152707.416000", "152707.419000", "152707.422000", "152707.424000", "152707.427000", "152727.288000", "152727.291000", "152727.294000", "152727.297000", "152727.300000", "152727.303000", "152727.306000", "152727.309000", "152727.312000", "152727.315000", "152727.317000", "152727.320000", "152727.323000", "152727.326000", "152727.329000", "152727.332000", "152727.335000", "152727.338000", "152727.341000", "152727.344000", "152747.287000", "152747.290000", "152747.293000", "152747.296000", "152747.310000", "152747.316000", "152747.318000", "152747.321000", "152747.334000", "152747.337000", "152747.340000", "152747.343000", "152747.346000", "152747.349000", "152747.352000", "152747.354000", "152747.357000", "152747.360000", "152747.363000", "152747.366000", "152807.287000", "152807.290000", "152807.293000", "152807.296000", "152807.299000", "152807.302000", "152807.305000", "152807.308000", "152807.310000", "152807.313000", "152807.316000", "152807.319000", "152807.322000", "152807.325000", "152807.328000", "152807.331000", "152807.334000", "152807.337000", "152807.340000", "152807.343000", "152847.287000", "152847.290000", "152847.293000", "152847.296000", "152847.299000", "152847.302000", "152847.305000", "152847.308000", "152847.311000", "152847.314000", "152847.317000", "152847.319000", "152847.322000", "152847.325000", "152847.328000", "152847.331000", "152847.334000", "152847.337000", "152847.340000", "152847.343000", "152847.346000", "152847.363000", "152847.366000", "152847.369000", "152847.372000", "152847.375000", "152847.378000", "152847.381000", "152847.384000", "152847.387000", "152847.389000", "152927.288000", "152927.291000", "152927.294000", "152927.297000", "152927.300000", "152927.303000", "152927.306000", "152927.309000", "152927.312000", "152927.315000", "152927.318000", "152927.321000", "152927.324000", "152927.327000", "152927.330000", "152927.333000", "152927.336000", "152927.339000", "152927.341000", "152927.344000", "152927.347000", "152927.350000", "152927.353000", "152927.356000", "152927.359000", "152927.362000", "152927.365000", "153007.287000", "153007.290000", "153007.293000", "153007.296000", "153007.299000", "153007.302000", "153007.305000", "153007.308000", "153007.311000", "153007.314000", "153007.317000", "153007.320000", "153007.323000", "153007.326000", "153007.329000", "153007.332000", "153007.335000", "153007.338000", "153007.341000", "153007.343000", "153007.346000", "153007.349000", "153007.352000", "153007.355000", "153007.358000", "153007.361000", "153007.364000", "153039.969000", "153039.972000", "153039.975000", "153039.978000", "153039.981000", "153039.985000", "153039.988000", "153039.990000", "153039.993000", "153039.996000", "153040.000000", "153040.003000", "153040.006000", "153040.009000", "153040.019000", "153040.022000", "153040.025000", "153040.028000", "153040.032000", "153040.035000", "153040.038000", "153040.041000"],
      "InstanceNumber": [1, 2, 3, 4, 5, 6, 7, 8, 9, 10, 11, 12, 13, 14, 15, 16, 17, 18, 19, 20, 21, 22, 23, 24, 25, 26, 27, 28, 29, 30, 31, 32, 33, 34, 35, 36, 37, 38, 39, 40, 41, 42, 43, 44, 45, 46, 47, 48, 49, 50, 51, 52, 53, 54, 55, 56, 57, 58, 59, 60, 61, 62, 63, 64, 65, 66, 67, 68, 69, 70, 71, 72, 73, 74, 75, 76, 77, 78, 79, 80, 81, 82, 83, 84, 85, 86, 87, 88, 89, 90, 91, 92, 93, 94, 95, 96, 97, 98, 99, 100, 101, 102, 103, 104, 105, 106, 107, 108, 109, 110, 111, 112, 113, 114, 115, 116, 117, 118, 119, 120, 121, 122, 123, 124, 125, 126, 127, 128, 129, 130, 131, 132, 133, 134, 135, 136, 137, 138, 139, 140, 141, 142, 143, 144, 145, 146, 147, 148, 149, 150, 151, 152, 153, 154, 155, 156, 157, 158, 159, 160, 161, 162, 163, 164, 165, 166, 167, 168, 169, 170, 171, 172, 173, 174, 175, 176, 177, 178, 179, 180, 181, 182, 183, 184, 185, 186, 187, 188, 189, 190, 191, 192, 193, 194, 195, 196, 197, 198, 199, 200, 201, 202],
      "LargestImagePixelValue": [44975, 43253, 42381, 42190, 41815, 41869, 42060, 41459, 41927, 41661, 41763, 41405, 41848, 41497, 41987, 41722, 41730, 41396, 41857, 41749, 41564, 41576, 41473, 41666, 41821, 41202, 41953, 41573, 41944, 41657, 41605, 41439, 41157, 41468, 41206, 41489, 41619, 41123, 41760, 41681, 41607, 41123, 41464, 41459, 41395, 40687, 41065, 41008, 40969, 40816, 40871, 40919, 41374, 41505, 41187, 41464, 41665, 41641, 41646, 41281, 41578, 41137, 41574, 41705, 41528, 41634, 41396, 41344, 41579, 41616, 41628, 41694, 41729, 41416, 41751, 41371, 41543, 41297, 41281, 41134, 41049, 41103, 41248, 41109, 41191, 41361, 40678, 41326, 41092, 41143, 41346, 41146, 41499, 44405, 41343, 39806, 44901, 43917, 39765, 39483, 41141, 40001, 40118, 40284, 40305, 40575, 40201, 40356, 40077, 40178, 40143, 40201, 40162, 40617, 40200, 40728, 40462, 40337, 40568, 40593, 40714, 40596, 41105, 41134, 40985, 41175, 41024, 40946, 40947, 41181, 41224, 40967, 40868, 41025, 41159, 41225, 40872, 40680, 40563, 40630, 41043, 40574, 40665, 40896, 41164, 40990, 41105, 40818, 40996, 41004, 41404, 40946, 41105, 41224, 41023, 40727, 40945, 40999, 40795, 41137, 40702, 40969, 40809, 41043, 40775, 41323, 41170, 40923, 40826, 41240, 41535, 42120, 41255, 41004, 41167, 41035, 41187, 40527, 41141, 41250, 41366, 41367, 41565, 41332, 41044, 41547, 41217, 41397, 41300, 41688, 41229, 41706, 41367, 39715, 41900, 42088, 40971, 41102, 41227, 40140, 41473, 41463],
      "WindowCenter": [10881.0, 10812.0, 10790.0, 10806.0, 10799.0, 10789.0, 10769.0, 10751.0, 10749.0, 10755.0, 10775.0, 10770.0, 10783.0, 10778.0, 10775.0, 10756.0, 10749.0, 10750.0, 10764.0, 10763.0, 10765.0, 10756.0, 10748.0, 10745.0, 10741.0, 10731.0, 10743.0, 10744.0, 10752.0, 10747.0, 10746.0, 10738.0, 10739.0, 10745.0, 10748.0, 10747.0, 10743.0, 10729.0, 10733.0, 10736.0, 10743.0, 10743.0, 10737.0, 10736.0, 10750.0, 10744.0, 10735.0, 10733.0, 10745.0, 10736.0, 10716.0, 10719.0, 10732.0, 10746.0, 10750.0, 10759.0, 10758.0, 10749.0, 10749.0, 10735.0, 10741.0, 10753.0, 10752.0, 10758.0, 10767.0, 10762.0, 10754.0, 10751.0, 10757.0, 10757.0, 10753.0, 10750.0, 10750.0, 10755.0, 10751.0, 10743.0, 10748.0, 10741.0, 10751.0, 10745.0, 10745.0, 10746.0, 10755.0, 10754.0, 10753.0, 10753.0, 10756.0, 10761.0, 10752.0, 10743.0, 10739.0, 10738.0, 10750.0, 10783.0, 10746.0, 10780.0, 10798.0, 10743.0, 10688.0, 10703.0, 10733.0, 10708.0, 10696.0, 10696.0, 10713.0, 10730.0, 10742.0, 10751.0, 10745.0, 10752.0, 10740.0, 10744.0, 10758.0, 10766.0, 10765.0, 10780.0, 10773.0, 10772.0, 10773.0, 10762.0, 10768.0, 10760.0, 10766.0, 10773.0, 10768.0, 10764.0, 10758.0, 10759.0, 10758.0, 10763.0, 10756.0, 10749.0, 10753.0, 10758.0, 10766.0, 10757.0, 10740.0, 10723.0, 10720.0, 10716.0, 10721.0, 10737.0, 10741.0, 10744.0, 10741.0, 10725.0, 10720.0, 10720.0, 10737.0, 10736.0, 10732.0, 10735.0, 10731.0, 10735.0, 10727.0, 10723.0, 10729.0, 10737.0, 10742.0, 10748.0, 10740.0, 10748.0, 10751.0, 10765.0, 10760.0, 10763.0, 10761.0, 10756.0, 10756.0, 10764.0, 10760.0, 10768.0, 10755.0, 10748.0, 10736.0, 10726.0, 10732.0, 10747.0, 10773.0, 10772.0, 10772.0, 10755.0, 10749.0, 10744.0, 10734.0, 10741.0, 10750.0, 10747.0, 10762.0, 10773.0, 10761.0, 10778.0, 10775.0, 10726.0, 10697.0, 10686.0, 10715.0, 10746.0, 10761.0, 10736.0, 10760.0, 10758.0],
      "WindowWidth": [23336.0, 23152.0, 23077.0, 23118.0, 23084.0, 23055.0, 23007.0, 22966.0, 22963.0, 22974.0, 23025.0, 23014.0, 23039.0, 23030.0, 23026.0, 22980.0, 22965.0, 22968.0, 22994.0, 22994.0, 23003.0, 22981.0, 22965.0, 22952.0, 22943.0, 22925.0, 22947.0, 22950.0, 22971.0, 22960.0, 22959.0, 22940.0, 22942.0, 22958.0, 22968.0, 22967.0, 22948.0, 22919.0, 22925.0, 22932.0, 22948.0, 22945.0, 22933.0, 22931.0, 22970.0, 22960.0, 22933.0, 22927.0, 22957.0, 22940.0, 22892.0, 22903.0, 22930.0, 22958.0, 22962.0, 22979.0, 22974.0, 22955.0, 22958.0, 22927.0, 22939.0, 22976.0, 22966.0, 22981.0, 22999.0, 22992.0, 22970.0, 22959.0, 22973.0, 22973.0, 22970.0, 22958.0, 22958.0, 22983.0, 22961.0, 22943.0, 22953.0, 22939.0, 22964.0, 22950.0, 22954.0, 22955.0, 22978.0, 22971.0, 22969.0, 22969.0, 22980.0, 22985.0, 22965.0, 22946.0, 22934.0, 22931.0, 22967.0, 23035.0, 22953.0, 23047.0, 23073.0, 22942.0, 22832.0, 22861.0, 22928.0, 22873.0, 22838.0, 22840.0, 22883.0, 22920.0, 22947.0, 22969.0, 22953.0, 22969.0, 22957.0, 22955.0, 22986.0, 23000.0, 23003.0, 23038.0, 23020.0, 23017.0, 23022.0, 22995.0, 23004.0, 22985.0, 22998.0, 23013.0, 23006.0, 22996.0, 22978.0, 22984.0, 22980.0, 22989.0, 22975.0, 22960.0, 22967.0, 22980.0, 22998.0, 22985.0, 22942.0, 22906.0, 22894.0, 22885.0, 22899.0, 22934.0, 22946.0, 22947.0, 22941.0, 22902.0, 22898.0, 22890.0, 22931.0, 22929.0, 22914.0, 22922.0, 22917.0, 22924.0, 22909.0, 22900.0, 22911.0, 22927.0, 22944.0, 22955.0, 22937.0, 22957.0, 22966.0, 22994.0, 22989.0, 22988.0, 22986.0, 22975.0, 22974.0, 22989.0, 22981.0, 23001.0, 22973.0, 22955.0, 22925.0, 22902.0, 22916.0, 22952.0, 23012.0, 23007.0, 23004.0, 22967.0, 22949.0, 22944.0, 22920.0, 22934.0, 22953.0, 22948.0, 22979.0, 23010.0, 22978.0, 23035.0, 23014.0, 22912.0, 22845.0, 22805.0, 22873.0, 22945.0, 23000.0, 22938.0, 22986.0, 22989.0]
    },
    "slices": {}
  }
}