{
  "AcquisitionMatrixPE": 104,
  "AcquisitionNumber": 1,
  "AcquisitionTime": "16:55:46.322500",
  "BandwidthPerPixelPhaseEncode": 17.17,
  "BaseResolution": 104,
  "BodyPartExamined": "BRAIN",
  "CoilString": "HC1-7;NC1_2",
  "ConsistencyInfo": "N4_VE11C_LATEST_20160120",
  "ConversionSoftware": "dcm2niix",
  "ConversionSoftwareVersion": "v1.0.20190720  (JP2:OpenJPEG) GCC7.3.0",
  "DerivedVendorReportedEchoSpacing": 0.000560011,
  "DeviceSerialNumber": "167006",
  "DwellTime": 2.1e-06,
  "EchoTime": 0.037,
  "EchoTrainLength": 104,
  "EffectiveEchoSpacing": 0.000560011,
  "FlipAngle": 52,
  "ImageComments": "Unaliased_MB4_PE3_LB",
  "ImageOrientationPatientDICOM": [0.999435, -0.0311871, 0.0124952, 0.0333293, 0.873488, -0.485703],
  "ImageType": [
    "ORIGINAL",
    "PRIMARY",
    "M",
    "MB",
    "ND",
    "MOSAIC"
],
  "ImagingFrequency": 123.259,
  "InPlanePhaseEncodingDirectionDICOM": "COL",
  "InstitutionAddress": "Chemin_Queen-Mary_4565_Montreal_District_CA_H3W_1W5",
  "InstitutionName": "IUGM",
  "InstitutionalDepartmentName": "Department",
  "MRAcquisitionType": "2D",
  "MagneticFieldStrength": 3,
  "Manufacturer": "Siemens",
  "ManufacturersModelName": "Prisma_fit",
  "Modality": "MR",
  "MultibandAccelerationFactor": 4,
  "PartialFourier": 1,
  "PatientPosition": "HFS",
  "PercentPhaseFOV": 100,
  "PhaseEncodingDirection": "j",
  "PhaseEncodingSteps": 104,
  "PhaseResolution": 1,
  "PixelBandwidth": 2290,
  "ProcedureStepDescription": "hcptrt_generic",
  "ProtocolName": "func_task-language_run-2",
  "PulseSequenceDetails": "%CustomerSeq%_cmrr_mbep2d_bold",
  "ReceiveCoilActiveElements": "HC1-7;NC1,2",
  "ReceiveCoilName": "HeadNeck_64",
  "ReconMatrixPE": 104,
  "RepetitionTime": 1.49,
  "SAR": 0.0375114,
  "ScanOptions": "FS",
  "ScanningSequence": "EP",
  "SequenceName": "epfid2d1_104",
  "SequenceVariant": "SK_SS",
  "SeriesDescription": "func_task-language_run-2",
  "SeriesNumber": 37,
  "ShimSetting": [626, -7200, -8866, 427, 10, -163, 24, -21],
  "SliceThickness": 2,
  "SliceTiming": [0, 0.785, 0.0975, 0.8825, 0.195, 0.98, 0.295, 1.0775, 0.3925, 1.175, 0.49, 1.275, 0.5875, 1.3725, 0.685, 0, 0.785, 0.0975, 0.8825, 0.195, 0.98, 0.295, 1.0775, 0.3925, 1.175, 0.49, 1.275, 0.5875, 1.3725, 0.685, 0, 0.785, 0.0975, 0.8825, 0.195, 0.98, 0.295, 1.0775, 0.3925, 1.175, 0.49, 1.275, 0.5875, 1.3725, 0.685, 0, 0.785, 0.0975, 0.8825, 0.195, 0.98, 0.295, 1.0775, 0.3925, 1.175, 0.49, 1.275, 0.5875, 1.3725, 0.685],
  "SoftwareVersions": "syngo_MR_E11",
  "SpacingBetweenSlices": 2,
  "StationName": "MRC35049",
  "TaskName": "language",
  "TotalReadoutTime": 0.0576811,
  "TxRefAmp": 250.382,
  "WipMemBlock": "a9c23346-f8af-455a-b74e-2aa0a15d77b1||Sequence: R016 ve11c/master r/e634e98; Dec 19 2017 11:00:25 by eja",
  "dcmmeta_affine": [
    [-1.9988709688186646, 0.06665866076946259, -0.008466411381959915, 100.09874725341797],
    [0.06237412989139557, 1.7469762563705444, -0.9716909527778625, -64.89346313476562],
    [0.024990499019622803, 0.9714064002037048, 1.748068928718567, -95.94461822509766],
    [0.0, 0.0, 0.0, 1.0]
],
  "dcmmeta_reorient_transform": [
    [0.0, -1.0, 0.0, 103.0],
    [1.0, 0.0, 0.0, 0.0],
    [0.0, 0.0, 1.0, 0.0],
    [0.0, 0.0, 0.0, 1.0]
],
  "dcmmeta_shape": [104, 104, 60, 159],
  "dcmmeta_slice_dim": 2,
  "dcmmeta_version": 0.6,
  "global": {
    "const": {
      "AcquisitionMatrix": [104, 0, 0, 104],
      "AngioFlag": "N",
      "BitsAllocated": 16,
      "BitsStored": 16,
      "BodyPartExamined": "BRAIN",
      "Columns": 832,
      "EchoNumbers": 1,
      "EchoTime": 37.0,
      "EchoTrainLength": 104,
      "FlipAngle": 52.0,
      "HighBit": 15,
      "ImageOrientationPatient": [0.99943545849926, -0.0311870652526, 0.0124952493094, 0.03332933039788, 0.87348814832386, -0.4857032123355],
      "ImagePositionPatient": [-858.81735822643, -728.24028663772, 348.6056393124],
      "ImageType": [
        "ORIGINAL",
        "PRIMARY",
        "M",
        "MB",
        "ND",
        "MOSAIC"
],
      "ImagedNucleus": "1H",
      "ImagingFrequency": 123.259267,
      "InPlanePhaseEncodingDirection": "COL",
      "MRAcquisitionType": "2D",
      "MagneticFieldStrength": 3.0,
      "Manufacturer": "SIEMENS",
      "ManufacturerModelName": "Prisma_fit",
      "Modality": "MR",
      "NumberOfAverages": 1.0,
      "NumberOfPhaseEncodingSteps": 104,
      "PercentPhaseFieldOfView": 100.0,
      "PercentSampling": 100.0,
      "PerformedProcedureStepStartTime": "155138.487000",
      "PhotometricInterpretation": "MONOCHROME2",
      "PixelBandwidth": 2290.0,
      "PixelRepresentation": 0,
      "PixelSpacing": [2.0, 2.0],
      "ProtocolName": "func_task-language_run-2",
      "RepetitionTime": 1490.0,
      "Rows": 832,
      "SAR": 0.03751142955387,
      "SamplesPerPixel": 1,
      "ScanOptions": "FS",
      "ScanningSequence": "EP",
      "SequenceName": "epfid2d1_104",
      "SequenceVariant": [
        "SK",
        "SS"
],
      "SeriesDescription": "func_task-language_run-2",
      "SeriesNumber": 37,
      "SeriesTime": "165711.434000",
      "SliceLocation": -52.754449615608,
      "SliceThickness": 2.0,
      "SmallestImagePixelValue": 0,
      "SoftwareVersions": "syngo MR E11",
      "SpacingBetweenSlices": 1.9999999635222,
      "SpecificCharacterSet": "ISO_IR 100",
      "StudyID": "1",
      "StudyTime": "155138.434000",
      "TransmitCoilName": "Body",
      "VariableFlipAngleFlag": "N",
      "WindowCenterWidthExplanation": "Algo1",
      "dBdt": 0.0},
    "slices": {}
  },
  "time": {
    "samples": {
      "AcquisitionNumber": [1, 2, 3, 4, 5, 6, 7, 8, 9, 10, 11, 12, 13, 14, 15, 16, 17, 18, 19, 20, 21, 22, 23, 24, 25, 26, 27, 28, 29, 30, 31, 32, 33, 34, 35, 36, 37, 38, 39, 40, 41, 42, 43, 44, 45, 46, 47, 48, 49, 50, 51, 52, 53, 54, 55, 56, 57, 58, 59, 60, 61, 62, 63, 64, 65, 66, 67, 68, 69, 70, 71, 72, 73, 74, 75, 76, 77, 78, 79, 80, 81, 82, 83, 84, 85, 86, 87, 88, 89, 90, 91, 92, 93, 94, 95, 96, 97, 98, 99, 100, 101, 102, 103, 104, 105, 106, 107, 108, 109, 110, 111, 112, 113, 114, 115, 116, 117, 118, 119, 120, 121, 122, 123, 124, 125, 126, 127, 128, 129, 130, 131, 132, 133, 134, 135, 136, 137, 138, 139, 140, 141, 142, 143, 144, 145, 146, 147, 148, 149, 150, 151, 152, 153, 154, 155, 156, 157, 158, 159],
      "AcquisitionTime": ["165546.322500", "165547.812500", "165549.302500", "165550.792500", "165552.282500", "165553.772500", "165555.262500", "165556.752500", "165558.242500", "165559.732500", "165601.222500", "165602.712500", "165604.202500", "165605.692500", "165607.182500", "165608.672500", "165610.162500", "165611.652500", "165613.142500", "165614.632500", "165616.122500", "165617.612500", "165619.102500", "165620.592500", "165622.082500", "165623.572500", "165625.062500", "165626.552500", "165628.042500", "165629.532500", "165631.022500", "165632.512500", "165634.002500", "165635.492500", "165636.982500", "165638.472500", "165639.962500", "165641.452500", "165642.942500", "165644.432500", "165645.922500", "165647.412500", "165648.902500", "165650.392500", "165651.882500", "165653.372500", "165654.862500", "165656.352500", "165657.842500", "165659.332500", "165700.822500", "165702.312500", "165703.802500", "165705.292500", "165706.782500", "165708.272500", "165709.762500", "165711.252500", "165712.742500", "165714.232500", "165715.722500", "165717.212500", "165718.702500", "165720.192500", "165721.682500", "165723.172500", "165724.662500", "165726.152500", "165727.642500", "165729.132500", "165730.622500", "165732.112500", "165733.602500", "165735.092500", "165736.582500", "165738.072500", "165739.562500", "165741.052500", "165742.542500", "165744.032500", "165745.522500", "165747.012500", "165748.502500", "165749.992500", "165751.482500", "165752.972500", "165754.462500", "165755.952500", "165757.442500", "165758.932500", "165800.422500", "165801.912500", "165803.402500", "165804.892500", "165806.382500", "165807.872500", "165809.362500", "165810.852500", "165812.342500", "165813.832500", "165815.322500", "165816.812500", "165818.302500", "165819.792500", "165821.282500", "165822.772500", "165824.262500", "165825.752500", "165827.242500", "165828.732500", "165830.222500", "165831.712500", "165833.202500", "165834.692500", "165836.182500", "165837.672500", "165839.162500", "165840.652500", "165842.142500", "165843.632500", "165845.122500", "165846.612500", "165848.102500", "165849.592500", "165851.082500", "165852.572500", "165854.062500", "165855.552500", "165857.042500", "165858.532500", "165900.022500", "165901.512500", "165903.002500", "165904.492500", "165905.982500", "165907.472500", "165908.962500", "165910.452500", "165911.942500", "165913.432500", "165914.922500", "165916.412500", "165917.902500", "165919.392500", "165920.882500", "165922.372500", "165923.862500", "165925.352500", "165926.842500", "165928.332500", "165929.822500", "165931.312500", "165932.802500", "165934.292500", "165935.782500", "165937.272500", "165938.762500", "165940.252500", "165941.742500"],
      "ContentTime": ["165711.436000", "165711.440000", "165711.443000", "165711.446000", "165711.448000", "165711.451000", "165711.454000", "165711.457000", "165711.460000", "165711.462000", "165711.465000", "165711.468000", "165711.471000", "165711.474000", "165711.477000", "165711.479000", "165711.482000", "165711.485000", "165711.488000", "165711.491000", "165711.494000", "165711.496000", "165711.499000", "165711.502000", "165711.505000", "165711.508000", "165711.511000", "165711.513000", "165711.516000", "165711.519000", "165711.522000", "165731.402000", "165731.405000", "165731.408000", "165731.411000", "165731.414000", "165731.416000", "165731.419000", "165731.422000", "165731.425000", "165731.428000", "165731.431000", "165731.433000", "165731.436000", "165731.439000", "165731.442000", "165731.445000", "165731.448000", "165731.451000", "165731.453000", "165731.456000", "165751.402000", "165751.405000", "165751.408000", "165751.410000", "165751.413000", "165751.416000", "165751.419000", "165751.422000", "165751.425000", "165751.427000", "165751.430000", "165751.433000", "165751.436000", "165751.439000", "165751.442000", "165751.444000", "165751.447000", "165751.450000", "165751.453000", "165751.456000", "165751.459000", "165811.402000", "165811.405000", "165811.408000", "165811.411000", "165811.413000", "165811.416000", "165811.419000", "165811.422000", "165811.425000", "165811.428000", "165811.430000", "165811.433000", "165811.436000", "165811.439000", "165811.442000", "165811.445000", "165811.448000", "165811.450000", "165811.453000", "165811.456000", "165851.417000", "165851.421000", "165851.423000", "165851.426000", "165851.429000", "165851.432000", "165851.435000", "165851.438000", "165851.440000", "165851.443000", "165851.446000", "165851.449000", "165851.452000", "165851.455000", "165851.458000", "165851.460000", "165851.463000", "165851.466000", "165851.469000", "165851.483000", "165851.486000", "165851.489000", "165851.492000", "165851.494000", "165851.497000", "165851.505000", "165851.508000", "165851.511000", "165851.514000", "165851.516000", "165851.519000", "165931.402000", "165931.405000", "165931.408000", "165931.411000", "165931.414000", "165931.416000", "165931.419000", "165931.422000", "165931.425000", "165931.428000", "165931.431000", "165931.434000", "165931.437000", "165931.439000", "165931.442000", "165931.445000", "165931.448000", "165931.451000", "165931.454000", "165931.456000", "165931.459000", "165931.462000", "165931.465000", "165931.468000", "165931.471000", "165931.474000", "165931.477000", "165944.113000", "165944.116000", "165944.119000", "165944.122000", "165944.125000", "165944.128000", "165944.131000", "165944.133000", "165944.136000"],
      "InstanceCreationTime": ["165711.436000", "165711.440000", "165711.443000", "165711.446000", "165711.448000", "165711.451000", "165711.454000", "165711.457000", "165711.460000", "165711.462000", "165711.465000", "165711.468000", "165711.471000", "165711.474000", "165711.477000", "165711.479000", "165711.482000", "165711.485000", "165711.488000", "165711.491000", "165711.494000", "165711.496000", "165711.499000", "165711.502000", "165711.505000", "165711.508000", "165711.511000", "165711.513000", "165711.516000", "165711.519000", "165711.522000", "165731.402000", "165731.405000", "165731.408000", "165731.411000", "165731.414000", "165731.416000", "165731.419000", "165731.422000", "165731.425000", "165731.428000", "165731.431000", "165731.433000", "165731.436000", "165731.439000", "165731.442000", "165731.445000", "165731.448000", "165731.451000", "165731.453000", "165731.456000", "165751.402000", "165751.405000", "165751.408000", "165751.410000", "165751.413000", "165751.416000", "165751.419000", "165751.422000", "165751.425000", "165751.427000", "165751.430000", "165751.433000", "165751.436000", "165751.439000", "165751.442000", "165751.444000", "165751.447000", "165751.450000", "165751.453000", "165751.456000", "165751.459000", "165811.402000", "165811.405000", "165811.408000", "165811.411000", "165811.413000", "165811.416000", "165811.419000", "165811.422000", "165811.425000", "165811.428000", "165811.430000", "165811.433000", "165811.436000", "165811.439000", "165811.442000", "165811.445000", "165811.448000", "165811.450000", "165811.453000", "165811.456000", "165851.417000", "165851.421000", "165851.423000", "165851.426000", "165851.429000", "165851.432000", "165851.435000", "165851.438000", "165851.440000", "165851.443000", "165851.446000", "165851.449000", "165851.452000", "165851.455000", "165851.458000", "165851.460000", "165851.463000", "165851.466000", "165851.469000", "165851.483000", "165851.486000", "165851.489000", "165851.492000", "165851.494000", "165851.497000", "165851.505000", "165851.508000", "165851.511000", "165851.514000", "165851.516000", "165851.519000", "165931.402000", "165931.405000", "165931.408000", "165931.411000", "165931.414000", "165931.416000", "165931.419000", "165931.422000", "165931.425000", "165931.428000", "165931.431000", "165931.434000", "165931.437000", "165931.439000", "165931.442000", "165931.445000", "165931.448000", "165931.451000", "165931.454000", "165931.456000", "165931.459000", "165931.462000", "165931.465000", "165931.468000", "165931.471000", "165931.474000", "165931.477000", "165944.113000", "165944.116000", "165944.119000", "165944.122000", "165944.125000", "165944.128000", "165944.131000", "165944.133000", "165944.136000"],
      "InstanceNumber": [1, 2, 3, 4, 5, 6, 7, 8, 9, 10, 11, 12, 13, 14, 15, 16, 17, 18, 19, 20, 21, 22, 23, 24, 25, 26, 27, 28, 29, 30, 31, 32, 33, 34, 35, 36, 37, 38, 39, 40, 41, 42, 43, 44, 45, 46, 47, 48, 49, 50, 51, 52, 53, 54, 55, 56, 57, 58, 59, 60, 61, 62, 63, 64, 65, 66, 67, 68, 69, 70, 71, 72, 73, 74, 75, 76, 77, 78, 79, 80, 81, 82, 83, 84, 85, 86, 87, 88, 89, 90, 91, 92, 93, 94, 95, 96, 97, 98, 99, 100, 101, 102, 103, 104, 105, 106, 107, 108, 109, 110, 111, 112, 113, 114, 115, 116, 117, 118, 119, 120, 121, 122, 123, 124, 125, 126, 127, 128, 129, 130, 131, 132, 133, 134, 135, 136, 137, 138, 139, 140, 141, 142, 143, 144, 145, 146, 147, 148, 149, 150, 151, 152, 153, 154, 155, 156, 157, 158, 159],
      "LargestImagePixelValue": [48135, 46691, 45245, 45509, 44974, 44704, 44843, 45206, 44574, 44639, 44855, 44342, 44763, 45019, 45301, 45283, 45257, 45504, 45177, 45544, 44862, 44377, 44540, 44733, 44529, 44784, 44421, 44546, 44240, 44401, 44493, 44571, 44685, 44194, 44814, 44352, 44308, 44283, 44545, 44943, 44303, 45024, 44366, 44852, 45021, 44815, 44363, 44778, 44738, 45182, 45413, 44669, 44136, 45594, 46268, 44731, 44206, 43948, 44534, 44883, 44165, 44246, 44419, 44274, 44260, 44039, 44481, 44528, 44346, 44162, 44333, 44542, 44299, 44254, 44005, 43863, 44028, 43937, 44189, 43958, 43734, 44192, 44210, 44233, 44808, 43856, 44645, 44246, 44463, 44175, 44563, 44102, 44797, 44314, 44348, 44233, 43947, 44836, 44184, 43884, 44207, 44359, 43933, 43793, 43825, 43630, 44538, 44646, 44406, 44470, 44606, 43981, 44381, 43776, 43766, 44211, 44748, 44079, 44430, 43970, 44641, 44047, 44691, 44405, 44227, 44280, 43727, 43979, 44277, 44719, 43922, 44769, 44061, 43978, 43817, 44536, 43852, 44007, 43837, 44669, 45432, 45564, 45254, 44822, 44911, 43987, 44509, 44116, 44482, 44273, 44201, 44515, 46599, 44939, 44240, 44734, 44631, 44207, 44071],
      "WindowCenter": [11219.0, 11116.0, 11059.0, 11038.0, 11027.0, 11028.0, 11034.0, 11050.0, 11055.0, 11077.0, 11090.0, 11091.0, 11071.0, 11065.0, 11075.0, 11106.0, 11119.0, 11116.0, 11099.0, 11092.0, 11083.0, 11088.0, 11097.0, 11099.0, 11098.0, 11086.0, 11081.0, 11096.0, 11094.0, 11099.0, 11091.0, 11091.0, 11106.0, 11093.0, 11098.0, 11092.0, 11090.0, 11101.0, 11109.0, 11115.0, 11073.0, 11060.0, 11076.0, 11111.0, 11119.0, 11100.0, 11075.0, 11058.0, 11047.0, 11046.0, 11028.0, 11018.0, 11046.0, 11096.0, 11094.0, 11040.0, 10997.0, 10977.0, 11030.0, 11081.0, 11083.0, 11066.0, 11040.0, 11025.0, 11022.0, 11006.0, 11016.0, 11054.0, 11074.0, 11080.0, 11070.0, 11069.0, 11065.0, 11058.0, 11062.0, 11059.0, 11064.0, 11064.0, 11071.0, 11074.0, 11083.0, 11084.0, 11093.0, 11091.0, 11093.0, 11068.0, 11059.0, 11065.0, 11077.0, 11088.0, 11079.0, 11074.0, 11074.0, 11065.0, 11063.0, 11059.0, 11045.0, 11054.0, 11049.0, 11056.0, 11057.0, 11069.0, 11060.0, 11059.0, 11055.0, 11044.0, 11054.0, 11073.0, 11088.0, 11102.0, 11094.0, 11067.0, 11064.0, 11040.0, 11050.0, 11078.0, 11121.0, 11111.0, 11101.0, 11051.0, 11049.0, 11055.0, 11077.0, 11089.0, 11081.0, 11057.0, 11047.0, 11033.0, 11035.0, 11057.0, 11063.0, 11076.0, 11071.0, 11070.0, 11060.0, 11070.0, 11090.0, 11093.0, 11099.0, 11101.0, 11103.0, 11102.0, 11067.0, 11031.0, 11013.0, 11011.0, 11051.0, 11078.0, 11099.0, 11082.0, 11065.0, 11064.0, 11087.0, 11068.0, 11083.0, 11110.0, 11116.0, 11102.0, 11095.0],
      "WindowWidth": [24171.0, 23878.0, 23731.0, 23662.0, 23634.0, 23641.0, 23648.0, 23682.0, 23698.0, 23745.0, 23775.0, 23787.0, 23737.0, 23722.0, 23740.0, 23825.0, 23850.0, 23834.0, 23795.0, 23784.0, 23758.0, 23770.0, 23791.0, 23795.0, 23798.0, 23765.0, 23755.0, 23789.0, 23790.0, 23812.0, 23790.0, 23785.0, 23827.0, 23792.0, 23806.0, 23786.0, 23777.0, 23806.0, 23823.0, 23854.0, 23740.0, 23721.0, 23753.0, 23836.0, 23851.0, 23814.0, 23752.0, 23708.0, 23682.0, 23676.0, 23644.0, 23614.0, 23681.0, 23812.0, 23794.0, 23670.0, 23570.0, 23524.0, 23653.0, 23753.0, 23763.0, 23725.0, 23654.0, 23618.0, 23615.0, 23582.0, 23598.0, 23688.0, 23737.0, 23749.0, 23725.0, 23719.0, 23726.0, 23704.0, 23712.0, 23710.0, 23715.0, 23711.0, 23730.0, 23739.0, 23779.0, 23764.0, 23794.0, 23778.0, 23784.0, 23733.0, 23708.0, 23724.0, 23747.0, 23779.0, 23758.0, 23748.0, 23738.0, 23722.0, 23716.0, 23705.0, 23674.0, 23688.0, 23680.0, 23710.0, 23707.0, 23733.0, 23711.0, 23712.0, 23699.0, 23685.0, 23699.0, 23734.0, 23772.0, 23812.0, 23798.0, 23726.0, 23725.0, 23665.0, 23699.0, 23753.0, 23853.0, 23833.0, 23804.0, 23689.0, 23682.0, 23697.0, 23741.0, 23769.0, 23746.0, 23694.0, 23666.0, 23648.0, 23645.0, 23694.0, 23709.0, 23737.0, 23724.0, 23726.0, 23702.0, 23718.0, 23781.0, 23775.0, 23812.0, 23802.0, 23811.0, 23808.0, 23720.0, 23635.0, 23592.0, 23589.0, 23677.0, 23741.0, 23799.0, 23748.0, 23710.0, 23718.0, 23777.0, 23739.0, 23774.0, 23832.0, 23847.0, 23815.0, 23800.0]
    },
    "slices": {}
  }
}