{
  "AcquisitionMatrixPE": 104,
  "AcquisitionNumber": 1,
  "AcquisitionTime": "16:29:41.120000",
  "BandwidthPerPixelPhaseEncode": 17.17,
  "BaseResolution": 104,
  "BodyPartExamined": "BRAIN",
  "CoilString": "HC1-7;NC1_2",
  "ConsistencyInfo": "N4_VE11C_LATEST_20160120",
  "ConversionSoftware": "dcm2niix",
  "ConversionSoftwareVersion": "v1.0.20190720  (JP2:OpenJPEG) GCC7.3.0",
  "DerivedVendorReportedEchoSpacing": 0.000560011,
  "DeviceSerialNumber": "167006",
  "DwellTime": 2.1e-06,
  "EchoTime": 0.037,
  "EchoTrainLength": 104,
  "EffectiveEchoSpacing": 0.000560011,
  "FlipAngle": 52,
  "ImageComments": "Unaliased_MB4_PE3_LB",
  "ImageOrientationPatientDICOM": [0.999435, -0.0311871, 0.0124952, 0.0333293, 0.873488, -0.485703],
  "ImageType": [
    "ORIGINAL",
    "PRIMARY",
    "M",
    "MB",
    "ND",
    "MOSAIC"
],
  "ImagingFrequency": 123.259,
  "InPlanePhaseEncodingDirectionDICOM": "COL",
  "InstitutionAddress": "Chemin_Queen-Mary_4565_Montreal_District_CA_H3W_1W5",
  "InstitutionName": "IUGM",
  "InstitutionalDepartmentName": "Department",
  "MRAcquisitionType": "2D",
  "MagneticFieldStrength": 3,
  "Manufacturer": "Siemens",
  "ManufacturersModelName": "Prisma_fit",
  "Modality": "MR",
  "MultibandAccelerationFactor": 4,
  "PartialFourier": 1,
  "PatientPosition": "HFS",
  "PercentPhaseFOV": 100,
  "PhaseEncodingDirection": "j",
  "PhaseEncodingSteps": 104,
  "PhaseResolution": 1,
  "PixelBandwidth": 2290,
  "ProcedureStepDescription": "hcptrt_generic",
  "ProtocolName": "func_task-relational_run-2",
  "PulseSequenceDetails": "%CustomerSeq%_cmrr_mbep2d_bold",
  "ReceiveCoilActiveElements": "HC1-7;NC1,2",
  "ReceiveCoilName": "HeadNeck_64",
  "ReconMatrixPE": 104,
  "RepetitionTime": 1.49,
  "SAR": 0.0373643,
  "ScanOptions": "FS",
  "ScanningSequence": "EP",
  "SequenceName": "epfid2d1_104",
  "SequenceVariant": "SK_SS",
  "SeriesDescription": "func_task-relational_run-2",
  "SeriesNumber": 25,
  "ShimSetting": [626, -7200, -8866, 427, 10, -163, 24, -21],
  "SliceThickness": 2,
  "SliceTiming": [0, 0.785, 0.0975, 0.8825, 0.1975, 0.98, 0.295, 1.0775, 0.3925, 1.1775, 0.49, 1.275, 0.5875, 1.3725, 0.6875, 0, 0.785, 0.0975, 0.8825, 0.1975, 0.98, 0.295, 1.0775, 0.3925, 1.1775, 0.49, 1.275, 0.5875, 1.3725, 0.6875, 0, 0.785, 0.0975, 0.8825, 0.1975, 0.98, 0.295, 1.0775, 0.3925, 1.1775, 0.49, 1.275, 0.5875, 1.3725, 0.6875, 0, 0.785, 0.0975, 0.8825, 0.1975, 0.98, 0.295, 1.0775, 0.3925, 1.1775, 0.49, 1.275, 0.5875, 1.3725, 0.6875],
  "SoftwareVersions": "syngo_MR_E11",
  "SpacingBetweenSlices": 2,
  "StationName": "MRC35049",
  "TaskName": "relational",
  "TotalReadoutTime": 0.0576811,
  "TxRefAmp": 250.382,
  "WipMemBlock": "7fdbb846-039b-4f5b-9cd7-5397f5b9e53b||Sequence: R016 ve11c/master r/e634e98; Dec 19 2017 11:00:25 by eja",
  "dcmmeta_affine": [
    [-1.9988709688186646, 0.06665866076946259, -0.008466411381959915, 100.09874725341797],
    [0.06237412989139557, 1.7469762563705444, -0.9716909527778625, -64.89346313476562],
    [0.024990499019622803, 0.9714064002037048, 1.748068928718567, -95.94461822509766],
    [0.0, 0.0, 0.0, 1.0]
],
  "dcmmeta_reorient_transform": [
    [0.0, -1.0, 0.0, 103.0],
    [1.0, 0.0, 0.0, 0.0],
    [0.0, 0.0, 1.0, 0.0],
    [0.0, 0.0, 0.0, 1.0]
],
  "dcmmeta_shape": [104, 104, 60, 119],
  "dcmmeta_slice_dim": 2,
  "dcmmeta_version": 0.6,
  "global": {
    "const": {
      "AcquisitionMatrix": [104, 0, 0, 104],
      "AngioFlag": "N",
      "BitsAllocated": 16,
      "BitsStored": 16,
      "BodyPartExamined": "BRAIN",
      "Columns": 832,
      "EchoNumbers": 1,
      "EchoTime": 37.0,
      "EchoTrainLength": 104,
      "FlipAngle": 52.0,
      "HighBit": 15,
      "ImageOrientationPatient": [0.99943545849926, -0.0311870652526, 0.0124952493094, 0.03332933039788, 0.87348814832386, -0.4857032123355],
      "ImagePositionPatient": [-858.81735822643, -728.24028663772, 348.6056393124],
      "ImageType": [
        "ORIGINAL",
        "PRIMARY",
        "M",
        "MB",
        "ND",
        "MOSAIC"
],
      "ImagedNucleus": "1H",
      "ImagingFrequency": 123.25926,
      "InPlanePhaseEncodingDirection": "COL",
      "MRAcquisitionType": "2D",
      "MagneticFieldStrength": 3.0,
      "Manufacturer": "SIEMENS",
      "ManufacturerModelName": "Prisma_fit",
      "Modality": "MR",
      "NumberOfAverages": 1.0,
      "NumberOfPhaseEncodingSteps": 104,
      "PercentPhaseFieldOfView": 100.0,
      "PercentSampling": 100.0,
      "PerformedProcedureStepStartTime": "155138.487000",
      "PhotometricInterpretation": "MONOCHROME2",
      "PixelBandwidth": 2290.0,
      "PixelRepresentation": 0,
      "PixelSpacing": [2.0, 2.0],
      "ProtocolName": "func_task-relational_run-2",
      "RepetitionTime": 1490.0,
      "Rows": 832,
      "SAR": 0.03736428589702,
      "SamplesPerPixel": 1,
      "ScanOptions": "FS",
      "ScanningSequence": "EP",
      "SequenceName": "epfid2d1_104",
      "SequenceVariant": [
        "SK",
        "SS"
],
      "SeriesDescription": "func_task-relational_run-2",
      "SeriesNumber": 25,
      "SeriesTime": "163106.558000",
      "SliceLocation": -52.754449615608,
      "SliceThickness": 2.0,
      "SmallestImagePixelValue": 0,
      "SoftwareVersions": "syngo MR E11",
      "SpacingBetweenSlices": 1.9999999635222,
      "SpecificCharacterSet": "ISO_IR 100",
      "StudyID": "1",
      "StudyTime": "155138.434000",
      "TransmitCoilName": "Body",
      "VariableFlipAngleFlag": "N",
      "WindowCenterWidthExplanation": "Algo1",
      "dBdt": 0.0},
    "slices": {}
  },
  "time": {
    "samples": {
      "AcquisitionNumber": [1, 2, 3, 4, 5, 6, 7, 8, 9, 10, 11, 12, 13, 14, 15, 16, 17, 18, 19, 20, 21, 22, 23, 24, 25, 26, 27, 28, 29, 30, 31, 32, 33, 34, 35, 36, 37, 38, 39, 40, 41, 42, 43, 44, 45, 46, 47, 48, 49, 50, 51, 52, 53, 54, 55, 56, 57, 58, 59, 60, 61, 62, 63, 64, 65, 66, 67, 68, 69, 70, 71, 72, 73, 74, 75, 76, 77, 78, 79, 80, 81, 82, 83, 84, 85, 86, 87, 88, 89, 90, 91, 92, 93, 94, 95, 96, 97, 98, 99, 100, 101, 102, 103, 104, 105, 106, 107, 108, 109, 110, 111, 112, 113, 114, 115, 116, 117, 118, 119],
      "AcquisitionTime": ["162941.120000", "162942.610000", "162944.100000", "162945.590000", "162947.080000", "162948.570000", "162950.060000", "162951.550000", "162953.040000", "162954.530000", "162956.020000", "162957.510000", "162959.000000", "163000.490000", "163001.980000", "163003.470000", "163004.960000", "163006.450000", "163007.940000", "163009.430000", "163010.920000", "163012.410000", "163013.900000", "163015.390000", "163016.880000", "163018.370000", "163019.860000", "163021.350000", "163022.840000", "163024.330000", "163025.820000", "163027.310000", "163028.800000", "163030.290000", "163031.780000", "163033.270000", "163034.760000", "163036.250000", "163037.740000", "163039.230000", "163040.720000", "163042.210000", "163043.700000", "163045.190000", "163046.680000", "163048.170000", "163049.660000", "163051.150000", "163052.640000", "163054.130000", "163055.620000", "163057.110000", "163058.600000", "163100.090000", "163101.580000", "163103.070000", "163104.560000", "163106.050000", "163107.540000", "163109.030000", "163110.520000", "163112.010000", "163113.500000", "163114.990000", "163116.480000", "163117.970000", "163119.460000", "163120.950000", "163122.440000", "163123.930000", "163125.420000", "163126.910000", "163128.400000", "163129.890000", "163131.380000", "163132.870000", "163134.360000", "163135.850000", "163137.340000", "163138.830000", "163140.320000", "163141.810000", "163143.300000", "163144.790000", "163146.280000", "163147.770000", "163149.260000", "163150.750000", "163152.240000", "163153.730000", "163155.220000", "163156.710000", "163158.200000", "163159.690000", "163201.180000", "163202.670000", "163204.160000", "163205.650000", "163207.140000", "163208.630000", "163210.120000", "163211.610000", "163213.100000", "163214.590000", "163216.080000", "163217.570000", "163219.060000", "163220.550000", "163222.040000", "163223.530000", "163225.020000", "163226.510000", "163228.000000", "163229.490000", "163230.980000", "163232.470000", "163233.960000", "163235.450000", "163236.940000"],
      "ContentTime": ["163106.561000", "163106.565000", "163106.567000", "163106.570000", "163106.573000", "163106.576000", "163106.579000", "163106.593000", "163106.596000", "163106.599000", "163106.601000", "163106.604000", "163106.607000", "163106.610000", "163106.613000", "163106.616000", "163106.618000", "163106.621000", "163106.624000", "163106.627000", "163106.630000", "163106.633000", "163106.636000", "163106.638000", "163106.641000", "163106.644000", "163106.647000", "163106.650000", "163106.653000", "163126.527000", "163126.530000", "163126.533000", "163126.536000", "163126.539000", "163126.542000", "163126.545000", "163126.548000", "163126.554000", "163126.557000", "163126.560000", "163126.563000", "163126.566000", "163126.570000", "163126.573000", "163126.576000", "163126.580000", "163126.583000", "163126.586000", "163126.589000", "163146.527000", "163146.530000", "163146.532000", "163146.535000", "163146.542000", "163146.545000", "163146.548000", "163146.551000", "163146.554000", "163146.556000", "163146.560000", "163146.563000", "163146.566000", "163146.569000", "163146.572000", "163146.574000", "163146.577000", "163146.580000", "163146.583000", "163146.586000", "163146.589000", "163206.527000", "163206.530000", "163206.535000", "163206.538000", "163206.541000", "163206.543000", "163206.546000", "163206.549000", "163206.552000", "163206.555000", "163206.558000", "163206.561000", "163206.563000", "163206.566000", "163206.569000", "163206.572000", "163206.575000", "163206.578000", "163206.580000", "163206.583000", "163226.527000", "163226.530000", "163226.532000", "163226.536000", "163226.538000", "163226.541000", "163226.544000", "163226.547000", "163226.550000", "163226.553000", "163226.555000", "163226.558000", "163226.565000", "163226.567000", "163226.570000", "163226.573000", "163226.576000", "163226.579000", "163226.582000", "163226.585000", "163238.887000", "163238.891000", "163238.893000", "163238.896000", "163238.899000", "163238.902000", "163238.905000", "163238.908000", "163238.910000"],
      "InstanceCreationTime": ["163106.561000", "163106.565000", "163106.567000", "163106.570000", "163106.573000", "163106.576000", "163106.579000", "163106.593000", "163106.596000", "163106.599000", "163106.601000", "163106.604000", "163106.607000", "163106.610000", "163106.613000", "163106.616000", "163106.618000", "163106.621000", "163106.624000", "163106.627000", "163106.630000", "163106.633000", "163106.636000", "163106.638000", "163106.641000", "163106.644000", "163106.647000", "163106.650000", "163106.653000", "163126.527000", "163126.530000", "163126.533000", "163126.536000", "163126.539000", "163126.542000", "163126.545000", "163126.548000", "163126.554000", "163126.557000", "163126.560000", "163126.563000", "163126.566000", "163126.570000", "163126.573000", "163126.576000", "163126.580000", "163126.583000", "163126.586000", "163126.589000", "163146.527000", "163146.530000", "163146.532000", "163146.535000", "163146.542000", "163146.545000", "163146.548000", "163146.551000", "163146.554000", "163146.556000", "163146.560000", "163146.563000", "163146.566000", "163146.569000", "163146.572000", "163146.574000", "163146.577000", "163146.580000", "163146.583000", "163146.586000", "163146.589000", "163206.527000", "163206.530000", "163206.535000", "163206.538000", "163206.541000", "163206.543000", "163206.546000", "163206.549000", "163206.552000", "163206.555000", "163206.558000", "163206.561000", "163206.563000", "163206.566000", "163206.569000", "163206.572000", "163206.575000", "163206.578000", "163206.580000", "163206.583000", "163226.527000", "163226.530000", "163226.532000", "163226.536000", "163226.538000", "163226.541000", "163226.544000", "163226.547000", "163226.550000", "163226.553000", "163226.555000", "163226.558000", "163226.565000", "163226.567000", "163226.570000", "163226.573000", "163226.576000", "163226.579000", "163226.582000", "163226.585000", "163238.887000", "163238.891000", "163238.893000", "163238.896000", "163238.899000", "163238.902000", "163238.905000", "163238.908000", "163238.910000"],
      "InstanceNumber": [1, 2, 3, 4, 5, 6, 7, 8, 9, 10, 11, 12, 13, 14, 15, 16, 17, 18, 19, 20, 21, 22, 23, 24, 25, 26, 27, 28, 29, 30, 31, 32, 33, 34, 35, 36, 37, 38, 39, 40, 41, 42, 43, 44, 45, 46, 47, 48, 49, 50, 51, 52, 53, 54, 55, 56, 57, 58, 59, 60, 61, 62, 63, 64, 65, 66, 67, 68, 69, 70, 71, 72, 73, 74, 75, 76, 77, 78, 79, 80, 81, 82, 83, 84, 85, 86, 87, 88, 89, 90, 91, 92, 93, 94, 95, 96, 97, 98, 99, 100, 101, 102, 103, 104, 105, 106, 107, 108, 109, 110, 111, 112, 113, 114, 115, 116, 117, 118, 119],
      "LargestImagePixelValue": [49266, 48282, 47387, 46473, 46145, 45987, 46151, 45860, 45840, 44918, 45512, 44658, 45408, 44874, 44950, 44512, 45535, 44726, 45056, 45005, 45746, 44372, 45540, 44906, 45536, 45312, 45402, 45819, 45289, 44783, 45695, 45716, 45749, 45600, 45706, 45600, 45812, 45814, 46236, 46063, 45234, 45710, 45791, 45638, 45903, 45378, 45462, 45786, 45776, 45873, 45399, 45124, 45036, 45721, 44772, 45340, 44994, 45473, 45030, 46200, 45639, 45022, 45341, 44746, 45498, 44736, 45480, 44678, 45289, 45261, 45231, 45403, 45620, 44862, 45352, 45157, 45189, 45702, 45113, 45115, 44953, 45241, 45117, 45219, 44924, 44540, 45091, 44903, 44511, 44547, 44878, 44908, 45200, 45086, 44641, 44787, 45176, 45062, 44957, 44387, 45341, 44653, 45139, 44995, 45314, 45163, 45686, 46005, 45757, 44773, 45617, 45018, 44568, 44810, 47218, 46761, 46331, 45769, 45713],
      "WindowCenter": [11223.0, 11173.0, 11153.0, 11138.0, 11135.0, 11122.0, 11113.0, 11104.0, 11106.0, 11101.0, 11117.0, 11122.0, 11120.0, 11122.0, 11112.0, 11112.0, 11128.0, 11132.0, 11131.0, 11126.0, 11125.0, 11113.0, 11118.0, 11119.0, 11126.0, 11118.0, 11116.0, 11108.0, 11081.0, 11090.0, 11113.0, 11124.0, 11102.0, 11089.0, 11079.0, 11086.0, 11095.0, 11104.0, 11119.0, 11122.0, 11097.0, 11096.0, 11085.0, 11082.0, 11072.0, 11083.0, 11084.0, 11093.0, 11108.0, 11114.0, 11100.0, 11092.0, 11082.0, 11086.0, 11074.0, 11079.0, 11085.0, 11089.0, 11088.0, 11088.0, 11094.0, 11097.0, 11099.0, 11088.0, 11081.0, 11073.0, 11081.0, 11099.0, 11111.0, 11112.0, 11113.0, 11109.0, 11099.0, 11088.0, 11091.0, 11093.0, 11094.0, 11098.0, 11095.0, 11094.0, 11086.0, 11093.0, 11099.0, 11119.0, 11115.0, 11097.0, 11085.0, 11070.0, 11071.0, 11089.0, 11095.0, 11097.0, 11075.0, 11073.0, 11093.0, 11122.0, 11137.0, 11117.0, 11099.0, 11085.0, 11092.0, 11095.0, 11098.0, 11096.0, 11094.0, 11086.0, 11092.0, 11089.0, 11092.0, 11089.0, 11093.0, 11089.0, 11077.0, 11090.0, 11156.0, 11146.0, 11106.0, 11078.0, 11082.0],
      "WindowWidth": [24170.0, 24023.0, 23963.0, 23920.0, 23914.0, 23875.0, 23850.0, 23828.0, 23835.0, 23823.0, 23861.0, 23881.0, 23869.0, 23876.0, 23853.0, 23853.0, 23888.0, 23907.0, 23900.0, 23883.0, 23879.0, 23854.0, 23863.0, 23864.0, 23880.0, 23862.0, 23856.0, 23848.0, 23777.0, 23799.0, 23846.0, 23874.0, 23825.0, 23794.0, 23770.0, 23786.0, 23808.0, 23831.0, 23861.0, 23866.0, 23810.0, 23801.0, 23774.0, 23766.0, 23745.0, 23775.0, 23775.0, 23797.0, 23832.0, 23848.0, 23818.0, 23798.0, 23773.0, 23782.0, 23759.0, 23766.0, 23780.0, 23790.0, 23785.0, 23785.0, 23803.0, 23808.0, 23812.0, 23793.0, 23775.0, 23755.0, 23772.0, 23818.0, 23846.0, 23847.0, 23848.0, 23835.0, 23811.0, 23791.0, 23790.0, 23802.0, 23803.0, 23808.0, 23802.0, 23798.0, 23780.0, 23794.0, 23808.0, 23859.0, 23845.0, 23818.0, 23774.0, 23746.0, 23747.0, 23797.0, 23801.0, 23806.0, 23754.0, 23750.0, 23796.0, 23866.0, 23917.0, 23856.0, 23815.0, 23788.0, 23794.0, 23804.0, 23815.0, 23808.0, 23800.0, 23783.0, 23793.0, 23789.0, 23795.0, 23792.0, 23795.0, 23797.0, 23778.0, 23800.0, 23941.0, 23929.0, 23832.0, 23765.0, 23770.0]
    },
    "slices": {}
  }
}