{
  "AcquisitionMatrixPE": 104,
  "AcquisitionNumber": 1,
  "AcquisitionTime": "16:10:0.007500",
  "BandwidthPerPixelPhaseEncode": 17.17,
  "BaseResolution": 104,
  "BodyPartExamined": "BRAIN",
  "CoilString": "HC1-7;NC1_2",
  "ConsistencyInfo": "N4_VE11C_LATEST_20160120",
  "ConversionSoftware": "dcm2niix",
  "ConversionSoftwareVersion": "v1.0.20190720  (JP2:OpenJPEG) GCC7.3.0",
  "DerivedVendorReportedEchoSpacing": 0.000560011,
  "DeviceSerialNumber": "167006",
  "DwellTime": 2.1e-06,
  "EchoTime": 0.037,
  "EchoTrainLength": 104,
  "EffectiveEchoSpacing": 0.000560011,
  "FlipAngle": 52,
  "ImageComments": "Unaliased_MB4_PE3_LB",
  "ImageOrientationPatientDICOM": [0.999435, -0.0311871, 0.0124952, 0.0333293, 0.873488, -0.485703],
  "ImageType": [
    "ORIGINAL",
    "PRIMARY",
    "M",
    "MB",
    "ND",
    "MOSAIC"
],
  "ImagingFrequency": 123.259,
  "InPlanePhaseEncodingDirectionDICOM": "COL",
  "InstitutionAddress": "Chemin_Queen-Mary_4565_Montreal_District_CA_H3W_1W5",
  "InstitutionName": "IUGM",
  "InstitutionalDepartmentName": "Department",
  "MRAcquisitionType": "2D",
  "MagneticFieldStrength": 3,
  "Manufacturer": "Siemens",
  "ManufacturersModelName": "Prisma_fit",
  "Modality": "MR",
  "MultibandAccelerationFactor": 4,
  "PartialFourier": 1,
  "PatientPosition": "HFS",
  "PercentPhaseFOV": 100,
  "PhaseEncodingDirection": "j",
  "PhaseEncodingSteps": 104,
  "PhaseResolution": 1,
  "PixelBandwidth": 2290,
  "ProcedureStepDescription": "hcptrt_generic",
  "ProtocolName": "func_task-language_run-1",
  "PulseSequenceDetails": "%CustomerSeq%_cmrr_mbep2d_bold",
  "ReceiveCoilActiveElements": "HC1-7;NC1,2",
  "ReceiveCoilName": "HeadNeck_64",
  "ReconMatrixPE": 104,
  "RepetitionTime": 1.49,
  "SAR": 0.0375114,
  "ScanOptions": "FS",
  "ScanningSequence": "EP",
  "SequenceName": "epfid2d1_104",
  "SequenceVariant": "SK_SS",
  "SeriesDescription": "func_task-language_run-1",
  "SeriesNumber": 15,
  "ShimSetting": [626, -7200, -8866, 427, 10, -163, 24, -21],
  "SliceThickness": 2,
  "SliceTiming": [0, 0.7825, 0.0975, 0.8825, 0.195, 0.98, 0.2925, 1.0775, 0.3925, 1.175, 0.49, 1.2725, 0.5875, 1.3725, 0.685, 0, 0.7825, 0.0975, 0.8825, 0.195, 0.98, 0.2925, 1.0775, 0.3925, 1.175, 0.49, 1.2725, 0.5875, 1.3725, 0.685, 0, 0.7825, 0.0975, 0.8825, 0.195, 0.98, 0.2925, 1.0775, 0.3925, 1.175, 0.49, 1.2725, 0.5875, 1.3725, 0.685, 0, 0.7825, 0.0975, 0.8825, 0.195, 0.98, 0.2925, 1.0775, 0.3925, 1.175, 0.49, 1.2725, 0.5875, 1.3725, 0.685],
  "SoftwareVersions": "syngo_MR_E11",
  "SpacingBetweenSlices": 2,
  "StationName": "MRC35049",
  "TaskName": "language",
  "TotalReadoutTime": 0.0576811,
  "TxRefAmp": 250.382,
  "WipMemBlock": "3557d936-879a-430e-afb0-463846068110||Sequence: R016 ve11c/master r/e634e98; Dec 19 2017 11:00:25 by eja",
  "dcmmeta_affine": [
    [-1.9988709688186646, 0.06665866076946259, -0.008466411381959915, 100.09874725341797],
    [0.06237412989139557, 1.7469762563705444, -0.9716909527778625, -64.89346313476562],
    [0.024990499019622803, 0.9714064002037048, 1.748068928718567, -95.94461822509766],
    [0.0, 0.0, 0.0, 1.0]
],
  "dcmmeta_reorient_transform": [
    [0.0, -1.0, 0.0, 103.0],
    [1.0, 0.0, 0.0, 0.0],
    [0.0, 0.0, 1.0, 0.0],
    [0.0, 0.0, 0.0, 1.0]
],
  "dcmmeta_shape": [104, 104, 60, 159],
  "dcmmeta_slice_dim": 2,
  "dcmmeta_version": 0.6,
  "global": {
    "const": {
      "AcquisitionMatrix": [104, 0, 0, 104],
      "AngioFlag": "N",
      "BitsAllocated": 16,
      "BitsStored": 16,
      "BodyPartExamined": "BRAIN",
      "Columns": 832,
      "EchoNumbers": 1,
      "EchoTime": 37.0,
      "EchoTrainLength": 104,
      "FlipAngle": 52.0,
      "HighBit": 15,
      "ImageOrientationPatient": [0.99943545849926, -0.0311870652526, 0.0124952493094, 0.03332933039788, 0.87348814832386, -0.4857032123355],
      "ImagePositionPatient": [-858.81735822643, -728.24028663772, 348.6056393124],
      "ImageType": [
        "ORIGINAL",
        "PRIMARY",
        "M",
        "MB",
        "ND",
        "MOSAIC"
],
      "ImagedNucleus": "1H",
      "ImagingFrequency": 123.25925,
      "InPlanePhaseEncodingDirection": "COL",
      "MRAcquisitionType": "2D",
      "MagneticFieldStrength": 3.0,
      "Manufacturer": "SIEMENS",
      "ManufacturerModelName": "Prisma_fit",
      "Modality": "MR",
      "NumberOfAverages": 1.0,
      "NumberOfPhaseEncodingSteps": 104,
      "PercentPhaseFieldOfView": 100.0,
      "PercentSampling": 100.0,
      "PerformedProcedureStepStartTime": "155138.487000",
      "PhotometricInterpretation": "MONOCHROME2",
      "PixelBandwidth": 2290.0,
      "PixelRepresentation": 0,
      "PixelSpacing": [2.0, 2.0],
      "ProtocolName": "func_task-language_run-1",
      "RepetitionTime": 1490.0,
      "Rows": 832,
      "SAR": 0.03751142955387,
      "SamplesPerPixel": 1,
      "ScanOptions": "FS",
      "ScanningSequence": "EP",
      "SequenceName": "epfid2d1_104",
      "SequenceVariant": [
        "SK",
        "SS"
],
      "SeriesDescription": "func_task-language_run-1",
      "SeriesNumber": 15,
      "SeriesTime": "161111.430000",
      "SliceLocation": -52.754449615608,
      "SliceThickness": 2.0,
      "SmallestImagePixelValue": 0,
      "SoftwareVersions": "syngo MR E11",
      "SpacingBetweenSlices": 1.9999999635222,
      "SpecificCharacterSet": "ISO_IR 100",
      "StudyID": "1",
      "StudyTime": "155138.434000",
      "TransmitCoilName": "Body",
      "VariableFlipAngleFlag": "N",
      "WindowCenterWidthExplanation": "Algo1",
      "dBdt": 0.0},
    "slices": {}
  },
  "time": {
    "samples": {
      "AcquisitionNumber": [1, 2, 3, 4, 5, 6, 7, 8, 9, 10, 11, 12, 13, 14, 15, 16, 17, 18, 19, 20, 21, 22, 23, 24, 25, 26, 27, 28, 29, 30, 31, 32, 33, 34, 35, 36, 37, 38, 39, 40, 41, 42, 43, 44, 45, 46, 47, 48, 49, 50, 51, 52, 53, 54, 55, 56, 57, 58, 59, 60, 61, 62, 63, 64, 65, 66, 67, 68, 69, 70, 71, 72, 73, 74, 75, 76, 77, 78, 79, 80, 81, 82, 83, 84, 85, 86, 87, 88, 89, 90, 91, 92, 93, 94, 95, 96, 97, 98, 99, 100, 101, 102, 103, 104, 105, 106, 107, 108, 109, 110, 111, 112, 113, 114, 115, 116, 117, 118, 119, 120, 121, 122, 123, 124, 125, 126, 127, 128, 129, 130, 131, 132, 133, 134, 135, 136, 137, 138, 139, 140, 141, 142, 143, 144, 145, 146, 147, 148, 149, 150, 151, 152, 153, 154, 155, 156, 157, 158, 159],
      "AcquisitionTime": ["161000.007500", "161001.497500", "161002.987500", "161004.477500", "161005.967500", "161007.457500", "161008.947500", "161010.437500", "161011.927500", "161013.417500", "161014.907500", "161016.397500", "161017.887500", "161019.377500", "161020.867500", "161022.357500", "161023.847500", "161025.337500", "161026.827500", "161028.317500", "161029.807500", "161031.297500", "161032.787500", "161034.277500", "161035.767500", "161037.257500", "161038.747500", "161040.237500", "161041.727500", "161043.217500", "161044.707500", "161046.197500", "161047.687500", "161049.177500", "161050.667500", "161052.157500", "161053.647500", "161055.137500", "161056.627500", "161058.117500", "161059.607500", "161101.097500", "161102.587500", "161104.077500", "161105.567500", "161107.057500", "161108.547500", "161110.037500", "161111.527500", "161113.017500", "161114.507500", "161115.997500", "161117.487500", "161118.977500", "161120.467500", "161121.957500", "161123.447500", "161124.937500", "161126.427500", "161127.917500", "161129.407500", "161130.897500", "161132.387500", "161133.877500", "161135.367500", "161136.857500", "161138.347500", "161139.837500", "161141.327500", "161142.817500", "161144.307500", "161145.797500", "161147.287500", "161148.777500", "161150.267500", "161151.757500", "161153.247500", "161154.737500", "161156.227500", "161157.717500", "161159.207500", "161200.697500", "161202.187500", "161203.677500", "161205.167500", "161206.657500", "161208.147500", "161209.637500", "161211.127500", "161212.617500", "161214.107500", "161215.597500", "161217.087500", "161218.577500", "161220.067500", "161221.557500", "161223.047500", "161224.537500", "161226.027500", "161227.517500", "161229.007500", "161230.497500", "161231.987500", "161233.477500", "161234.967500", "161236.457500", "161237.947500", "161239.437500", "161240.927500", "161242.417500", "161243.907500", "161245.397500", "161246.887500", "161248.377500", "161249.867500", "161251.357500", "161252.847500", "161254.337500", "161255.827500", "161257.317500", "161258.807500", "161300.297500", "161301.787500", "161303.277500", "161304.767500", "161306.257500", "161307.747500", "161309.237500", "161310.727500", "161312.217500", "161313.707500", "161315.197500", "161316.687500", "161318.177500", "161319.667500", "161321.157500", "161322.647500", "161324.137500", "161325.627500", "161327.117500", "161328.607500", "161330.097500", "161331.587500", "161333.077500", "161334.567500", "161336.057500", "161337.547500", "161339.037500", "161340.527500", "161342.017500", "161343.507500", "161344.997500", "161346.487500", "161347.977500", "161349.467500", "161350.957500", "161352.447500", "161353.937500", "161355.427500"],
      "ContentTime": ["161111.432000", "161111.436000", "161111.439000", "161111.441000", "161111.444000", "161111.447000", "161111.450000", "161111.461000", "161111.464000", "161111.467000", "161111.470000", "161111.476000", "161111.479000", "161111.482000", "161111.484000", "161111.487000", "161111.490000", "161131.402000", "161131.405000", "161131.408000", "161131.411000", "161131.414000", "161131.422000", "161131.425000", "161131.428000", "161131.432000", "161131.434000", "161131.437000", "161131.440000", "161131.443000", "161131.446000", "161131.449000", "161131.451000", "161131.454000", "161131.457000", "161131.460000", "161131.463000", "161151.402000", "161151.405000", "161151.408000", "161151.410000", "161151.414000", "161151.416000", "161151.419000", "161151.422000", "161151.425000", "161151.428000", "161151.430000", "161151.433000", "161151.436000", "161151.439000", "161151.442000", "161151.445000", "161151.448000", "161151.451000", "161151.460000", "161151.463000", "161151.466000", "161211.403000", "161211.406000", "161211.409000", "161211.412000", "161211.414000", "161211.417000", "161211.430000", "161211.438000", "161211.441000", "161211.444000", "161211.447000", "161211.450000", "161211.453000", "161211.455000", "161211.458000", "161211.461000", "161211.464000", "161211.467000", "161211.469000", "161211.472000", "161231.403000", "161231.406000", "161231.409000", "161231.412000", "161231.415000", "161231.417000", "161231.420000", "161231.423000", "161231.426000", "161231.429000", "161231.431000", "161231.434000", "161231.437000", "161231.440000", "161231.443000", "161231.446000", "161231.449000", "161231.451000", "161231.454000", "161231.457000", "161311.402000", "161311.405000", "161311.408000", "161311.411000", "161311.413000", "161311.417000", "161311.419000", "161311.422000", "161311.425000", "161311.428000", "161311.431000", "161311.434000", "161311.437000", "161311.440000", "161311.443000", "161311.446000", "161311.448000", "161311.451000", "161311.454000", "161311.457000", "161311.460000", "161311.463000", "161311.466000", "161311.469000", "161311.471000", "161311.474000", "161311.477000", "161311.480000", "161311.487000", "161351.402000", "161351.405000", "161351.408000", "161351.411000", "161351.414000", "161351.416000", "161351.419000", "161351.422000", "161351.425000", "161351.428000", "161351.431000", "161351.434000", "161351.437000", "161351.439000", "161351.442000", "161351.445000", "161351.448000", "161351.451000", "161351.454000", "161351.457000", "161351.460000", "161351.462000", "161351.465000", "161351.468000", "161351.471000", "161351.474000", "161351.477000", "161357.738000", "161357.742000", "161357.745000", "161357.748000", "161357.751000"],
      "InstanceCreationTime": ["161111.432000", "161111.436000", "161111.439000", "161111.441000", "161111.444000", "161111.447000", "161111.450000", "161111.461000", "161111.464000", "161111.467000", "161111.470000", "161111.476000", "161111.479000", "161111.482000", "161111.484000", "161111.487000", "161111.490000", "161131.402000", "161131.405000", "161131.408000", "161131.411000", "161131.414000", "161131.422000", "161131.425000", "161131.428000", "161131.432000", "161131.434000", "161131.437000", "161131.440000", "161131.443000", "161131.446000", "161131.449000", "161131.451000", "161131.454000", "161131.457000", "161131.460000", "161131.463000", "161151.402000", "161151.405000", "161151.408000", "161151.410000", "161151.414000", "161151.416000", "161151.419000", "161151.422000", "161151.425000", "161151.428000", "161151.430000", "161151.433000", "161151.436000", "161151.439000", "161151.442000", "161151.445000", "161151.448000", "161151.451000", "161151.460000", "161151.463000", "161151.466000", "161211.403000", "161211.406000", "161211.409000", "161211.412000", "161211.414000", "161211.417000", "161211.430000", "161211.438000", "161211.441000", "161211.444000", "161211.447000", "161211.450000", "161211.453000", "161211.455000", "161211.458000", "161211.461000", "161211.464000", "161211.467000", "161211.469000", "161211.472000", "161231.403000", "161231.406000", "161231.409000", "161231.412000", "161231.415000", "161231.417000", "161231.420000", "161231.423000", "161231.426000", "161231.429000", "161231.431000", "161231.434000", "161231.437000", "161231.440000", "161231.443000", "161231.446000", "161231.449000", "161231.451000", "161231.454000", "161231.457000", "161311.402000", "161311.405000", "161311.408000", "161311.411000", "161311.413000", "161311.417000", "161311.419000", "161311.422000", "161311.425000", "161311.428000", "161311.431000", "161311.434000", "161311.437000", "161311.440000", "161311.443000", "161311.446000", "161311.448000", "161311.451000", "161311.454000", "161311.457000", "161311.460000", "161311.463000", "161311.466000", "161311.469000", "161311.471000", "161311.474000", "161311.477000", "161311.480000", "161311.487000", "161351.402000", "161351.405000", "161351.408000", "161351.411000", "161351.414000", "161351.416000", "161351.419000", "161351.422000", "161351.425000", "161351.428000", "161351.431000", "161351.434000", "161351.437000", "161351.439000", "161351.442000", "161351.445000", "161351.448000", "161351.451000", "161351.454000", "161351.457000", "161351.460000", "161351.462000", "161351.465000", "161351.468000", "161351.471000", "161351.474000", "161351.477000", "161357.738000", "161357.742000", "161357.745000", "161357.748000", "161357.751000"],
      "InstanceNumber": [1, 2, 3, 4, 5, 6, 7, 8, 9, 10, 11, 12, 13, 14, 15, 16, 17, 18, 19, 20, 21, 22, 23, 24, 25, 26, 27, 28, 29, 30, 31, 32, 33, 34, 35, 36, 37, 38, 39, 40, 41, 42, 43, 44, 45, 46, 47, 48, 49, 50, 51, 52, 53, 54, 55, 56, 57, 58, 59, 60, 61, 62, 63, 64, 65, 66, 67, 68, 69, 70, 71, 72, 73, 74, 75, 76, 77, 78, 79, 80, 81, 82, 83, 84, 85, 86, 87, 88, 89, 90, 91, 92, 93, 94, 95, 96, 97, 98, 99, 100, 101, 102, 103, 104, 105, 106, 107, 108, 109, 110, 111, 112, 113, 114, 115, 116, 117, 118, 119, 120, 121, 122, 123, 124, 125, 126, 127, 128, 129, 130, 131, 132, 133, 134, 135, 136, 137, 138, 139, 140, 141, 142, 143, 144, 145, 146, 147, 148, 149, 150, 151, 152, 153, 154, 155, 156, 157, 158, 159],
      "LargestImagePixelValue": [48933, 47133, 46684, 45928, 46049, 46264, 46227, 46432, 45802, 45587, 46044, 45705, 46618, 46153, 45807, 46100, 45994, 46709, 45834, 46297, 45908, 46617, 45728, 46735, 45952, 46348, 46134, 46817, 45971, 46604, 46369, 46328, 46366, 46359, 47068, 46689, 46256, 46509, 46656, 46543, 46693, 46848, 46583, 46908, 46698, 46751, 47136, 47122, 46773, 46352, 47049, 46327, 46646, 46692, 46907, 46895, 46949, 46772, 46928, 46882, 46741, 46823, 46685, 46794, 46269, 46963, 45983, 46894, 46503, 46619, 45793, 46343, 46667, 46313, 46236, 46435, 45915, 46413, 46579, 46152, 46677, 46548, 46588, 46153, 46472, 46396, 46171, 46296, 45586, 46506, 46359, 46324, 46392, 46832, 46247, 46119, 46292, 46450, 46427, 45606, 46043, 46524, 46222, 46278, 46047, 46443, 46480, 46698, 46496, 45998, 46952, 46554, 46730, 46817, 46766, 47467, 47209, 47656, 47273, 47190, 47620, 47496, 46440, 46950, 47099, 47296, 47393, 47279, 47290, 46860, 47470, 47613, 47243, 46640, 46711, 46839, 46225, 47186, 47278, 45285, 44539, 44380, 45835, 46252, 47310, 47648, 46491, 46351, 46171, 46356, 46193, 45811, 46488, 45601, 45366, 45046, 45409, 45245, 45478],
      "WindowCenter": [11358.0, 11301.0, 11287.0, 11279.0, 11277.0, 11274.0, 11267.0, 11266.0, 11265.0, 11255.0, 11256.0, 11255.0, 11262.0, 11266.0, 11265.0, 11260.0, 11253.0, 11251.0, 11250.0, 11252.0, 11266.0, 11287.0, 11284.0, 11282.0, 11261.0, 11253.0, 11248.0, 11260.0, 11262.0, 11271.0, 11272.0, 11259.0, 11250.0, 11244.0, 11252.0, 11259.0, 11256.0, 11263.0, 11261.0, 11264.0, 11270.0, 11272.0, 11273.0, 11265.0, 11263.0, 11265.0, 11280.0, 11297.0, 11299.0, 11288.0, 11285.0, 11275.0, 11283.0, 11270.0, 11265.0, 11266.0, 11258.0, 11253.0, 11251.0, 11251.0, 11252.0, 11254.0, 11262.0, 11263.0, 11263.0, 11260.0, 11254.0, 11251.0, 11258.0, 11273.0, 11268.0, 11256.0, 11249.0, 11240.0, 11241.0, 11255.0, 11264.0, 11268.0, 11266.0, 11254.0, 11266.0, 11269.0, 11275.0, 11274.0, 11279.0, 11280.0, 11267.0, 11262.0, 11252.0, 11241.0, 11232.0, 11231.0, 11234.0, 11241.0, 11243.0, 11253.0, 11255.0, 11252.0, 11260.0, 11261.0, 11256.0, 11264.0, 11260.0, 11255.0, 11253.0, 11253.0, 11262.0, 11261.0, 11260.0, 11256.0, 11265.0, 11254.0, 11258.0, 11265.0, 11270.0, 11274.0, 11275.0, 11274.0, 11273.0, 11277.0, 11291.0, 11289.0, 11267.0, 11284.0, 11298.0, 11302.0, 11295.0, 11285.0, 11277.0, 11272.0, 11283.0, 11289.0, 11293.0, 11285.0, 11287.0, 11280.0, 11270.0, 11284.0, 11298.0, 11298.0, 11291.0, 11275.0, 11274.0, 11288.0, 11297.0, 11282.0, 11251.0, 11242.0, 11243.0, 11248.0, 11258.0, 11265.0, 11281.0, 11267.0, 11262.0, 11250.0, 11265.0, 11256.0, 11245.0],
      "WindowWidth": [24533.0, 24364.0, 24314.0, 24280.0, 24270.0, 24258.0, 24242.0, 24236.0, 24237.0, 24211.0, 24209.0, 24204.0, 24224.0, 24239.0, 24231.0, 24217.0, 24197.0, 24195.0, 24197.0, 24202.0, 24235.0, 24280.0, 24273.0, 24273.0, 24222.0, 24203.0, 24192.0, 24220.0, 24224.0, 24242.0, 24246.0, 24216.0, 24190.0, 24175.0, 24195.0, 24209.0, 24208.0, 24225.0, 24216.0, 24223.0, 24233.0, 24238.0, 24241.0, 24223.0, 24220.0, 24226.0, 24260.0, 24306.0, 24308.0, 24283.0, 24276.0, 24252.0, 24281.0, 24236.0, 24222.0, 24228.0, 24203.0, 24195.0, 24184.0, 24187.0, 24188.0, 24192.0, 24213.0, 24216.0, 24216.0, 24208.0, 24197.0, 24190.0, 24206.0, 24237.0, 24240.0, 24197.0, 24183.0, 24157.0, 24163.0, 24194.0, 24223.0, 24228.0, 24219.0, 24194.0, 24224.0, 24230.0, 24245.0, 24245.0, 24254.0, 24262.0, 24228.0, 24216.0, 24193.0, 24160.0, 24140.0, 24137.0, 24143.0, 24161.0, 24166.0, 24192.0, 24196.0, 24188.0, 24211.0, 24225.0, 24203.0, 24221.0, 24212.0, 24194.0, 24190.0, 24188.0, 24210.0, 24208.0, 24204.0, 24197.0, 24216.0, 24191.0, 24198.0, 24214.0, 24228.0, 24239.0, 24240.0, 24236.0, 24229.0, 24244.0, 24274.0, 24270.0, 24223.0, 24264.0, 24302.0, 24300.0, 24286.0, 24258.0, 24240.0, 24231.0, 24255.0, 24265.0, 24279.0, 24260.0, 24265.0, 24248.0, 24230.0, 24258.0, 24304.0, 24304.0, 24289.0, 24254.0, 24239.0, 24268.0, 24291.0, 24254.0, 24183.0, 24158.0, 24166.0, 24181.0, 24213.0, 24239.0, 24264.0, 24233.0, 24226.0, 24201.0, 24234.0, 24208.0, 24177.0]
    },
    "slices": {}
  }
}