{
  "AcquisitionMatrixPE": 104,
  "AcquisitionNumber": 1,
  "AcquisitionTime": "16:18:41.967500",
  "BandwidthPerPixelPhaseEncode": 17.17,
  "BaseResolution": 104,
  "BodyPartExamined": "BRAIN",
  "CoilString": "HC1-7;NC1_2",
  "ConsistencyInfo": "N4_VE11C_LATEST_20160120",
  "ConversionSoftware": "dcm2niix",
  "ConversionSoftwareVersion": "v1.0.20190720  (JP2:OpenJPEG) GCC7.3.0",
  "DerivedVendorReportedEchoSpacing": 0.000560011,
  "DeviceSerialNumber": "167006",
  "DwellTime": 2.1e-06,
  "EchoTime": 0.037,
  "EchoTrainLength": 104,
  "EffectiveEchoSpacing": 0.000560011,
  "FlipAngle": 52,
  "ImageComments": "Unaliased_MB4_PE3_LB",
  "ImageOrientationPatientDICOM": [0.999435, -0.0311871, 0.0124952, 0.0333293, 0.873488, -0.485703],
  "ImageType": [
    "ORIGINAL",
    "PRIMARY",
    "M",
    "MB",
    "ND",
    "MOSAIC"
],
  "ImagingFrequency": 123.259,
  "InPlanePhaseEncodingDirectionDICOM": "COL",
  "InstitutionAddress": "Chemin_Queen-Mary_4565_Montreal_District_CA_H3W_1W5",
  "InstitutionName": "IUGM",
  "InstitutionalDepartmentName": "Department",
  "MRAcquisitionType": "2D",
  "MagneticFieldStrength": 3,
  "Manufacturer": "Siemens",
  "ManufacturersModelName": "Prisma_fit",
  "Modality": "MR",
  "MultibandAccelerationFactor": 4,
  "PartialFourier": 1,
  "PatientPosition": "HFS",
  "PercentPhaseFOV": 100,
  "PhaseEncodingDirection": "j",
  "PhaseEncodingSteps": 104,
  "PhaseResolution": 1,
  "PixelBandwidth": 2290,
  "ProcedureStepDescription": "hcptrt_generic",
  "ProtocolName": "func_task-motor_run-1",
  "PulseSequenceDetails": "%CustomerSeq%_cmrr_mbep2d_bold",
  "ReceiveCoilActiveElements": "HC1-7;NC1,2",
  "ReceiveCoilName": "HeadNeck_64",
  "ReconMatrixPE": 104,
  "RepetitionTime": 1.49,
  "SAR": 0.0374654,
  "ScanOptions": "FS",
  "ScanningSequence": "EP",
  "SequenceName": "epfid2d1_104",
  "SequenceVariant": "SK_SS",
  "SeriesDescription": "func_task-motor_run-1",
  "SeriesNumber": 19,
  "ShimSetting": [626, -7200, -8866, 427, 10, -163, 24, -21],
  "SliceThickness": 2,
  "SliceTiming": [0, 0.785, 0.0975, 0.8825, 0.195, 0.98, 0.295, 1.0775, 0.3925, 1.175, 0.49, 1.275, 0.5875, 1.3725, 0.685, 0, 0.785, 0.0975, 0.8825, 0.195, 0.98, 0.295, 1.0775, 0.3925, 1.175, 0.49, 1.275, 0.5875, 1.3725, 0.685, 0, 0.785, 0.0975, 0.8825, 0.195, 0.98, 0.295, 1.0775, 0.3925, 1.175, 0.49, 1.275, 0.5875, 1.3725, 0.685, 0, 0.785, 0.0975, 0.8825, 0.195, 0.98, 0.295, 1.0775, 0.3925, 1.175, 0.49, 1.275, 0.5875, 1.3725, 0.685],
  "SoftwareVersions": "syngo_MR_E11",
  "SpacingBetweenSlices": 2,
  "StationName": "MRC35049",
  "TaskName": "motor",
  "TotalReadoutTime": 0.0576811,
  "TxRefAmp": 250.382,
  "WipMemBlock": "3954df94-6d6c-4079-8bec-848e0fd9da5a||Sequence: R016 ve11c/master r/e634e98; Dec 19 2017 11:00:25 by eja",
  "dcmmeta_affine": [
    [-1.9988709688186646, 0.06665866076946259, -0.008466411381959915, 100.09874725341797],
    [0.06237412989139557, 1.7469762563705444, -0.9716909527778625, -64.89346313476562],
    [0.024990499019622803, 0.9714064002037048, 1.748068928718567, -95.94461822509766],
    [0.0, 0.0, 0.0, 1.0]
],
  "dcmmeta_reorient_transform": [
    [0.0, -1.0, 0.0, 103.0],
    [1.0, 0.0, 0.0, 0.0],
    [0.0, 0.0, 1.0, 0.0],
    [0.0, 0.0, 0.0, 1.0]
],
  "dcmmeta_shape": [104, 104, 60, 144],
  "dcmmeta_slice_dim": 2,
  "dcmmeta_version": 0.6,
  "global": {
    "const": {
      "AcquisitionMatrix": [104, 0, 0, 104],
      "AngioFlag": "N",
      "BitsAllocated": 16,
      "BitsStored": 16,
      "BodyPartExamined": "BRAIN",
      "Columns": 832,
      "EchoNumbers": 1,
      "EchoTime": 37.0,
      "EchoTrainLength": 104,
      "FlipAngle": 52.0,
      "HighBit": 15,
      "ImageOrientationPatient": [0.99943545849926, -0.0311870652526, 0.0124952493094, 0.03332933039788, 0.87348814832386, -0.4857032123355],
      "ImagePositionPatient": [-858.81735822643, -728.24028663772, 348.6056393124],
      "ImageType": [
        "ORIGINAL",
        "PRIMARY",
        "M",
        "MB",
        "ND",
        "MOSAIC"
],
      "ImagedNucleus": "1H",
      "ImagingFrequency": 123.259261,
      "InPlanePhaseEncodingDirection": "COL",
      "MRAcquisitionType": "2D",
      "MagneticFieldStrength": 3.0,
      "Manufacturer": "SIEMENS",
      "ManufacturerModelName": "Prisma_fit",
      "Modality": "MR",
      "NumberOfAverages": 1.0,
      "NumberOfPhaseEncodingSteps": 104,
      "PercentPhaseFieldOfView": 100.0,
      "PercentSampling": 100.0,
      "PerformedProcedureStepStartTime": "155138.487000",
      "PhotometricInterpretation": "MONOCHROME2",
      "PixelBandwidth": 2290.0,
      "PixelRepresentation": 0,
      "PixelSpacing": [2.0, 2.0],
      "ProtocolName": "func_task-motor_run-1",
      "RepetitionTime": 1490.0,
      "Rows": 832,
      "SAR": 0.03746538559194,
      "SamplesPerPixel": 1,
      "ScanOptions": "FS",
      "ScanningSequence": "EP",
      "SequenceName": "epfid2d1_104",
      "SequenceVariant": [
        "SK",
        "SS"
],
      "SeriesDescription": "func_task-motor_run-1",
      "SeriesNumber": 19,
      "SeriesTime": "162006.556000",
      "SliceLocation": -52.754449615608,
      "SliceThickness": 2.0,
      "SmallestImagePixelValue": 0,
      "SoftwareVersions": "syngo MR E11",
      "SpacingBetweenSlices": 1.9999999635222,
      "SpecificCharacterSet": "ISO_IR 100",
      "StudyID": "1",
      "StudyTime": "155138.434000",
      "TransmitCoilName": "Body",
      "VariableFlipAngleFlag": "N",
      "WindowCenterWidthExplanation": "Algo1",
      "dBdt": 0.0},
    "slices": {}
  },
  "time": {
    "samples": {
      "AcquisitionNumber": [1, 2, 3, 4, 5, 6, 7, 8, 9, 10, 11, 12, 13, 14, 15, 16, 17, 18, 19, 20, 21, 22, 23, 24, 25, 26, 27, 28, 29, 30, 31, 32, 33, 34, 35, 36, 37, 38, 39, 40, 41, 42, 43, 44, 45, 46, 47, 48, 49, 50, 51, 52, 53, 54, 55, 56, 57, 58, 59, 60, 61, 62, 63, 64, 65, 66, 67, 68, 69, 70, 71, 72, 73, 74, 75, 76, 77, 78, 79, 80, 81, 82, 83, 84, 85, 86, 87, 88, 89, 90, 91, 92, 93, 94, 95, 96, 97, 98, 99, 100, 101, 102, 103, 104, 105, 106, 107, 108, 109, 110, 111, 112, 113, 114, 115, 116, 117, 118, 119, 120, 121, 122, 123, 124, 125, 126, 127, 128, 129, 130, 131, 132, 133, 134, 135, 136, 137, 138, 139, 140, 141, 142, 143, 144],
      "AcquisitionTime": ["161841.967500", "161843.457500", "161844.947500", "161846.437500", "161847.927500", "161849.417500", "161850.907500", "161852.397500", "161853.887500", "161855.377500", "161856.867500", "161858.357500", "161859.847500", "161901.337500", "161902.827500", "161904.317500", "161905.807500", "161907.297500", "161908.787500", "161910.277500", "161911.767500", "161913.257500", "161914.747500", "161916.237500", "161917.727500", "161919.217500", "161920.707500", "161922.197500", "161923.687500", "161925.177500", "161926.667500", "161928.157500", "161929.647500", "161931.137500", "161932.627500", "161934.117500", "161935.607500", "161937.097500", "161938.587500", "161940.077500", "161941.567500", "161943.057500", "161944.547500", "161946.037500", "161947.527500", "161949.017500", "161950.507500", "161951.997500", "161953.487500", "161954.977500", "161956.467500", "161957.957500", "161959.447500", "162000.937500", "162002.427500", "162003.917500", "162005.407500", "162006.897500", "162008.387500", "162009.877500", "162011.367500", "162012.857500", "162014.347500", "162015.837500", "162017.327500", "162018.817500", "162020.307500", "162021.797500", "162023.287500", "162024.777500", "162026.267500", "162027.757500", "162029.247500", "162030.737500", "162032.227500", "162033.717500", "162035.207500", "162036.697500", "162038.187500", "162039.677500", "162041.167500", "162042.657500", "162044.147500", "162045.637500", "162047.127500", "162048.617500", "162050.107500", "162051.597500", "162053.087500", "162054.577500", "162056.067500", "162057.557500", "162059.047500", "162100.537500", "162102.027500", "162103.517500", "162105.007500", "162106.497500", "162107.987500", "162109.477500", "162110.967500", "162112.457500", "162113.947500", "162115.437500", "162116.927500", "162118.417500", "162119.907500", "162121.397500", "162122.887500", "162124.377500", "162125.867500", "162127.357500", "162128.847500", "162130.337500", "162131.827500", "162133.317500", "162134.807500", "162136.297500", "162137.787500", "162139.277500", "162140.767500", "162142.257500", "162143.747500", "162145.237500", "162146.727500", "162148.217500", "162149.707500", "162151.197500", "162152.687500", "162154.177500", "162155.667500", "162157.157500", "162158.647500", "162200.137500", "162201.627500", "162203.117500", "162204.607500", "162206.097500", "162207.587500", "162209.077500", "162210.567500", "162212.057500", "162213.547500", "162215.037500"],
      "ContentTime": ["162006.559000", "162006.563000", "162006.566000", "162006.568000", "162006.571000", "162006.574000", "162006.577000", "162006.580000", "162006.583000", "162006.586000", "162006.589000", "162006.592000", "162006.595000", "162006.597000", "162006.600000", "162006.603000", "162006.606000", "162006.609000", "162006.612000", "162006.614000", "162006.617000", "162006.620000", "162006.623000", "162006.626000", "162006.629000", "162006.637000", "162006.640000", "162006.643000", "162006.646000", "162006.648000", "162026.527000", "162026.530000", "162026.533000", "162026.536000", "162026.539000", "162026.542000", "162026.544000", "162026.547000", "162026.550000", "162026.553000", "162026.556000", "162026.559000", "162026.561000", "162026.564000", "162026.567000", "162026.570000", "162026.573000", "162026.576000", "162026.579000", "162026.582000", "162046.527000", "162046.530000", "162046.533000", "162046.536000", "162046.539000", "162046.542000", "162046.544000", "162046.547000", "162046.550000", "162046.553000", "162046.556000", "162046.559000", "162046.562000", "162046.564000", "162046.567000", "162046.570000", "162046.573000", "162046.576000", "162046.579000", "162046.582000", "162046.585000", "162106.527000", "162106.530000", "162106.533000", "162106.536000", "162106.539000", "162106.542000", "162106.545000", "162106.547000", "162106.550000", "162106.553000", "162106.556000", "162106.559000", "162106.562000", "162106.564000", "162106.567000", "162106.570000", "162106.573000", "162106.576000", "162106.579000", "162106.582000", "162146.526000", "162146.529000", "162146.532000", "162146.535000", "162146.537000", "162146.540000", "162146.543000", "162146.546000", "162146.549000", "162146.552000", "162146.554000", "162146.557000", "162146.560000", "162146.563000", "162146.566000", "162146.569000", "162146.572000", "162146.575000", "162146.578000", "162146.580000", "162146.583000", "162146.586000", "162146.589000", "162146.592000", "162146.595000", "162146.598000", "162146.601000", "162146.603000", "162146.610000", "162146.613000", "162146.616000", "162146.619000", "162217.485000", "162217.489000", "162217.491000", "162217.501000", "162217.504000", "162217.507000", "162217.510000", "162217.513000", "162217.516000", "162217.519000", "162217.522000", "162217.526000", "162217.529000", "162217.531000", "162217.534000", "162217.538000", "162217.541000", "162217.543000", "162217.547000", "162217.550000", "162217.553000"],
      "InstanceCreationTime": ["162006.559000", "162006.563000", "162006.566000", "162006.568000", "162006.571000", "162006.574000", "162006.577000", "162006.580000", "162006.583000", "162006.586000", "162006.589000", "162006.592000", "162006.595000", "162006.597000", "162006.600000", "162006.603000", "162006.606000", "162006.609000", "162006.612000", "162006.614000", "162006.617000", "162006.620000", "162006.623000", "162006.626000", "162006.629000", "162006.637000", "162006.640000", "162006.643000", "162006.646000", "162006.648000", "162026.527000", "162026.530000", "162026.533000", "162026.536000", "162026.539000", "162026.542000", "162026.544000", "162026.547000", "162026.550000", "162026.553000", "162026.556000", "162026.559000", "162026.561000", "162026.564000", "162026.567000", "162026.570000", "162026.573000", "162026.576000", "162026.579000", "162026.582000", "162046.527000", "162046.530000", "162046.533000", "162046.536000", "162046.539000", "162046.542000", "162046.544000", "162046.547000", "162046.550000", "162046.553000", "162046.556000", "162046.559000", "162046.562000", "162046.564000", "162046.567000", "162046.570000", "162046.573000", "162046.576000", "162046.579000", "162046.582000", "162046.585000", "162106.527000", "162106.530000", "162106.533000", "162106.536000", "162106.539000", "162106.542000", "162106.545000", "162106.547000", "162106.550000", "162106.553000", "162106.556000", "162106.559000", "162106.562000", "162106.564000", "162106.567000", "162106.570000", "162106.573000", "162106.576000", "162106.579000", "162106.582000", "162146.526000", "162146.529000", "162146.532000", "162146.535000", "162146.537000", "162146.540000", "162146.543000", "162146.546000", "162146.549000", "162146.552000", "162146.554000", "162146.557000", "162146.560000", "162146.563000", "162146.566000", "162146.569000", "162146.572000", "162146.575000", "162146.578000", "162146.580000", "162146.583000", "162146.586000", "162146.589000", "162146.592000", "162146.595000", "162146.598000", "162146.601000", "162146.603000", "162146.610000", "162146.613000", "162146.616000", "162146.619000", "162217.485000", "162217.489000", "162217.491000", "162217.501000", "162217.504000", "162217.507000", "162217.510000", "162217.513000", "162217.516000", "162217.519000", "162217.522000", "162217.526000", "162217.529000", "162217.531000", "162217.534000", "162217.538000", "162217.541000", "162217.543000", "162217.547000", "162217.550000", "162217.553000"],
      "InstanceNumber": [1, 2, 3, 4, 5, 6, 7, 8, 9, 10, 11, 12, 13, 14, 15, 16, 17, 18, 19, 20, 21, 22, 23, 24, 25, 26, 27, 28, 29, 30, 31, 32, 33, 34, 35, 36, 37, 38, 39, 40, 41, 42, 43, 44, 45, 46, 47, 48, 49, 50, 51, 52, 53, 54, 55, 56, 57, 58, 59, 60, 61, 62, 63, 64, 65, 66, 67, 68, 69, 70, 71, 72, 73, 74, 75, 76, 77, 78, 79, 80, 81, 82, 83, 84, 85, 86, 87, 88, 89, 90, 91, 92, 93, 94, 95, 96, 97, 98, 99, 100, 101, 102, 103, 104, 105, 106, 107, 108, 109, 110, 111, 112, 113, 114, 115, 116, 117, 118, 119, 120, 121, 122, 123, 124, 125, 126, 127, 128, 129, 130, 131, 132, 133, 134, 135, 136, 137, 138, 139, 140, 141, 142, 143, 144],
      "LargestImagePixelValue": [48972, 47736, 46194, 46409, 45385, 45884, 45825, 46055, 45677, 46244, 45341, 46175, 46132, 46243, 45782, 46307, 45583, 46275, 45362, 45706, 45514, 45679, 45435, 45423, 46092, 45701, 45955, 46407, 46183, 45776, 45713, 45227, 45625, 45781, 46574, 45550, 45608, 46484, 45314, 45331, 45193, 44883, 45106, 45552, 45496, 45120, 45521, 46095, 46272, 45930, 46188, 45872, 45580, 45972, 45560, 46073, 46147, 46399, 45451, 46191, 46350, 45673, 46152, 45775, 45971, 46205, 45828, 45673, 45540, 45497, 46130, 45865, 46148, 45167, 44875, 45065, 45105, 44849, 45276, 45636, 45469, 46069, 45785, 46099, 45779, 46483, 46141, 45135, 45562, 47010, 46336, 46514, 46764, 45737, 46150, 45770, 45544, 45816, 46608, 46911, 46794, 46403, 46456, 46779, 46443, 46641, 46100, 46829, 46155, 46279, 45888, 46270, 46029, 46233, 45786, 46084, 45759, 46262, 45869, 45865, 45709, 45968, 45479, 46011, 46151, 45671, 45840, 45380, 46587, 45770, 45381, 45805, 45950, 45638, 45910, 45875, 45807, 45886, 46826, 46756, 46421, 45761, 46870, 46859],
      "WindowCenter": [11338.0, 11266.0, 11221.0, 11207.0, 11208.0, 11220.0, 11230.0, 11217.0, 11210.0, 11211.0, 11194.0, 11203.0, 11199.0, 11211.0, 11201.0, 11205.0, 11195.0, 11203.0, 11202.0, 11208.0, 11208.0, 11216.0, 11209.0, 11208.0, 11206.0, 11203.0, 11216.0, 11212.0, 11206.0, 11201.0, 11209.0, 11207.0, 11210.0, 11211.0, 11221.0, 11205.0, 11210.0, 11209.0, 11215.0, 11225.0, 11227.0, 11215.0, 11219.0, 11228.0, 11222.0, 11229.0, 11231.0, 11225.0, 11220.0, 11199.0, 11202.0, 11204.0, 11206.0, 11212.0, 11198.0, 11191.0, 11184.0, 11192.0, 11193.0, 11196.0, 11187.0, 11162.0, 11161.0, 11166.0, 11186.0, 11194.0, 11189.0, 11199.0, 11205.0, 11199.0, 11202.0, 11200.0, 11214.0, 11216.0, 11219.0, 11221.0, 11207.0, 11198.0, 11196.0, 11207.0, 11209.0, 11225.0, 11226.0, 11230.0, 11228.0, 11229.0, 11214.0, 11194.0, 11178.0, 11205.0, 11185.0, 11163.0, 11148.0, 11131.0, 11148.0, 11148.0, 11151.0, 11140.0, 11162.0, 11155.0, 11166.0, 11191.0, 11202.0, 11203.0, 11186.0, 11175.0, 11170.0, 11174.0, 11200.0, 11225.0, 11229.0, 11231.0, 11225.0, 11227.0, 11218.0, 11223.0, 11218.0, 11225.0, 11219.0, 11232.0, 11222.0, 11223.0, 11213.0, 11219.0, 11227.0, 11211.0, 11198.0, 11186.0, 11197.0, 11193.0, 11203.0, 11200.0, 11196.0, 11173.0, 11178.0, 11194.0, 11215.0, 11218.0, 11216.0, 11197.0, 11182.0, 11175.0, 11179.0, 11179.0],
      "WindowWidth": [24481.0, 24273.0, 24153.0, 24102.0, 24103.0, 24128.0, 24145.0, 24112.0, 24099.0, 24095.0, 24061.0, 24078.0, 24070.0, 24097.0, 24079.0, 24081.0, 24066.0, 24078.0, 24083.0, 24100.0, 24097.0, 24114.0, 24100.0, 24100.0, 24090.0, 24085.0, 24115.0, 24099.0, 24082.0, 24072.0, 24088.0, 24090.0, 24093.0, 24099.0, 24117.0, 24086.0, 24093.0, 24096.0, 24107.0, 24136.0, 24136.0, 24112.0, 24120.0, 24151.0, 24133.0, 24146.0, 24151.0, 24134.0, 24118.0, 24071.0, 24081.0, 24078.0, 24083.0, 24092.0, 24064.0, 24048.0, 24028.0, 24045.0, 24056.0, 24052.0, 24030.0, 23976.0, 23972.0, 23986.0, 24032.0, 24059.0, 24045.0, 24064.0, 24080.0, 24068.0, 24070.0, 24067.0, 24100.0, 24112.0, 24117.0, 24126.0, 24089.0, 24069.0, 24064.0, 24088.0, 24094.0, 24140.0, 24134.0, 24142.0, 24136.0, 24139.0, 24104.0, 24069.0, 24023.0, 24077.0, 24032.0, 23979.0, 23949.0, 23910.0, 23937.0, 23940.0, 23951.0, 23924.0, 23971.0, 23956.0, 23988.0, 24046.0, 24068.0, 24067.0, 24029.0, 24002.0, 23998.0, 24001.0, 24063.0, 24130.0, 24141.0, 24137.0, 24125.0, 24130.0, 24108.0, 24121.0, 24109.0, 24124.0, 24109.0, 24144.0, 24126.0, 24133.0, 24100.0, 24116.0, 24140.0, 24100.0, 24065.0, 24037.0, 24060.0, 24061.0, 24088.0, 24069.0, 24057.0, 24008.0, 24020.0, 24058.0, 24107.0, 24119.0, 24102.0, 24053.0, 24020.0, 24003.0, 24011.0, 24011.0]
    },
    "slices": {}
  }
}