{
  "AcquisitionMatrixPE": 104,
  "AcquisitionNumber": 1,
  "AcquisitionTime": "16:23:15.510000",
  "BandwidthPerPixelPhaseEncode": 17.17,
  "BaseResolution": 104,
  "BodyPartExamined": "BRAIN",
  "CoilString": "HC1-7;NC1_2",
  "ConsistencyInfo": "N4_VE11C_LATEST_20160120",
  "ConversionSoftware": "dcm2niix",
  "ConversionSoftwareVersion": "v1.0.20190720  (JP2:OpenJPEG) GCC7.3.0",
  "DerivedVendorReportedEchoSpacing": 0.000560011,
  "DeviceSerialNumber": "167006",
  "DwellTime": 2.1e-06,
  "EchoTime": 0.037,
  "EchoTrainLength": 104,
  "EffectiveEchoSpacing": 0.000560011,
  "FlipAngle": 52,
  "ImageComments": "Unaliased_MB4_PE3_LB",
  "ImageOrientationPatientDICOM": [0.999435, -0.0311871, 0.0124952, 0.0333293, 0.873488, -0.485703],
  "ImageType": [
    "ORIGINAL",
    "PRIMARY",
    "M",
    "MB",
    "ND",
    "MOSAIC"
],
  "ImagingFrequency": 123.259,
  "InPlanePhaseEncodingDirectionDICOM": "COL",
  "InstitutionAddress": "Chemin_Queen-Mary_4565_Montreal_District_CA_H3W_1W5",
  "InstitutionName": "IUGM",
  "InstitutionalDepartmentName": "Department",
  "MRAcquisitionType": "2D",
  "MagneticFieldStrength": 3,
  "Manufacturer": "Siemens",
  "ManufacturersModelName": "Prisma_fit",
  "Modality": "MR",
  "MultibandAccelerationFactor": 4,
  "PartialFourier": 1,
  "PatientPosition": "HFS",
  "PercentPhaseFOV": 100,
  "PhaseEncodingDirection": "j",
  "PhaseEncodingSteps": 104,
  "PhaseResolution": 1,
  "PixelBandwidth": 2290,
  "ProcedureStepDescription": "hcptrt_generic",
  "ProtocolName": "func_task-wm_run-1",
  "PulseSequenceDetails": "%CustomerSeq%_cmrr_mbep2d_bold",
  "ReceiveCoilActiveElements": "HC1-7;NC1,2",
  "ReceiveCoilName": "HeadNeck_64",
  "ReconMatrixPE": 104,
  "RepetitionTime": 1.49,
  "SAR": 0.0376068,
  "ScanOptions": "FS",
  "ScanningSequence": "EP",
  "SequenceName": "epfid2d1_104",
  "SequenceVariant": "SK_SS",
  "SeriesDescription": "func_task-wm_run-1",
  "SeriesNumber": 21,
  "ShimSetting": [626, -7200, -8866, 427, 10, -163, 24, -21],
  "SliceThickness": 2,
  "SliceTiming": [0, 0.7825, 0.0975, 0.8825, 0.195, 0.98, 0.2925, 1.0775, 0.3925, 1.175, 0.49, 1.2725, 0.5875, 1.3725, 0.685, 0, 0.7825, 0.0975, 0.8825, 0.195, 0.98, 0.2925, 1.0775, 0.3925, 1.175, 0.49, 1.2725, 0.5875, 1.3725, 0.685, 0, 0.7825, 0.0975, 0.8825, 0.195, 0.98, 0.2925, 1.0775, 0.3925, 1.175, 0.49, 1.2725, 0.5875, 1.3725, 0.685, 0, 0.7825, 0.0975, 0.8825, 0.195, 0.98, 0.2925, 1.0775, 0.3925, 1.175, 0.49, 1.2725, 0.5875, 1.3725, 0.685],
  "SoftwareVersions": "syngo_MR_E11",
  "SpacingBetweenSlices": 2,
  "StationName": "MRC35049",
  "TaskName": "wm",
  "TotalReadoutTime": 0.0576811,
  "TxRefAmp": 250.382,
  "WipMemBlock": "7ad2c62d-1a3a-45af-92a5-cc6d99de2a2e||Sequence: R016 ve11c/master r/e634e98; Dec 19 2017 11:00:25 by eja",
  "dcmmeta_affine": [
    [-1.9988709688186646, 0.06665866076946259, -0.008466411381959915, 100.09874725341797],
    [0.06237412989139557, 1.7469762563705444, -0.9716909527778625, -64.89346313476562],
    [0.024990499019622803, 0.9714064002037048, 1.748068928718567, -95.94461822509766],
    [0.0, 0.0, 0.0, 1.0]
],
  "dcmmeta_reorient_transform": [
    [0.0, -1.0, 0.0, 103.0],
    [1.0, 0.0, 0.0, 0.0],
    [0.0, 0.0, 1.0, 0.0],
    [0.0, 0.0, 0.0, 1.0]
],
  "dcmmeta_shape": [104, 104, 60, 202],
  "dcmmeta_slice_dim": 2,
  "dcmmeta_version": 0.6,
  "global": {
    "const": {
      "AcquisitionMatrix": [104, 0, 0, 104],
      "AngioFlag": "N",
      "BitsAllocated": 16,
      "BitsStored": 16,
      "BodyPartExamined": "BRAIN",
      "Columns": 832,
      "EchoNumbers": 1,
      "EchoTime": 37.0,
      "EchoTrainLength": 104,
      "FlipAngle": 52.0,
      "HighBit": 15,
      "ImageOrientationPatient": [0.99943545849926, -0.0311870652526, 0.0124952493094, 0.03332933039788, 0.87348814832386, -0.4857032123355],
      "ImagePositionPatient": [-858.81735822643, -728.24028663772, 348.6056393124],
      "ImageType": [
        "ORIGINAL",
        "PRIMARY",
        "M",
        "MB",
        "ND",
        "MOSAIC"
],
      "ImagedNucleus": "1H",
      "ImagingFrequency": 123.259259,
      "InPlanePhaseEncodingDirection": "COL",
      "MRAcquisitionType": "2D",
      "MagneticFieldStrength": 3.0,
      "Manufacturer": "SIEMENS",
      "ManufacturerModelName": "Prisma_fit",
      "Modality": "MR",
      "NumberOfAverages": 1.0,
      "NumberOfPhaseEncodingSteps": 104,
      "PercentPhaseFieldOfView": 100.0,
      "PercentSampling": 100.0,
      "PerformedProcedureStepStartTime": "155138.487000",
      "PhotometricInterpretation": "MONOCHROME2",
      "PixelBandwidth": 2290.0,
      "PixelRepresentation": 0,
      "PixelSpacing": [2.0, 2.0],
      "ProtocolName": "func_task-wm_run-1",
      "RepetitionTime": 1490.0,
      "Rows": 832,
      "SAR": 0.03760679492909,
      "SamplesPerPixel": 1,
      "ScanOptions": "FS",
      "ScanningSequence": "EP",
      "SequenceName": "epfid2d1_104",
      "SequenceVariant": [
        "SK",
        "SS"
],
      "SeriesDescription": "func_task-wm_run-1",
      "SeriesNumber": 21,
      "SeriesTime": "162431.437000",
      "SliceLocation": -52.754449615608,
      "SliceThickness": 2.0,
      "SmallestImagePixelValue": 0,
      "SoftwareVersions": "syngo MR E11",
      "SpacingBetweenSlices": 1.9999999635222,
      "SpecificCharacterSet": "ISO_IR 100",
      "StudyID": "1",
      "StudyTime": "155138.434000",
      "TransmitCoilName": "Body",
      "VariableFlipAngleFlag": "N",
      "WindowCenterWidthExplanation": "Algo1",
      "dBdt": 0.0},
    "slices": {}
  },
  "time": {
    "samples": {
      "AcquisitionNumber": [1, 2, 3, 4, 5, 6, 7, 8, 9, 10, 11, 12, 13, 14, 15, 16, 17, 18, 19, 20, 21, 22, 23, 24, 25, 26, 27, 28, 29, 30, 31, 32, 33, 34, 35, 36, 37, 38, 39, 40, 41, 42, 43, 44, 45, 46, 47, 48, 49, 50, 51, 52, 53, 54, 55, 56, 57, 58, 59, 60, 61, 62, 63, 64, 65, 66, 67, 68, 69, 70, 71, 72, 73, 74, 75, 76, 77, 78, 79, 80, 81, 82, 83, 84, 85, 86, 87, 88, 89, 90, 91, 92, 93, 94, 95, 96, 97, 98, 99, 100, 101, 102, 103, 104, 105, 106, 107, 108, 109, 110, 111, 112, 113, 114, 115, 116, 117, 118, 119, 120, 121, 122, 123, 124, 125, 126, 127, 128, 129, 130, 131, 132, 133, 134, 135, 136, 137, 138, 139, 140, 141, 142, 143, 144, 145, 146, 147, 148, 149, 150, 151, 152, 153, 154, 155, 156, 157, 158, 159, 160, 161, 162, 163, 164, 165, 166, 167, 168, 169, 170, 171, 172, 173, 174, 175, 176, 177, 178, 179, 180, 181, 182, 183, 184, 185, 186, 187, 188, 189, 190, 191, 192, 193, 194, 195, 196, 197, 198, 199, 200, 201, 202],
      "AcquisitionTime": ["162315.510000", "162317.000000", "162318.490000", "162319.980000", "162321.470000", "162322.960000", "162324.450000", "162325.940000", "162327.430000", "162328.920000", "162330.410000", "162331.900000", "162333.390000", "162334.880000", "162336.370000", "162337.860000", "162339.350000", "162340.840000", "162342.330000", "162343.820000", "162345.310000", "162346.800000", "162348.290000", "162349.780000", "162351.270000", "162352.760000", "162354.250000", "162355.740000", "162357.230000", "162358.720000", "162400.210000", "162401.700000", "162403.190000", "162404.680000", "162406.170000", "162407.660000", "162409.150000", "162410.640000", "162412.130000", "162413.620000", "162415.110000", "162416.600000", "162418.090000", "162419.580000", "162421.070000", "162422.560000", "162424.050000", "162425.540000", "162427.030000", "162428.520000", "162430.010000", "162431.500000", "162432.990000", "162434.480000", "162435.970000", "162437.460000", "162438.950000", "162440.440000", "162441.930000", "162443.420000", "162444.910000", "162446.400000", "162447.890000", "162449.380000", "162450.870000", "162452.360000", "162453.850000", "162455.340000", "162456.830000", "162458.320000", "162459.810000", "162501.300000", "162502.790000", "162504.280000", "162505.770000", "162507.260000", "162508.750000", "162510.240000", "162511.730000", "162513.220000", "162514.710000", "162516.200000", "162517.690000", "162519.180000", "162520.670000", "162522.160000", "162523.650000", "162525.140000", "162526.630000", "162528.120000", "162529.610000", "162531.100000", "162532.590000", "162534.080000", "162535.570000", "162537.060000", "162538.550000", "162540.040000", "162541.530000", "162543.020000", "162544.510000", "162546.000000", "162547.490000", "162548.980000", "162550.470000", "162551.960000", "162553.450000", "162554.940000", "162556.430000", "162557.920000", "162559.410000", "162600.900000", "162602.390000", "162603.880000", "162605.370000", "162606.860000", "162608.350000", "162609.840000", "162611.330000", "162612.820000", "162614.310000", "162615.800000", "162617.290000", "162618.780000", "162620.270000", "162621.760000", "162623.250000", "162624.740000", "162626.230000", "162627.720000", "162629.210000", "162630.700000", "162632.190000", "162633.680000", "162635.170000", "162636.660000", "162638.150000", "162639.640000", "162641.130000", "162642.620000", "162644.110000", "162645.600000", "162647.090000", "162648.580000", "162650.070000", "162651.560000", "162653.050000", "162654.540000", "162656.030000", "162657.520000", "162659.010000", "162700.500000", "162701.990000", "162703.480000", "162704.970000", "162706.460000", "162707.950000", "162709.440000", "162710.930000", "162712.420000", "162713.910000", "162715.400000", "162716.890000", "162718.380000", "162719.870000", "162721.360000", "162722.850000", "162724.340000", "162725.830000", "162727.320000", "162728.810000", "162730.300000", "162731.790000", "162733.280000", "162734.770000", "162736.260000", "162737.750000", "162739.240000", "162740.730000", "162742.220000", "162743.710000", "162745.200000", "162746.690000", "162748.180000", "162749.670000", "162751.160000", "162752.650000", "162754.140000", "162755.630000", "162757.120000", "162758.610000", "162800.100000", "162801.590000", "162803.080000", "162804.570000", "162806.060000", "162807.550000", "162809.040000", "162810.530000", "162812.020000", "162813.510000", "162815.000000"],
      "ContentTime": ["162431.440000", "162431.443000", "162431.446000", "162431.454000", "162431.457000", "162431.460000", "162431.468000", "162431.471000", "162431.474000", "162431.477000", "162431.480000", "162431.482000", "162431.485000", "162431.488000", "162431.498000", "162431.501000", "162431.504000", "162431.507000", "162431.510000", "162431.513000", "162431.515000", "162431.518000", "162451.402000", "162451.405000", "162451.408000", "162451.411000", "162451.414000", "162451.417000", "162451.420000", "162451.422000", "162451.425000", "162451.428000", "162451.431000", "162451.434000", "162451.437000", "162451.439000", "162451.442000", "162451.445000", "162451.448000", "162451.451000", "162451.454000", "162451.457000", "162511.402000", "162511.405000", "162511.408000", "162511.423000", "162511.426000", "162511.429000", "162511.432000", "162511.435000", "162511.437000", "162511.440000", "162511.443000", "162511.446000", "162511.449000", "162511.452000", "162511.455000", "162511.458000", "162511.460000", "162511.463000", "162511.466000", "162511.469000", "162531.402000", "162531.405000", "162531.408000", "162531.411000", "162531.413000", "162531.416000", "162531.419000", "162531.422000", "162531.425000", "162531.428000", "162531.431000", "162531.434000", "162531.436000", "162531.439000", "162531.442000", "162531.445000", "162531.448000", "162531.451000", "162531.455000", "162531.458000", "162551.402000", "162551.405000", "162551.408000", "162551.410000", "162551.414000", "162551.416000", "162551.419000", "162551.422000", "162551.425000", "162551.428000", "162551.431000", "162551.434000", "162551.437000", "162551.440000", "162551.442000", "162551.445000", "162551.448000", "162551.451000", "162551.454000", "162551.457000", "162551.460000", "162631.403000", "162631.406000", "162631.409000", "162631.412000", "162631.415000", "162631.418000", "162631.420000", "162631.423000", "162631.429000", "162631.432000", "162631.435000", "162631.438000", "162631.441000", "162631.444000", "162631.447000", "162631.450000", "162631.453000", "162631.455000", "162631.458000", "162631.461000", "162631.464000", "162631.467000", "162631.470000", "162631.472000", "162631.475000", "162631.478000", "162631.481000", "162631.484000", "162711.402000", "162711.405000", "162711.408000", "162711.411000", "162711.415000", "162711.417000", "162711.420000", "162711.423000", "162711.426000", "162711.429000", "162711.432000", "162711.435000", "162711.437000", "162711.440000", "162711.443000", "162711.446000", "162711.449000", "162711.452000", "162711.455000", "162711.458000", "162711.461000", "162711.464000", "162711.466000", "162711.469000", "162711.472000", "162711.475000", "162751.402000", "162751.405000", "162751.408000", "162751.411000", "162751.420000", "162751.423000", "162751.426000", "162751.429000", "162751.431000", "162751.434000", "162751.437000", "162751.440000", "162751.443000", "162751.446000", "162751.449000", "162751.452000", "162751.454000", "162751.457000", "162751.460000", "162751.463000", "162751.466000", "162751.469000", "162751.472000", "162751.474000", "162751.477000", "162751.480000", "162751.483000", "162817.036000", "162817.039000", "162817.042000", "162817.045000", "162817.054000", "162817.056000", "162817.059000", "162817.062000", "162817.065000", "162817.068000", "162817.071000", "162817.085000", "162817.096000", "162817.099000", "162817.102000", "162817.105000", "162817.108000", "162817.111000"],
      "InstanceCreationTime": ["162431.440000", "162431.443000", "162431.446000", "162431.454000", "162431.457000", "162431.460000", "162431.468000", "162431.471000", "162431.474000", "162431.477000", "162431.480000", "162431.482000", "162431.485000", "162431.488000", "162431.498000", "162431.501000", "162431.504000", "162431.507000", "162431.510000", "162431.513000", "162431.515000", "162431.518000", "162451.402000", "162451.405000", "162451.408000", "162451.411000", "162451.414000", "162451.417000", "162451.420000", "162451.422000", "162451.425000", "162451.428000", "162451.431000", "162451.434000", "162451.437000", "162451.439000", "162451.442000", "162451.445000", "162451.448000", "162451.451000", "162451.454000", "162451.457000", "162511.402000", "162511.405000", "162511.408000", "162511.423000", "162511.426000", "162511.429000", "162511.432000", "162511.435000", "162511.437000", "162511.440000", "162511.443000", "162511.446000", "162511.449000", "162511.452000", "162511.455000", "162511.458000", "162511.460000", "162511.463000", "162511.466000", "162511.469000", "162531.402000", "162531.405000", "162531.408000", "162531.411000", "162531.413000", "162531.416000", "162531.419000", "162531.422000", "162531.425000", "162531.428000", "162531.431000", "162531.434000", "162531.436000", "162531.439000", "162531.442000", "162531.445000", "162531.448000", "162531.451000", "162531.455000", "162531.458000", "162551.402000", "162551.405000", "162551.408000", "162551.410000", "162551.414000", "162551.416000", "162551.419000", "162551.422000", "162551.425000", "162551.428000", "162551.431000", "162551.434000", "162551.437000", "162551.440000", "162551.442000", "162551.445000", "162551.448000", "162551.451000", "162551.454000", "162551.457000", "162551.460000", "162631.403000", "162631.406000", "162631.409000", "162631.412000", "162631.415000", "162631.418000", "162631.420000", "162631.423000", "162631.429000", "162631.432000", "162631.435000", "162631.438000", "162631.441000", "162631.444000", "162631.447000", "162631.450000", "162631.453000", "162631.455000", "162631.458000", "162631.461000", "162631.464000", "162631.467000", "162631.470000", "162631.472000", "162631.475000", "162631.478000", "162631.481000", "162631.484000", "162711.402000", "162711.405000", "162711.408000", "162711.411000", "162711.415000", "162711.417000", "162711.420000", "162711.423000", "162711.426000", "162711.429000", "162711.432000", "162711.435000", "162711.437000", "162711.440000", "162711.443000", "162711.446000", "162711.449000", "162711.452000", "162711.455000", "162711.458000", "162711.461000", "162711.464000", "162711.466000", "162711.469000", "162711.472000", "162711.475000", "162751.402000", "162751.405000", "162751.408000", "162751.411000", "162751.420000", "162751.423000", "162751.426000", "162751.429000", "162751.431000", "162751.434000", "162751.437000", "162751.440000", "162751.443000", "162751.446000", "162751.449000", "162751.452000", "162751.454000", "162751.457000", "162751.460000", "162751.463000", "162751.466000", "162751.469000", "162751.472000", "162751.474000", "162751.477000", "162751.480000", "162751.483000", "162817.036000", "162817.039000", "162817.042000", "162817.045000", "162817.054000", "162817.056000", "162817.059000", "162817.062000", "162817.065000", "162817.068000", "162817.071000", "162817.085000", "162817.096000", "162817.099000", "162817.102000", "162817.105000", "162817.108000", "162817.111000"],
      "InstanceNumber": [1, 2, 3, 4, 5, 6, 7, 8, 9, 10, 11, 12, 13, 14, 15, 16, 17, 18, 19, 20, 21, 22, 23, 24, 25, 26, 27, 28, 29, 30, 31, 32, 33, 34, 35, 36, 37, 38, 39, 40, 41, 42, 43, 44, 45, 46, 47, 48, 49, 50, 51, 52, 53, 54, 55, 56, 57, 58, 59, 60, 61, 62, 63, 64, 65, 66, 67, 68, 69, 70, 71, 72, 73, 74, 75, 76, 77, 78, 79, 80, 81, 82, 83, 84, 85, 86, 87, 88, 89, 90, 91, 92, 93, 94, 95, 96, 97, 98, 99, 100, 101, 102, 103, 104, 105, 106, 107, 108, 109, 110, 111, 112, 113, 114, 115, 116, 117, 118, 119, 120, 121, 122, 123, 124, 125, 126, 127, 128, 129, 130, 131, 132, 133, 134, 135, 136, 137, 138, 139, 140, 141, 142, 143, 144, 145, 146, 147, 148, 149, 150, 151, 152, 153, 154, 155, 156, 157, 158, 159, 160, 161, 162, 163, 164, 165, 166, 167, 168, 169, 170, 171, 172, 173, 174, 175, 176, 177, 178, 179, 180, 181, 182, 183, 184, 185, 186, 187, 188, 189, 190, 191, 192, 193, 194, 195, 196, 197, 198, 199, 200, 201, 202],
      "LargestImagePixelValue": [48884, 48292, 46858, 46523, 46488, 46338, 46214, 46111, 46002, 45118, 45912, 44773, 45044, 45116, 45283, 45210, 45024, 45604, 44738, 45049, 45225, 44584, 45556, 45056, 45239, 45278, 44984, 45755, 45308, 44892, 45240, 44625, 45084, 44609, 45413, 45434, 45116, 45248, 44887, 45607, 45105, 45322, 45411, 44904, 45583, 45363, 46161, 45119, 45961, 45162, 45608, 45251, 45107, 45629, 44981, 44969, 45365, 45025, 44902, 45248, 44866, 45329, 44916, 45596, 45299, 45248, 45425, 45096, 45499, 45549, 45384, 45685, 45259, 45484, 44877, 45386, 45084, 44578, 45105, 44862, 45140, 45255, 44953, 44868, 45238, 45147, 44948, 44782, 44678, 44762, 44826, 44505, 44880, 44724, 44405, 44708, 44783, 44445, 45034, 44745, 45083, 45222, 44814, 44746, 45017, 44760, 44822, 44680, 44423, 44788, 44567, 44513, 45193, 44395, 44724, 44699, 44804, 44369, 44825, 44846, 44735, 44632, 44679, 45009, 44703, 44538, 44356, 44760, 44758, 44696, 44517, 44888, 44295, 44762, 44308, 44916, 44520, 44185, 44290, 44435, 44693, 44105, 45070, 44725, 44695, 44443, 44407, 44579, 44668, 44711, 44386, 44423, 44366, 44325, 44358, 44368, 44294, 44257, 44569, 44362, 44680, 44416, 44178, 44203, 44375, 44509, 44141, 44300, 43943, 44536, 44337, 44322, 43939, 44381, 44529, 44648, 44038, 44030, 44124, 44393, 44452, 44154, 44198, 43921, 44435, 44066, 43988, 44132, 43944, 44291, 43888, 44340, 46165, 47042, 46979, 45253, 44579, 44520, 44144, 44415, 44506, 44773],
      "WindowCenter": [11256.0, 11192.0, 11156.0, 11159.0, 11167.0, 11166.0, 11151.0, 11141.0, 11137.0, 11137.0, 11156.0, 11149.0, 11146.0, 11140.0, 11141.0, 11132.0, 11136.0, 11141.0, 11138.0, 11141.0, 11144.0, 11141.0, 11153.0, 11146.0, 11137.0, 11131.0, 11127.0, 11134.0, 11140.0, 11144.0, 11152.0, 11144.0, 11148.0, 11138.0, 11142.0, 11145.0, 11150.0, 11154.0, 11140.0, 11141.0, 11122.0, 11132.0, 11140.0, 11138.0, 11142.0, 11134.0, 11130.0, 11110.0, 11115.0, 11118.0, 11120.0, 11118.0, 11113.0, 11120.0, 11127.0, 11129.0, 11125.0, 11110.0, 11095.0, 11104.0, 11117.0, 11148.0, 11155.0, 11155.0, 11143.0, 11129.0, 11125.0, 11120.0, 11134.0, 11128.0, 11131.0, 11123.0, 11121.0, 11124.0, 11111.0, 11124.0, 11126.0, 11124.0, 11125.0, 11117.0, 11123.0, 11124.0, 11127.0, 11136.0, 11133.0, 11125.0, 11111.0, 11109.0, 11109.0, 11118.0, 11129.0, 11123.0, 11129.0, 11113.0, 11115.0, 11104.0, 11106.0, 11110.0, 11109.0, 11095.0, 11099.0, 11093.0, 11103.0, 11108.0, 11106.0, 11094.0, 11090.0, 11098.0, 11117.0, 11131.0, 11139.0, 11133.0, 11134.0, 11125.0, 11121.0, 11124.0, 11119.0, 11116.0, 11120.0, 11119.0, 11108.0, 11103.0, 11116.0, 11124.0, 11127.0, 11114.0, 11110.0, 11117.0, 11118.0, 11120.0, 11108.0, 11102.0, 11089.0, 11111.0, 11117.0, 11127.0, 11114.0, 11102.0, 11090.0, 11085.0, 11098.0, 11104.0, 11127.0, 11126.0, 11116.0, 11098.0, 11086.0, 11085.0, 11101.0, 11118.0, 11115.0, 11116.0, 11105.0, 11094.0, 11093.0, 11092.0, 11095.0, 11106.0, 11121.0, 11118.0, 11115.0, 11107.0, 11108.0, 11110.0, 11115.0, 11133.0, 11125.0, 11118.0, 11115.0, 11118.0, 11124.0, 11124.0, 11117.0, 11121.0, 11121.0, 11120.0, 11126.0, 11124.0, 11125.0, 11124.0, 11123.0, 11124.0, 11131.0, 11125.0, 11123.0, 11106.0, 11100.0, 11098.0, 11098.0, 11108.0, 11120.0, 11119.0, 11144.0, 11142.0, 11094.0, 11036.0, 11026.0, 11061.0, 11086.0, 11105.0, 11097.0, 11101.0],
      "WindowWidth": [24271.0, 24086.0, 23986.0, 23981.0, 23991.0, 23985.0, 23950.0, 23924.0, 23913.0, 23916.0, 23958.0, 23944.0, 23936.0, 23926.0, 23921.0, 23903.0, 23910.0, 23921.0, 23917.0, 23930.0, 23932.0, 23929.0, 23956.0, 23937.0, 23917.0, 23909.0, 23894.0, 23910.0, 23920.0, 23933.0, 23948.0, 23944.0, 23952.0, 23922.0, 23930.0, 23935.0, 23947.0, 23961.0, 23926.0, 23923.0, 23879.0, 23899.0, 23918.0, 23915.0, 23924.0, 23907.0, 23893.0, 23853.0, 23863.0, 23873.0, 23877.0, 23869.0, 23856.0, 23869.0, 23885.0, 23889.0, 23878.0, 23846.0, 23811.0, 23829.0, 23866.0, 23936.0, 23955.0, 23955.0, 23923.0, 23892.0, 23881.0, 23873.0, 23907.0, 23892.0, 23895.0, 23877.0, 23883.0, 23888.0, 23851.0, 23880.0, 23884.0, 23887.0, 23880.0, 23864.0, 23879.0, 23879.0, 23889.0, 23916.0, 23903.0, 23881.0, 23850.0, 23847.0, 23845.0, 23867.0, 23893.0, 23881.0, 23896.0, 23855.0, 23867.0, 23833.0, 23839.0, 23848.0, 23846.0, 23812.0, 23817.0, 23806.0, 23827.0, 23841.0, 23835.0, 23809.0, 23799.0, 23815.0, 23865.0, 23898.0, 23916.0, 23906.0, 23903.0, 23893.0, 23876.0, 23880.0, 23870.0, 23864.0, 23870.0, 23874.0, 23842.0, 23828.0, 23854.0, 23872.0, 23890.0, 23854.0, 23843.0, 23858.0, 23862.0, 23865.0, 23842.0, 23826.0, 23799.0, 23851.0, 23866.0, 23883.0, 23856.0, 23838.0, 23803.0, 23787.0, 23816.0, 23833.0, 23883.0, 23886.0, 23858.0, 23818.0, 23789.0, 23785.0, 23824.0, 23861.0, 23856.0, 23855.0, 23829.0, 23804.0, 23804.0, 23799.0, 23807.0, 23833.0, 23865.0, 23866.0, 23858.0, 23838.0, 23841.0, 23845.0, 23855.0, 23904.0, 23884.0, 23865.0, 23860.0, 23863.0, 23875.0, 23874.0, 23861.0, 23869.0, 23868.0, 23865.0, 23892.0, 23877.0, 23881.0, 23876.0, 23873.0, 23880.0, 23891.0, 23881.0, 23871.0, 23836.0, 23823.0, 23815.0, 23819.0, 23837.0, 23872.0, 23865.0, 23921.0, 23922.0, 23805.0, 23673.0, 23647.0, 23733.0, 23788.0, 23832.0, 23807.0, 23812.0]
    },
    "slices": {}
  }
}