{
  "AcquisitionMatrixPE": 104,
  "AcquisitionNumber": 1,
  "AcquisitionTime": "16:14:47.297500",
  "BandwidthPerPixelPhaseEncode": 17.17,
  "BaseResolution": 104,
  "BodyPartExamined": "BRAIN",
  "CoilString": "HC1-7;NC1_2",
  "ConsistencyInfo": "N4_VE11C_LATEST_20160120",
  "ConversionSoftware": "dcm2niix",
  "ConversionSoftwareVersion": "v1.0.20190720  (JP2:OpenJPEG) GCC7.3.0",
  "DerivedVendorReportedEchoSpacing": 0.000560011,
  "DeviceSerialNumber": "167006",
  "DwellTime": 2.1e-06,
  "EchoTime": 0.037,
  "EchoTrainLength": 104,
  "EffectiveEchoSpacing": 0.000560011,
  "FlipAngle": 52,
  "ImageComments": "Unaliased_MB4_PE3_LB",
  "ImageOrientationPatientDICOM": [0.999435, -0.0311871, 0.0124952, 0.0333293, 0.873488, -0.485703],
  "ImageType": [
    "ORIGINAL",
    "PRIMARY",
    "M",
    "MB",
    "ND",
    "MOSAIC"
],
  "ImagingFrequency": 123.259,
  "InPlanePhaseEncodingDirectionDICOM": "COL",
  "InstitutionAddress": "Chemin_Queen-Mary_4565_Montreal_District_CA_H3W_1W5",
  "InstitutionName": "IUGM",
  "InstitutionalDepartmentName": "Department",
  "MRAcquisitionType": "2D",
  "MagneticFieldStrength": 3,
  "Manufacturer": "Siemens",
  "ManufacturersModelName": "Prisma_fit",
  "Modality": "MR",
  "MultibandAccelerationFactor": 4,
  "PartialFourier": 1,
  "PatientPosition": "HFS",
  "PercentPhaseFOV": 100,
  "PhaseEncodingDirection": "j",
  "PhaseEncodingSteps": 104,
  "PhaseResolution": 1,
  "PixelBandwidth": 2290,
  "ProcedureStepDescription": "hcptrt_generic",
  "ProtocolName": "func_task-relational_run-1",
  "PulseSequenceDetails": "%CustomerSeq%_cmrr_mbep2d_bold",
  "ReceiveCoilActiveElements": "HC1-7;NC1,2",
  "ReceiveCoilName": "HeadNeck_64",
  "ReconMatrixPE": 104,
  "RepetitionTime": 1.49,
  "SAR": 0.0373643,
  "ScanOptions": "FS",
  "ScanningSequence": "EP",
  "SequenceName": "epfid2d1_104",
  "SequenceVariant": "SK_SS",
  "SeriesDescription": "func_task-relational_run-1",
  "SeriesNumber": 17,
  "ShimSetting": [626, -7200, -8866, 427, 10, -163, 24, -21],
  "SliceThickness": 2,
  "SliceTiming": [0, 0.7825, 0.0975, 0.8825, 0.195, 0.98, 0.2925, 1.0775, 0.3925, 1.175, 0.49, 1.2725, 0.5875, 1.3725, 0.685, 0, 0.7825, 0.0975, 0.8825, 0.195, 0.98, 0.2925, 1.0775, 0.3925, 1.175, 0.49, 1.2725, 0.5875, 1.3725, 0.685, 0, 0.7825, 0.0975, 0.8825, 0.195, 0.98, 0.2925, 1.0775, 0.3925, 1.175, 0.49, 1.2725, 0.5875, 1.3725, 0.685, 0, 0.7825, 0.0975, 0.8825, 0.195, 0.98, 0.2925, 1.0775, 0.3925, 1.175, 0.49, 1.2725, 0.5875, 1.3725, 0.685],
  "SoftwareVersions": "syngo_MR_E11",
  "SpacingBetweenSlices": 2,
  "StationName": "MRC35049",
  "TaskName": "relational",
  "TotalReadoutTime": 0.0576811,
  "TxRefAmp": 250.382,
  "WipMemBlock": "4d6cc28c-992b-4285-a66d-c62a0ba9a500||Sequence: R016 ve11c/master r/e634e98; Dec 19 2017 11:00:25 by eja",
  "dcmmeta_affine": [
    [-1.9988709688186646, 0.06665866076946259, -0.008466411381959915, 100.09874725341797],
    [0.06237412989139557, 1.7469762563705444, -0.9716909527778625, -64.89346313476562],
    [0.024990499019622803, 0.9714064002037048, 1.748068928718567, -95.94461822509766],
    [0.0, 0.0, 0.0, 1.0]
],
  "dcmmeta_reorient_transform": [
    [0.0, -1.0, 0.0, 103.0],
    [1.0, 0.0, 0.0, 0.0],
    [0.0, 0.0, 1.0, 0.0],
    [0.0, 0.0, 0.0, 1.0]
],
  "dcmmeta_shape": [104, 104, 60, 119],
  "dcmmeta_slice_dim": 2,
  "dcmmeta_version": 0.6,
  "global": {
    "const": {
      "AcquisitionMatrix": [104, 0, 0, 104],
      "AngioFlag": "N",
      "BitsAllocated": 16,
      "BitsStored": 16,
      "BodyPartExamined": "BRAIN",
      "Columns": 832,
      "EchoNumbers": 1,
      "EchoTime": 37.0,
      "EchoTrainLength": 104,
      "FlipAngle": 52.0,
      "HighBit": 15,
      "ImageOrientationPatient": [0.99943545849926, -0.0311870652526, 0.0124952493094, 0.03332933039788, 0.87348814832386, -0.4857032123355],
      "ImagePositionPatient": [-858.81735822643, -728.24028663772, 348.6056393124],
      "ImageType": [
        "ORIGINAL",
        "PRIMARY",
        "M",
        "MB",
        "ND",
        "MOSAIC"
],
      "ImagedNucleus": "1H",
      "ImagingFrequency": 123.259255,
      "InPlanePhaseEncodingDirection": "COL",
      "MRAcquisitionType": "2D",
      "MagneticFieldStrength": 3.0,
      "Manufacturer": "SIEMENS",
      "ManufacturerModelName": "Prisma_fit",
      "Modality": "MR",
      "NumberOfAverages": 1.0,
      "NumberOfPhaseEncodingSteps": 104,
      "PercentPhaseFieldOfView": 100.0,
      "PercentSampling": 100.0,
      "PerformedProcedureStepStartTime": "155138.487000",
      "PhotometricInterpretation": "MONOCHROME2",
      "PixelBandwidth": 2290.0,
      "PixelRepresentation": 0,
      "PixelSpacing": [2.0, 2.0],
      "ProtocolName": "func_task-relational_run-1",
      "RepetitionTime": 1490.0,
      "Rows": 832,
      "SAR": 0.03736428589702,
      "SamplesPerPixel": 1,
      "ScanOptions": "FS",
      "ScanningSequence": "EP",
      "SequenceName": "epfid2d1_104",
      "SequenceVariant": [
        "SK",
        "SS"
],
      "SeriesDescription": "func_task-relational_run-1",
      "SeriesNumber": 17,
      "SeriesTime": "161606.863000",
      "SliceLocation": -52.754449615608,
      "SliceThickness": 2.0,
      "SmallestImagePixelValue": 0,
      "SoftwareVersions": "syngo MR E11",
      "SpacingBetweenSlices": 1.9999999635222,
      "SpecificCharacterSet": "ISO_IR 100",
      "StudyID": "1",
      "StudyTime": "155138.434000",
      "TransmitCoilName": "Body",
      "VariableFlipAngleFlag": "N",
      "WindowCenterWidthExplanation": "Algo1",
      "dBdt": 0.0},
    "slices": {}
  },
  "time": {
    "samples": {
      "AcquisitionNumber": [1, 2, 3, 4, 5, 6, 7, 8, 9, 10, 11, 12, 13, 14, 15, 16, 17, 18, 19, 20, 21, 22, 23, 24, 25, 26, 27, 28, 29, 30, 31, 32, 33, 34, 35, 36, 37, 38, 39, 40, 41, 42, 43, 44, 45, 46, 47, 48, 49, 50, 51, 52, 53, 54, 55, 56, 57, 58, 59, 60, 61, 62, 63, 64, 65, 66, 67, 68, 69, 70, 71, 72, 73, 74, 75, 76, 77, 78, 79, 80, 81, 82, 83, 84, 85, 86, 87, 88, 89, 90, 91, 92, 93, 94, 95, 96, 97, 98, 99, 100, 101, 102, 103, 104, 105, 106, 107, 108, 109, 110, 111, 112, 113, 114, 115, 116, 117, 118, 119],
      "AcquisitionTime": ["161447.297500", "161448.787500", "161450.277500", "161451.767500", "161453.257500", "161454.747500", "161456.237500", "161457.727500", "161459.217500", "161500.707500", "161502.197500", "161503.687500", "161505.177500", "161506.667500", "161508.157500", "161509.647500", "161511.137500", "161512.627500", "161514.117500", "161515.607500", "161517.097500", "161518.587500", "161520.077500", "161521.567500", "161523.057500", "161524.547500", "161526.037500", "161527.527500", "161529.017500", "161530.507500", "161531.997500", "161533.487500", "161534.977500", "161536.467500", "161537.957500", "161539.447500", "161540.937500", "161542.427500", "161543.917500", "161545.407500", "161546.897500", "161548.387500", "161549.877500", "161551.367500", "161552.857500", "161554.347500", "161555.837500", "161557.327500", "161558.817500", "161600.307500", "161601.797500", "161603.287500", "161604.777500", "161606.267500", "161607.757500", "161609.247500", "161610.737500", "161612.227500", "161613.717500", "161615.207500", "161616.697500", "161618.187500", "161619.677500", "161621.167500", "161622.657500", "161624.147500", "161625.637500", "161627.127500", "161628.617500", "161630.107500", "161631.597500", "161633.087500", "161634.577500", "161636.067500", "161637.557500", "161639.047500", "161640.537500", "161642.027500", "161643.517500", "161645.007500", "161646.497500", "161647.987500", "161649.477500", "161650.967500", "161652.457500", "161653.947500", "161655.437500", "161656.927500", "161658.417500", "161659.907500", "161701.397500", "161702.887500", "161704.377500", "161705.867500", "161707.357500", "161708.847500", "161710.337500", "161711.827500", "161713.317500", "161714.807500", "161716.297500", "161717.787500", "161719.277500", "161720.767500", "161722.257500", "161723.747500", "161725.237500", "161726.727500", "161728.217500", "161729.707500", "161731.197500", "161732.687500", "161734.177500", "161735.667500", "161737.157500", "161738.647500", "161740.137500", "161741.627500", "161743.117500"],
      "ContentTime": ["161606.866000", "161606.869000", "161606.872000", "161606.875000", "161606.878000", "161606.881000", "161606.883000", "161606.886000", "161606.893000", "161606.904000", "161606.906000", "161606.909000", "161606.912000", "161606.915000", "161606.921000", "161606.924000", "161606.927000", "161606.930000", "161606.933000", "161606.936000", "161606.938000", "161606.941000", "161606.944000", "161606.947000", "161606.950000", "161606.953000", "161606.956000", "161626.835000", "161626.838000", "161626.841000", "161626.849000", "161626.852000", "161626.855000", "161626.858000", "161626.861000", "161626.864000", "161626.867000", "161626.869000", "161626.872000", "161626.875000", "161626.878000", "161626.881000", "161626.884000", "161626.886000", "161626.889000", "161626.892000", "161626.895000", "161646.836000", "161646.840000", "161646.845000", "161646.848000", "161646.851000", "161646.854000", "161646.857000", "161646.860000", "161646.863000", "161646.865000", "161646.868000", "161646.871000", "161646.874000", "161646.877000", "161646.880000", "161646.883000", "161646.886000", "161646.889000", "161646.891000", "161646.894000", "161706.835000", "161706.838000", "161706.841000", "161706.844000", "161706.847000", "161706.849000", "161706.852000", "161706.856000", "161706.859000", "161706.862000", "161706.864000", "161706.868000", "161706.871000", "161706.873000", "161706.876000", "161706.886000", "161706.888000", "161706.891000", "161706.894000", "161706.897000", "161706.900000", "161745.133000", "161745.136000", "161745.140000", "161745.143000", "161745.154000", "161745.158000", "161745.161000", "161745.164000", "161745.167000", "161745.171000", "161745.175000", "161745.178000", "161745.181000", "161745.184000", "161745.191000", "161745.204000", "161745.208000", "161745.211000", "161745.214000", "161745.217000", "161745.220000", "161745.223000", "161745.226000", "161745.229000", "161745.232000", "161745.235000", "161745.238000", "161745.241000", "161745.244000", "161745.246000", "161745.249000"],
      "InstanceCreationTime": ["161606.866000", "161606.869000", "161606.872000", "161606.875000", "161606.878000", "161606.881000", "161606.883000", "161606.886000", "161606.893000", "161606.904000", "161606.906000", "161606.909000", "161606.912000", "161606.915000", "161606.921000", "161606.924000", "161606.927000", "161606.930000", "161606.933000", "161606.936000", "161606.938000", "161606.941000", "161606.944000", "161606.947000", "161606.950000", "161606.953000", "161606.956000", "161626.835000", "161626.838000", "161626.841000", "161626.849000", "161626.852000", "161626.855000", "161626.858000", "161626.861000", "161626.864000", "161626.867000", "161626.869000", "161626.872000", "161626.875000", "161626.878000", "161626.881000", "161626.884000", "161626.886000", "161626.889000", "161626.892000", "161626.895000", "161646.836000", "161646.840000", "161646.845000", "161646.848000", "161646.851000", "161646.854000", "161646.857000", "161646.860000", "161646.863000", "161646.865000", "161646.868000", "161646.871000", "161646.874000", "161646.877000", "161646.880000", "161646.883000", "161646.886000", "161646.889000", "161646.891000", "161646.894000", "161706.835000", "161706.838000", "161706.841000", "161706.844000", "161706.847000", "161706.849000", "161706.852000", "161706.856000", "161706.859000", "161706.862000", "161706.864000", "161706.868000", "161706.871000", "161706.873000", "161706.876000", "161706.886000", "161706.888000", "161706.891000", "161706.894000", "161706.897000", "161706.900000", "161745.133000", "161745.136000", "161745.140000", "161745.143000", "161745.154000", "161745.158000", "161745.161000", "161745.164000", "161745.167000", "161745.171000", "161745.175000", "161745.178000", "161745.181000", "161745.184000", "161745.191000", "161745.204000", "161745.208000", "161745.211000", "161745.214000", "161745.217000", "161745.220000", "161745.223000", "161745.226000", "161745.229000", "161745.232000", "161745.235000", "161745.238000", "161745.241000", "161745.244000", "161745.246000", "161745.249000"],
      "InstanceNumber": [1, 2, 3, 4, 5, 6, 7, 8, 9, 10, 11, 12, 13, 14, 15, 16, 17, 18, 19, 20, 21, 22, 23, 24, 25, 26, 27, 28, 29, 30, 31, 32, 33, 34, 35, 36, 37, 38, 39, 40, 41, 42, 43, 44, 45, 46, 47, 48, 49, 50, 51, 52, 53, 54, 55, 56, 57, 58, 59, 60, 61, 62, 63, 64, 65, 66, 67, 68, 69, 70, 71, 72, 73, 74, 75, 76, 77, 78, 79, 80, 81, 82, 83, 84, 85, 86, 87, 88, 89, 90, 91, 92, 93, 94, 95, 96, 97, 98, 99, 100, 101, 102, 103, 104, 105, 106, 107, 108, 109, 110, 111, 112, 113, 114, 115, 116, 117, 118, 119],
      "LargestImagePixelValue": [48374, 47184, 46679, 45381, 45781, 45265, 46008, 45140, 45565, 45070, 44977, 45195, 45429, 45522, 45455, 45554, 45320, 45420, 45273, 45056, 45730, 45271, 45418, 45569, 44608, 45989, 44805, 46022, 45041, 44857, 44797, 44621, 45040, 45004, 45508, 44730, 45394, 46345, 45806, 45958, 45693, 46247, 46372, 45599, 44999, 45419, 44950, 44804, 45184, 44987, 45113, 45035, 45103, 45371, 45420, 45234, 45494, 45196, 44745, 45288, 44902, 45520, 44768, 44933, 45140, 44523, 45357, 44361, 44765, 44530, 44634, 44268, 45148, 44896, 45363, 44940, 45525, 45082, 45456, 44333, 45000, 44694, 45441, 44313, 45107, 44830, 45372, 44650, 44316, 44734, 43846, 45041, 44081, 44477, 44302, 44144, 43775, 44627, 44054, 44720, 43959, 44499, 44200, 44336, 44488, 44201, 44534, 44288, 44962, 44363, 44963, 44744, 44525, 44392, 45469, 45386, 44942, 45499, 45989],
      "WindowCenter": [11329.0, 11271.0, 11262.0, 11246.0, 11242.0, 11227.0, 11219.0, 11206.0, 11223.0, 11224.0, 11234.0, 11243.0, 11242.0, 11241.0, 11230.0, 11227.0, 11234.0, 11235.0, 11236.0, 11236.0, 11233.0, 11206.0, 11197.0, 11192.0, 11191.0, 11225.0, 11218.0, 11229.0, 11208.0, 11201.0, 11199.0, 11207.0, 11217.0, 11216.0, 11213.0, 11191.0, 11192.0, 11193.0, 11186.0, 11184.0, 11178.0, 11187.0, 11191.0, 11183.0, 11177.0, 11187.0, 11177.0, 11185.0, 11204.0, 11211.0, 11219.0, 11205.0, 11196.0, 11191.0, 11199.0, 11192.0, 11199.0, 11201.0, 11190.0, 11182.0, 11174.0, 11183.0, 11185.0, 11186.0, 11185.0, 11170.0, 11189.0, 11195.0, 11205.0, 11200.0, 11191.0, 11177.0, 11176.0, 11163.0, 11164.0, 11159.0, 11181.0, 11179.0, 11173.0, 11161.0, 11166.0, 11169.0, 11180.0, 11175.0, 11192.0, 11187.0, 11198.0, 11181.0, 11173.0, 11178.0, 11159.0, 11183.0, 11192.0, 11209.0, 11199.0, 11190.0, 11180.0, 11192.0, 11177.0, 11180.0, 11176.0, 11174.0, 11174.0, 11177.0, 11174.0, 11176.0, 11171.0, 11162.0, 11169.0, 11164.0, 11169.0, 11175.0, 11169.0, 11165.0, 11176.0, 11165.0, 11174.0, 11200.0, 11217.0],
      "WindowWidth": [24458.0, 24291.0, 24245.0, 24198.0, 24184.0, 24145.0, 24119.0, 24092.0, 24139.0, 24134.0, 24159.0, 24183.0, 24177.0, 24176.0, 24148.0, 24140.0, 24166.0, 24158.0, 24166.0, 24170.0, 24162.0, 24090.0, 24073.0, 24059.0, 24059.0, 24137.0, 24120.0, 24146.0, 24094.0, 24084.0, 24076.0, 24095.0, 24118.0, 24118.0, 24113.0, 24060.0, 24061.0, 24058.0, 24042.0, 24035.0, 24024.0, 24047.0, 24051.0, 24035.0, 24021.0, 24042.0, 24022.0, 24042.0, 24094.0, 24101.0, 24121.0, 24090.0, 24072.0, 24056.0, 24082.0, 24059.0, 24072.0, 24078.0, 24057.0, 24035.0, 24018.0, 24038.0, 24041.0, 24046.0, 24045.0, 24010.0, 24050.0, 24069.0, 24094.0, 24084.0, 24060.0, 24025.0, 24020.0, 23996.0, 23993.0, 23983.0, 24031.0, 24024.0, 24009.0, 23985.0, 23995.0, 24007.0, 24027.0, 24020.0, 24060.0, 24049.0, 24069.0, 24032.0, 24014.0, 24033.0, 23987.0, 24037.0, 24060.0, 24103.0, 24075.0, 24059.0, 24034.0, 24058.0, 24023.0, 24029.0, 24023.0, 24015.0, 24015.0, 24018.0, 24014.0, 24019.0, 24011.0, 23988.0, 24000.0, 23991.0, 24000.0, 24014.0, 24002.0, 23990.0, 24013.0, 23991.0, 24019.0, 24076.0, 24115.0]
    },
    "slices": {}
  }
}