{
  "AcquisitionMatrixPE": 104,
  "AcquisitionNumber": 1,
  "AcquisitionTime": "10:01:26.795000",
  "BandwidthPerPixelPhaseEncode": 17.17,
  "BaseResolution": 104,
  "BodyPartExamined": "BRAIN",
  "CoilString": "HC1-7;NC1_2",
  "ConsistencyInfo": "N4_VE11C_LATEST_20160120",
  "ConversionSoftware": "dcm2niix",
  "ConversionSoftwareVersion": "v1.0.20190902",
  "DerivedVendorReportedEchoSpacing": 0.000560011,
  "DeviceSerialNumber": "167006",
  "DwellTime": 2.1e-06,
  "EchoTime": 0.037,
  "EchoTrainLength": 104,
  "EffectiveEchoSpacing": 0.000560011,
  "FlipAngle": 52,
  "ImageComments": "Unaliased_MB4_PE3_LB",
  "ImageOrientationPatientDICOM": [0.998779, -0.0492225, -0.00408105, 0.0448303, 0.938127, -0.343376],
  "ImageType": [
    "ORIGINAL",
    "PRIMARY",
    "M",
    "MB",
    "ND",
    "MOSAIC"
],
  "ImagingFrequency": 123.259,
  "InPlanePhaseEncodingDirectionDICOM": "COL",
  "InstitutionAddress": "Chemin_Queen-Mary_4565_Montreal_District_CA_H3W_1W5",
  "InstitutionName": "IUGM",
  "InstitutionalDepartmentName": "Department",
  "MRAcquisitionType": "2D",
  "MagneticFieldStrength": 3,
  "Manufacturer": "Siemens",
  "ManufacturersModelName": "Prisma_fit",
  "Modality": "MR",
  "MultibandAccelerationFactor": 4,
  "PartialFourier": 1,
  "PatientPosition": "HFS",
  "PercentPhaseFOV": 100,
  "PhaseEncodingDirection": "j",
  "PhaseEncodingSteps": 104,
  "PhaseResolution": 1,
  "PixelBandwidth": 2290,
  "ProcedureStepDescription": "hcptrt_generic",
  "ProtocolName": "func_task-gambling_run-2",
  "PulseSequenceDetails": "%CustomerSeq%_cmrr_mbep2d_bold",
  "ReceiveCoilActiveElements": "HC1-7;NC1,2",
  "ReceiveCoilName": "HeadNeck_64",
  "ReconMatrixPE": 104,
  "RepetitionTime": 1.49,
  "SAR": 0.0294094,
  "ScanOptions": "FS",
  "ScanningSequence": "EP",
  "SequenceName": "epfid2d1_104",
  "SequenceVariant": "SK_SS",
  "SeriesDescription": "func_task-gambling_run-2",
  "SeriesNumber": 25,
  "ShimSetting": [623, -7270, -8845, 641, -15, -275, 8, -5],
  "SliceThickness": 2,
  "SliceTiming": [0, 0.785, 0.1, 0.8825, 0.1975, 0.98, 0.295, 1.0775, 0.3925, 1.1775, 0.49, 1.275, 0.5875, 1.3725, 0.6875, 0, 0.785, 0.1, 0.8825, 0.1975, 0.98, 0.295, 1.0775, 0.3925, 1.1775, 0.49, 1.275, 0.5875, 1.3725, 0.6875, 0, 0.785, 0.1, 0.8825, 0.1975, 0.98, 0.295, 1.0775, 0.3925, 1.1775, 0.49, 1.275, 0.5875, 1.3725, 0.6875, 0, 0.785, 0.1, 0.8825, 0.1975, 0.98, 0.295, 1.0775, 0.3925, 1.1775, 0.49, 1.275, 0.5875, 1.3725, 0.6875],
  "SoftwareVersions": "syngo_MR_E11",
  "SpacingBetweenSlices": 2,
  "StationName": "MRC35049",
  "TaskName": "gambling",
  "TotalReadoutTime": 0.0576811,
  "TxRefAmp": 217.442,
  "WipMemBlock": "30f3ce9f-136c-45c0-82d1-23760457f274||Sequence: R016 ve11c/master r/e634e98; Dec 19 2017 11:00:25 by eja",
  "dcmmeta_affine": [
    [-1.9975589513778687, 0.0896606370806694, -0.04146074876189232, 102.72891235351562],
    [0.09844492375850677, 1.876254677772522, -0.6855485439300537, -68.85832977294922],
    [-0.008162103593349457, 0.6867526173591614, 1.8783780336380005, -68.14104461669922],
    [0.0, 0.0, 0.0, 1.0]
],
  "dcmmeta_reorient_transform": [
    [0.0, -1.0, 0.0, 103.0],
    [1.0, 0.0, 0.0, 0.0],
    [0.0, 0.0, 1.0, 0.0],
    [0.0, 0.0, 0.0, 1.0]
],
  "dcmmeta_shape": [104, 104, 60, 129],
  "dcmmeta_slice_dim": 2,
  "dcmmeta_version": 0.6,
  "global": {
    "const": {
      "AcquisitionMatrix": [104, 0, 0, 104],
      "AngioFlag": "N",
      "BitsAllocated": 16,
      "BitsStored": 16,
      "BodyPartExamined": "BRAIN",
      "Columns": 832,
      "EchoNumbers": 1,
      "EchoTime": 37.0,
      "EchoTrainLength": 104,
      "FlipAngle": 52.0,
      "HighBit": 15,
      "ImageOrientationPatient": [0.99877950231791, -0.0492224620135, -0.0040810516936, 0.04483031738178, 0.9381273643998, -0.3433763107842],
      "ImagePositionPatient": [-871.71190545156, -771.5186773694, 255.54343747722],
      "ImageType": [
        "ORIGINAL",
        "PRIMARY",
        "M",
        "MB",
        "ND",
        "MOSAIC"
],
      "ImagedNucleus": "1H",
      "ImagingFrequency": 123.259233,
      "InPlanePhaseEncodingDirection": "COL",
      "MRAcquisitionType": "2D",
      "MagneticFieldStrength": 3.0,
      "Manufacturer": "SIEMENS",
      "ManufacturerModelName": "Prisma_fit",
      "Modality": "MR",
      "NumberOfAverages": 1.0,
      "NumberOfPhaseEncodingSteps": 104,
      "PercentPhaseFieldOfView": 100.0,
      "PercentSampling": 100.0,
      "PerformedProcedureStepStartTime": "092418.321000",
      "PhotometricInterpretation": "MONOCHROME2",
      "PixelBandwidth": 2290.0,
      "PixelRepresentation": 0,
      "PixelSpacing": [2.0, 2.0],
      "ProtocolName": "func_task-gambling_run-2",
      "RepetitionTime": 1490.0,
      "Rows": 832,
      "SAR": 0.02940941126648,
      "SamplesPerPixel": 1,
      "ScanOptions": "FS",
      "ScanningSequence": "EP",
      "SequenceName": "epfid2d1_104",
      "SequenceVariant": [
        "SK",
        "SS"
],
      "SeriesDescription": "func_task-gambling_run-2",
      "SeriesNumber": 25,
      "SeriesTime": "100241.121000",
      "SliceLocation": -42.524065939527,
      "SliceThickness": 2.0,
      "SmallestImagePixelValue": 0,
      "SoftwareVersions": "syngo MR E11",
      "SpacingBetweenSlices": 1.9999999914624,
      "SpecificCharacterSet": "ISO_IR 100",
      "StudyID": "1",
      "StudyTime": "092418.124000",
      "TransmitCoilName": "Body",
      "VariableFlipAngleFlag": "N",
      "WindowCenterWidthExplanation": "Algo1",
      "dBdt": 0.0},
    "slices": {}
  },
  "time": {
    "samples": {
      "AcquisitionNumber": [1, 2, 3, 4, 5, 6, 7, 8, 9, 10, 11, 12, 13, 14, 15, 16, 17, 18, 19, 20, 21, 22, 23, 24, 25, 26, 27, 28, 29, 30, 31, 32, 33, 34, 35, 36, 37, 38, 39, 40, 41, 42, 43, 44, 45, 46, 47, 48, 49, 50, 51, 52, 53, 54, 55, 56, 57, 58, 59, 60, 61, 62, 63, 64, 65, 66, 67, 68, 69, 70, 71, 72, 73, 74, 75, 76, 77, 78, 79, 80, 81, 82, 83, 84, 85, 86, 87, 88, 89, 90, 91, 92, 93, 94, 95, 96, 97, 98, 99, 100, 101, 102, 103, 104, 105, 106, 107, 108, 109, 110, 111, 112, 113, 114, 115, 116, 117, 118, 119, 120, 121, 122, 123, 124, 125, 126, 127, 128, 129],
      "AcquisitionTime": ["100126.795000", "100128.285000", "100129.775000", "100131.265000", "100132.755000", "100134.245000", "100135.735000", "100137.225000", "100138.715000", "100140.205000", "100141.695000", "100143.185000", "100144.675000", "100146.165000", "100147.655000", "100149.145000", "100150.635000", "100152.125000", "100153.615000", "100155.105000", "100156.595000", "100158.085000", "100159.575000", "100201.065000", "100202.555000", "100204.045000", "100205.535000", "100207.025000", "100208.515000", "100210.005000", "100211.495000", "100212.985000", "100214.475000", "100215.965000", "100217.455000", "100218.945000", "100220.435000", "100221.925000", "100223.415000", "100224.905000", "100226.395000", "100227.885000", "100229.375000", "100230.865000", "100232.355000", "100233.845000", "100235.335000", "100236.825000", "100238.315000", "100239.805000", "100241.295000", "100242.785000", "100244.275000", "100245.765000", "100247.255000", "100248.745000", "100250.235000", "100251.725000", "100253.215000", "100254.705000", "100256.195000", "100257.685000", "100259.175000", "100300.665000", "100302.155000", "100303.645000", "100305.135000", "100306.625000", "100308.115000", "100309.605000", "100311.095000", "100312.585000", "100314.075000", "100315.565000", "100317.055000", "100318.545000", "100320.035000", "100321.525000", "100323.015000", "100324.505000", "100325.995000", "100327.485000", "100328.975000", "100330.465000", "100331.955000", "100333.445000", "100334.935000", "100336.425000", "100337.915000", "100339.405000", "100340.895000", "100342.385000", "100343.875000", "100345.365000", "100346.855000", "100348.345000", "100349.835000", "100351.325000", "100352.815000", "100354.305000", "100355.795000", "100357.285000", "100358.775000", "100400.265000", "100401.755000", "100403.245000", "100404.735000", "100406.225000", "100407.715000", "100409.205000", "100410.695000", "100412.185000", "100413.675000", "100415.165000", "100416.655000", "100418.145000", "100419.635000", "100421.125000", "100422.615000", "100424.105000", "100425.595000", "100427.085000", "100428.575000", "100430.065000", "100431.555000", "100433.045000", "100434.535000", "100436.025000", "100437.515000"],
      "ContentTime": ["100241.124000", "100241.128000", "100241.131000", "100241.134000", "100241.137000", "100241.140000", "100241.143000", "100241.147000", "100241.150000", "100241.153000", "100241.156000", "100241.159000", "100241.163000", "100241.166000", "100241.169000", "100241.176000", "100241.179000", "100241.182000", "100241.185000", "100241.188000", "100241.191000", "100301.084000", "100301.087000", "100301.090000", "100301.093000", "100301.096000", "100301.100000", "100301.103000", "100301.105000", "100301.108000", "100301.112000", "100301.114000", "100301.117000", "100301.120000", "100301.124000", "100301.127000", "100301.130000", "100301.133000", "100301.136000", "100301.143000", "100301.147000", "100321.084000", "100321.087000", "100321.097000", "100321.100000", "100321.103000", "100321.106000", "100321.109000", "100321.112000", "100321.115000", "100321.118000", "100321.121000", "100321.124000", "100321.127000", "100321.130000", "100321.133000", "100321.136000", "100321.139000", "100321.142000", "100321.145000", "100321.148000", "100341.083000", "100341.086000", "100341.089000", "100341.092000", "100341.095000", "100341.098000", "100341.101000", "100341.104000", "100341.107000", "100341.111000", "100341.114000", "100341.117000", "100341.120000", "100341.123000", "100341.126000", "100341.129000", "100341.132000", "100341.135000", "100341.138000", "100341.141000", "100401.083000", "100401.086000", "100401.089000", "100401.092000", "100401.095000", "100401.099000", "100401.102000", "100401.104000", "100401.107000", "100401.111000", "100401.114000", "100401.117000", "100401.119000", "100401.123000", "100401.127000", "100401.130000", "100401.133000", "100401.136000", "100401.140000", "100401.144000", "100439.789000", "100439.792000", "100439.796000", "100439.799000", "100439.802000", "100439.805000", "100439.809000", "100439.812000", "100439.816000", "100439.819000", "100439.822000", "100439.825000", "100439.828000", "100439.831000", "100439.834000", "100439.837000", "100439.840000", "100439.844000", "100439.847000", "100439.850000", "100439.853000", "100439.856000", "100439.859000", "100439.862000", "100439.865000", "100439.868000", "100439.871000", "100439.874000"],
      "InstanceCreationTime": ["100241.124000", "100241.128000", "100241.131000", "100241.134000", "100241.137000", "100241.140000", "100241.143000", "100241.147000", "100241.150000", "100241.153000", "100241.156000", "100241.159000", "100241.163000", "100241.166000", "100241.169000", "100241.176000", "100241.179000", "100241.182000", "100241.185000", "100241.188000", "100241.191000", "100301.084000", "100301.087000", "100301.090000", "100301.093000", "100301.096000", "100301.100000", "100301.103000", "100301.105000", "100301.108000", "100301.112000", "100301.114000", "100301.117000", "100301.120000", "100301.124000", "100301.127000", "100301.130000", "100301.133000", "100301.136000", "100301.143000", "100301.147000", "100321.084000", "100321.087000", "100321.097000", "100321.100000", "100321.103000", "100321.106000", "100321.109000", "100321.112000", "100321.115000", "100321.118000", "100321.121000", "100321.124000", "100321.127000", "100321.130000", "100321.133000", "100321.136000", "100321.139000", "100321.142000", "100321.145000", "100321.148000", "100341.083000", "100341.086000", "100341.089000", "100341.092000", "100341.095000", "100341.098000", "100341.101000", "100341.104000", "100341.107000", "100341.111000", "100341.114000", "100341.117000", "100341.120000", "100341.123000", "100341.126000", "100341.129000", "100341.132000", "100341.135000", "100341.138000", "100341.141000", "100401.083000", "100401.086000", "100401.089000", "100401.092000", "100401.095000", "100401.099000", "100401.102000", "100401.104000", "100401.107000", "100401.111000", "100401.114000", "100401.117000", "100401.119000", "100401.123000", "100401.127000", "100401.130000", "100401.133000", "100401.136000", "100401.140000", "100401.144000", "100439.789000", "100439.792000", "100439.796000", "100439.799000", "100439.802000", "100439.805000", "100439.809000", "100439.812000", "100439.816000", "100439.819000", "100439.822000", "100439.825000", "100439.828000", "100439.831000", "100439.834000", "100439.837000", "100439.840000", "100439.844000", "100439.847000", "100439.850000", "100439.853000", "100439.856000", "100439.859000", "100439.862000", "100439.865000", "100439.868000", "100439.871000", "100439.874000"],
      "InstanceNumber": [1, 2, 3, 4, 5, 6, 7, 8, 9, 10, 11, 12, 13, 14, 15, 16, 17, 18, 19, 20, 21, 22, 23, 24, 25, 26, 27, 28, 29, 30, 31, 32, 33, 34, 35, 36, 37, 38, 39, 40, 41, 42, 43, 44, 45, 46, 47, 48, 49, 50, 51, 52, 53, 54, 55, 56, 57, 58, 59, 60, 61, 62, 63, 64, 65, 66, 67, 68, 69, 70, 71, 72, 73, 74, 75, 76, 77, 78, 79, 80, 81, 82, 83, 84, 85, 86, 87, 88, 89, 90, 91, 92, 93, 94, 95, 96, 97, 98, 99, 100, 101, 102, 103, 104, 105, 106, 107, 108, 109, 110, 111, 112, 113, 114, 115, 116, 117, 118, 119, 120, 121, 122, 123, 124, 125, 126, 127, 128, 129],
      "LargestImagePixelValue": [43759, 42249, 42196, 41444, 41120, 40504, 40671, 40967, 41117, 41378, 41244, 41220, 41216, 41174, 41617, 40910, 41393, 41607, 41739, 41711, 41092, 41271, 41197, 41231, 41373, 40896, 41619, 41239, 41313, 40653, 40551, 41110, 41085, 41782, 41693, 41411, 41018, 41556, 41357, 41634, 41834, 41759, 41919, 41808, 41766, 41758, 41832, 42003, 41689, 42048, 41577, 41905, 41824, 42063, 41919, 41799, 41999, 41887, 41853, 41865, 41542, 41765, 42014, 41511, 41592, 41550, 42170, 42261, 41947, 41767, 42103, 41785, 41739, 42043, 41530, 42378, 42769, 41920, 42489, 42325, 42108, 42386, 42243, 42569, 42529, 42654, 42722, 42134, 42141, 42240, 42826, 42479, 42550, 42646, 42669, 42113, 42056, 42915, 42110, 41886, 42223, 41676, 42189, 42151, 42437, 42299, 42051, 42007, 42355, 42675, 42511, 42062, 42212, 42408, 42222, 42300, 42041, 42031, 41716, 42122, 42369, 42411, 42052, 43115, 41738, 42329, 42153, 42318, 42045],
      "WindowCenter": [10227.0, 10171.0, 10156.0, 10146.0, 10142.0, 10122.0, 10127.0, 10142.0, 10158.0, 10161.0, 10158.0, 10157.0, 10158.0, 10159.0, 10167.0, 10169.0, 10170.0, 10166.0, 10143.0, 10133.0, 10135.0, 10147.0, 10144.0, 10142.0, 10136.0, 10126.0, 10138.0, 10134.0, 10127.0, 10120.0, 10125.0, 10133.0, 10141.0, 10146.0, 10147.0, 10142.0, 10159.0, 10164.0, 10150.0, 10135.0, 10132.0, 10139.0, 10146.0, 10148.0, 10134.0, 10125.0, 10132.0, 10137.0, 10137.0, 10131.0, 10133.0, 10146.0, 10154.0, 10156.0, 10148.0, 10148.0, 10148.0, 10158.0, 10165.0, 10166.0, 10160.0, 10152.0, 10149.0, 10134.0, 10128.0, 10141.0, 10168.0, 10181.0, 10174.0, 10153.0, 10146.0, 10141.0, 10141.0, 10139.0, 10139.0, 10145.0, 10151.0, 10139.0, 10137.0, 10132.0, 10137.0, 10139.0, 10145.0, 10145.0, 10147.0, 10153.0, 10145.0, 10138.0, 10144.0, 10146.0, 10160.0, 10163.0, 10157.0, 10148.0, 10153.0, 10169.0, 10196.0, 10189.0, 10174.0, 10151.0, 10146.0, 10135.0, 10146.0, 10154.0, 10155.0, 10142.0, 10142.0, 10143.0, 10149.0, 10141.0, 10139.0, 10133.0, 10132.0, 10144.0, 10149.0, 10150.0, 10149.0, 10157.0, 10153.0, 10159.0, 10158.0, 10166.0, 10160.0, 10171.0, 10168.0, 10183.0, 10176.0, 10160.0, 10151.0],
      "WindowWidth": [22055.0, 21893.0, 21837.0, 21803.0, 21783.0, 21735.0, 21743.0, 21778.0, 21812.0, 21818.0, 21809.0, 21807.0, 21812.0, 21815.0, 21833.0, 21840.0, 21843.0, 21827.0, 21773.0, 21753.0, 21760.0, 21785.0, 21782.0, 21775.0, 21761.0, 21741.0, 21763.0, 21760.0, 21743.0, 21725.0, 21737.0, 21756.0, 21774.0, 21782.0, 21784.0, 21776.0, 21816.0, 21825.0, 21791.0, 21757.0, 21752.0, 21765.0, 21784.0, 21790.0, 21758.0, 21734.0, 21750.0, 21763.0, 21759.0, 21749.0, 21754.0, 21781.0, 21800.0, 21805.0, 21789.0, 21787.0, 21788.0, 21812.0, 21829.0, 21830.0, 21819.0, 21799.0, 21789.0, 21756.0, 21743.0, 21771.0, 21829.0, 21860.0, 21844.0, 21800.0, 21780.0, 21770.0, 21772.0, 21765.0, 21765.0, 21776.0, 21788.0, 21768.0, 21759.0, 21748.0, 21758.0, 21765.0, 21778.0, 21775.0, 21784.0, 21794.0, 21777.0, 21763.0, 21776.0, 21784.0, 21814.0, 21823.0, 21810.0, 21788.0, 21795.0, 21832.0, 21894.0, 21877.0, 21846.0, 21796.0, 21778.0, 21758.0, 21781.0, 21798.0, 21801.0, 21773.0, 21772.0, 21775.0, 21788.0, 21770.0, 21763.0, 21752.0, 21751.0, 21775.0, 21788.0, 21789.0, 21786.0, 21804.0, 21801.0, 21811.0, 21810.0, 21827.0, 21814.0, 21833.0, 21831.0, 21864.0, 21847.0, 21813.0, 21792.0]
    },
    "slices": {}
  }
}