{
  "AcquisitionMatrixPE": 104,
  "AcquisitionNumber": 1,
  "AcquisitionTime": "10:22:23.085000",
  "BandwidthPerPixelPhaseEncode": 17.17,
  "BaseResolution": 104,
  "BodyPartExamined": "BRAIN",
  "CoilString": "HC1-7;NC1_2",
  "ConsistencyInfo": "N4_VE11C_LATEST_20160120",
  "ConversionSoftware": "dcm2niix",
  "ConversionSoftwareVersion": "v1.0.20190902",
  "DerivedVendorReportedEchoSpacing": 0.000560011,
  "DeviceSerialNumber": "167006",
  "DwellTime": 2.1e-06,
  "EchoTime": 0.037,
  "EchoTrainLength": 104,
  "EffectiveEchoSpacing": 0.000560011,
  "FlipAngle": 52,
  "ImageComments": "Unaliased_MB4_PE3_LB",
  "ImageOrientationPatientDICOM": [0.998779, -0.0492225, -0.00408105, 0.0448303, 0.938127, -0.343376],
  "ImageType": [
    "ORIGINAL",
    "PRIMARY",
    "M",
    "MB",
    "ND",
    "MOSAIC"
],
  "ImagingFrequency": 123.259,
  "InPlanePhaseEncodingDirectionDICOM": "COL",
  "InstitutionAddress": "Chemin_Queen-Mary_4565_Montreal_District_CA_H3W_1W5",
  "InstitutionName": "IUGM",
  "InstitutionalDepartmentName": "Department",
  "MRAcquisitionType": "2D",
  "MagneticFieldStrength": 3,
  "Manufacturer": "Siemens",
  "ManufacturersModelName": "Prisma_fit",
  "Modality": "MR",
  "MultibandAccelerationFactor": 4,
  "PartialFourier": 1,
  "PatientPosition": "HFS",
  "PercentPhaseFOV": 100,
  "PhaseEncodingDirection": "j",
  "PhaseEncodingSteps": 104,
  "PhaseResolution": 1,
  "PixelBandwidth": 2290,
  "ProcedureStepDescription": "hcptrt_generic",
  "ProtocolName": "func_task-social_run-2",
  "PulseSequenceDetails": "%CustomerSeq%_cmrr_mbep2d_bold",
  "ReceiveCoilActiveElements": "HC1-7;NC1,2",
  "ReceiveCoilName": "HeadNeck_64",
  "ReconMatrixPE": 104,
  "RepetitionTime": 1.49,
  "SAR": 0.0294399,
  "ScanOptions": "FS",
  "ScanningSequence": "EP",
  "SequenceName": "epfid2d1_104",
  "SequenceVariant": "SK_SS",
  "SeriesDescription": "func_task-social_run-2",
  "SeriesNumber": 33,
  "ShimSetting": [623, -7270, -8845, 641, -15, -275, 8, -5],
  "SliceThickness": 2,
  "SliceTiming": [0, 0.7825, 0.0975, 0.8825, 0.195, 0.98, 0.2925, 1.0775, 0.3925, 1.175, 0.49, 1.2725, 0.5875, 1.3725, 0.685, 0, 0.7825, 0.0975, 0.8825, 0.195, 0.98, 0.2925, 1.0775, 0.3925, 1.175, 0.49, 1.2725, 0.5875, 1.3725, 0.685, 0, 0.7825, 0.0975, 0.8825, 0.195, 0.98, 0.2925, 1.0775, 0.3925, 1.175, 0.49, 1.2725, 0.5875, 1.3725, 0.685, 0, 0.7825, 0.0975, 0.8825, 0.195, 0.98, 0.2925, 1.0775, 0.3925, 1.175, 0.49, 1.2725, 0.5875, 1.3725, 0.685],
  "SoftwareVersions": "syngo_MR_E11",
  "SpacingBetweenSlices": 2,
  "StationName": "MRC35049",
  "TaskName": "social",
  "TotalReadoutTime": 0.0576811,
  "TxRefAmp": 217.442,
  "WipMemBlock": "5178044a-4f14-4e1a-8f9d-28b4608c97a8||Sequence: R016 ve11c/master r/e634e98; Dec 19 2017 11:00:25 by eja",
  "dcmmeta_affine": [
    [-1.9975589513778687, 0.0896606370806694, -0.04146074876189232, 102.72891235351562],
    [0.09844492375850677, 1.876254677772522, -0.6855485439300537, -68.85832977294922],
    [-0.008162103593349457, 0.6867526173591614, 1.8783780336380005, -68.14104461669922],
    [0.0, 0.0, 0.0, 1.0]
],
  "dcmmeta_reorient_transform": [
    [0.0, -1.0, 0.0, 103.0],
    [1.0, 0.0, 0.0, 0.0],
    [0.0, 0.0, 1.0, 0.0],
    [0.0, 0.0, 0.0, 1.0]
],
  "dcmmeta_shape": [104, 104, 60, 139],
  "dcmmeta_slice_dim": 2,
  "dcmmeta_version": 0.6,
  "global": {
    "const": {
      "AcquisitionMatrix": [104, 0, 0, 104],
      "AngioFlag": "N",
      "BitsAllocated": 16,
      "BitsStored": 16,
      "BodyPartExamined": "BRAIN",
      "Columns": 832,
      "EchoNumbers": 1,
      "EchoTime": 37.0,
      "EchoTrainLength": 104,
      "FlipAngle": 52.0,
      "HighBit": 15,
      "ImageOrientationPatient": [0.99877950231791, -0.0492224620135, -0.0040810516936, 0.04483031738178, 0.9381273643998, -0.3433763107842],
      "ImagePositionPatient": [-871.71190545156, -771.5186773694, 255.54343747722],
      "ImageType": [
        "ORIGINAL",
        "PRIMARY",
        "M",
        "MB",
        "ND",
        "MOSAIC"
],
      "ImagedNucleus": "1H",
      "ImagingFrequency": 123.259239,
      "InPlanePhaseEncodingDirection": "COL",
      "MRAcquisitionType": "2D",
      "MagneticFieldStrength": 3.0,
      "Manufacturer": "SIEMENS",
      "ManufacturerModelName": "Prisma_fit",
      "Modality": "MR",
      "NumberOfAverages": 1.0,
      "NumberOfPhaseEncodingSteps": 104,
      "PercentPhaseFieldOfView": 100.0,
      "PercentSampling": 100.0,
      "PerformedProcedureStepStartTime": "092418.321000",
      "PhotometricInterpretation": "MONOCHROME2",
      "PixelBandwidth": 2290.0,
      "PixelRepresentation": 0,
      "PixelSpacing": [2.0, 2.0],
      "ProtocolName": "func_task-social_run-2",
      "RepetitionTime": 1490.0,
      "Rows": 832,
      "SAR": 0.02943987512053,
      "SamplesPerPixel": 1,
      "ScanOptions": "FS",
      "ScanningSequence": "EP",
      "SequenceName": "epfid2d1_104",
      "SequenceVariant": [
        "SK",
        "SS"
],
      "SeriesDescription": "func_task-social_run-2",
      "SeriesNumber": 33,
      "SeriesTime": "102337.859000",
      "SliceLocation": -42.524065939527,
      "SliceThickness": 2.0,
      "SmallestImagePixelValue": 0,
      "SoftwareVersions": "syngo MR E11",
      "SpacingBetweenSlices": 1.9999999914624,
      "SpecificCharacterSet": "ISO_IR 100",
      "StudyID": "1",
      "StudyTime": "092418.124000",
      "TransmitCoilName": "Body",
      "VariableFlipAngleFlag": "N",
      "WindowCenterWidthExplanation": "Algo1",
      "dBdt": 0.0},
    "slices": {}
  },
  "time": {
    "samples": {
      "AcquisitionNumber": [1, 2, 3, 4, 5, 6, 7, 8, 9, 10, 11, 12, 13, 14, 15, 16, 17, 18, 19, 20, 21, 22, 23, 24, 25, 26, 27, 28, 29, 30, 31, 32, 33, 34, 35, 36, 37, 38, 39, 40, 41, 42, 43, 44, 45, 46, 47, 48, 49, 50, 51, 52, 53, 54, 55, 56, 57, 58, 59, 60, 61, 62, 63, 64, 65, 66, 67, 68, 69, 70, 71, 72, 73, 74, 75, 76, 77, 78, 79, 80, 81, 82, 83, 84, 85, 86, 87, 88, 89, 90, 91, 92, 93, 94, 95, 96, 97, 98, 99, 100, 101, 102, 103, 104, 105, 106, 107, 108, 109, 110, 111, 112, 113, 114, 115, 116, 117, 118, 119, 120, 121, 122, 123, 124, 125, 126, 127, 128, 129, 130, 131, 132, 133, 134, 135, 136, 137, 138, 139],
      "AcquisitionTime": ["102223.085000", "102224.575000", "102226.065000", "102227.555000", "102229.045000", "102230.535000", "102232.025000", "102233.515000", "102235.005000", "102236.495000", "102237.985000", "102239.475000", "102240.965000", "102242.455000", "102243.945000", "102245.435000", "102246.925000", "102248.415000", "102249.905000", "102251.395000", "102252.885000", "102254.375000", "102255.865000", "102257.355000", "102258.845000", "102300.335000", "102301.825000", "102303.315000", "102304.805000", "102306.295000", "102307.785000", "102309.275000", "102310.765000", "102312.255000", "102313.745000", "102315.235000", "102316.725000", "102318.215000", "102319.705000", "102321.195000", "102322.685000", "102324.175000", "102325.665000", "102327.155000", "102328.645000", "102330.135000", "102331.625000", "102333.115000", "102334.605000", "102336.095000", "102337.585000", "102339.075000", "102340.565000", "102342.055000", "102343.545000", "102345.035000", "102346.525000", "102348.015000", "102349.505000", "102350.995000", "102352.485000", "102353.975000", "102355.465000", "102356.955000", "102358.445000", "102359.935000", "102401.425000", "102402.915000", "102404.405000", "102405.895000", "102407.385000", "102408.875000", "102410.365000", "102411.855000", "102413.345000", "102414.835000", "102416.325000", "102417.815000", "102419.305000", "102420.795000", "102422.285000", "102423.775000", "102425.265000", "102426.755000", "102428.245000", "102429.735000", "102431.225000", "102432.715000", "102434.205000", "102435.695000", "102437.185000", "102438.675000", "102440.165000", "102441.655000", "102443.145000", "102444.635000", "102446.125000", "102447.615000", "102449.105000", "102450.595000", "102452.085000", "102453.575000", "102455.065000", "102456.555000", "102458.045000", "102459.535000", "102501.025000", "102502.515000", "102504.005000", "102505.495000", "102506.985000", "102508.475000", "102509.965000", "102511.455000", "102512.945000", "102514.435000", "102515.925000", "102517.415000", "102518.905000", "102520.395000", "102521.885000", "102523.375000", "102524.865000", "102526.355000", "102527.845000", "102529.335000", "102530.825000", "102532.315000", "102533.805000", "102535.295000", "102536.785000", "102538.275000", "102539.765000", "102541.255000", "102542.745000", "102544.235000", "102545.725000", "102547.215000", "102548.705000"],
      "ContentTime": ["102337.862000", "102337.865000", "102337.871000", "102337.875000", "102337.878000", "102337.881000", "102337.884000", "102337.887000", "102337.890000", "102337.893000", "102337.896000", "102337.899000", "102337.902000", "102337.911000", "102337.922000", "102337.925000", "102337.928000", "102337.931000", "102337.935000", "102337.938000", "102337.941000", "102337.944000", "102357.826000", "102357.829000", "102357.832000", "102357.835000", "102357.838000", "102357.841000", "102357.844000", "102357.847000", "102357.850000", "102357.853000", "102357.856000", "102357.859000", "102357.862000", "102357.865000", "102357.868000", "102357.871000", "102357.874000", "102357.877000", "102357.881000", "102357.883000", "102357.886000", "102417.826000", "102417.829000", "102417.832000", "102417.835000", "102417.838000", "102417.841000", "102417.844000", "102417.847000", "102417.850000", "102417.854000", "102417.857000", "102417.860000", "102417.863000", "102417.866000", "102417.869000", "102417.872000", "102417.875000", "102417.878000", "102417.881000", "102417.884000", "102437.826000", "102437.829000", "102437.832000", "102437.835000", "102437.838000", "102437.842000", "102437.845000", "102437.848000", "102437.851000", "102437.854000", "102437.857000", "102437.860000", "102437.863000", "102437.866000", "102437.869000", "102437.872000", "102437.875000", "102437.878000", "102437.881000", "102437.884000", "102457.826000", "102457.829000", "102457.832000", "102457.835000", "102457.838000", "102457.841000", "102457.844000", "102457.847000", "102457.851000", "102457.854000", "102457.857000", "102457.860000", "102457.863000", "102457.866000", "102457.869000", "102457.872000", "102457.875000", "102457.878000", "102457.882000", "102457.885000", "102537.826000", "102537.829000", "102537.832000", "102537.835000", "102537.838000", "102537.841000", "102537.844000", "102537.848000", "102537.851000", "102537.854000", "102537.857000", "102537.860000", "102537.863000", "102537.869000", "102537.872000", "102537.875000", "102537.878000", "102537.881000", "102537.884000", "102537.887000", "102537.890000", "102537.893000", "102537.896000", "102537.899000", "102537.902000", "102537.905000", "102537.909000", "102550.667000", "102550.670000", "102550.673000", "102550.676000", "102550.679000", "102550.682000", "102550.685000", "102550.688000", "102550.692000"],
      "InstanceCreationTime": ["102337.862000", "102337.865000", "102337.871000", "102337.875000", "102337.878000", "102337.881000", "102337.884000", "102337.887000", "102337.890000", "102337.893000", "102337.896000", "102337.899000", "102337.902000", "102337.911000", "102337.922000", "102337.925000", "102337.928000", "102337.931000", "102337.935000", "102337.938000", "102337.941000", "102337.944000", "102357.826000", "102357.829000", "102357.832000", "102357.835000", "102357.838000", "102357.841000", "102357.844000", "102357.847000", "102357.850000", "102357.853000", "102357.856000", "102357.859000", "102357.862000", "102357.865000", "102357.868000", "102357.871000", "102357.874000", "102357.877000", "102357.881000", "102357.883000", "102357.886000", "102417.826000", "102417.829000", "102417.832000", "102417.835000", "102417.838000", "102417.841000", "102417.844000", "102417.847000", "102417.850000", "102417.854000", "102417.857000", "102417.860000", "102417.863000", "102417.866000", "102417.869000", "102417.872000", "102417.875000", "102417.878000", "102417.881000", "102417.884000", "102437.826000", "102437.829000", "102437.832000", "102437.835000", "102437.838000", "102437.842000", "102437.845000", "102437.848000", "102437.851000", "102437.854000", "102437.857000", "102437.860000", "102437.863000", "102437.866000", "102437.869000", "102437.872000", "102437.875000", "102437.878000", "102437.881000", "102437.884000", "102457.826000", "102457.829000", "102457.832000", "102457.835000", "102457.838000", "102457.841000", "102457.844000", "102457.847000", "102457.851000", "102457.854000", "102457.857000", "102457.860000", "102457.863000", "102457.866000", "102457.869000", "102457.872000", "102457.875000", "102457.878000", "102457.882000", "102457.885000", "102537.826000", "102537.829000", "102537.832000", "102537.835000", "102537.838000", "102537.841000", "102537.844000", "102537.848000", "102537.851000", "102537.854000", "102537.857000", "102537.860000", "102537.863000", "102537.869000", "102537.872000", "102537.875000", "102537.878000", "102537.881000", "102537.884000", "102537.887000", "102537.890000", "102537.893000", "102537.896000", "102537.899000", "102537.902000", "102537.905000", "102537.909000", "102550.667000", "102550.670000", "102550.673000", "102550.676000", "102550.679000", "102550.682000", "102550.685000", "102550.688000", "102550.692000"],
      "InstanceNumber": [1, 2, 3, 4, 5, 6, 7, 8, 9, 10, 11, 12, 13, 14, 15, 16, 17, 18, 19, 20, 21, 22, 23, 24, 25, 26, 27, 28, 29, 30, 31, 32, 33, 34, 35, 36, 37, 38, 39, 40, 41, 42, 43, 44, 45, 46, 47, 48, 49, 50, 51, 52, 53, 54, 55, 56, 57, 58, 59, 60, 61, 62, 63, 64, 65, 66, 67, 68, 69, 70, 71, 72, 73, 74, 75, 76, 77, 78, 79, 80, 81, 82, 83, 84, 85, 86, 87, 88, 89, 90, 91, 92, 93, 94, 95, 96, 97, 98, 99, 100, 101, 102, 103, 104, 105, 106, 107, 108, 109, 110, 111, 112, 113, 114, 115, 116, 117, 118, 119, 120, 121, 122, 123, 124, 125, 126, 127, 128, 129, 130, 131, 132, 133, 134, 135, 136, 137, 138, 139],
      "LargestImagePixelValue": [45123, 44050, 43137, 42234, 42263, 42537, 42829, 42656, 42729, 42116, 42626, 42614, 42610, 42652, 42366, 42532, 42702, 43010, 42650, 42582, 42667, 42737, 42404, 42282, 42447, 42293, 42382, 42355, 42286, 42308, 41887, 42476, 42619, 42614, 41668, 42151, 42161, 42498, 42776, 42228, 42020, 42515, 42140, 42460, 42332, 42604, 42542, 42307, 42352, 42306, 41961, 42183, 42231, 42087, 42413, 42333, 42746, 42453, 42584, 42447, 42609, 41981, 42612, 42923, 42221, 42338, 42425, 42582, 42383, 42168, 42489, 42453, 42273, 42271, 42141, 42346, 42277, 42360, 42147, 42060, 42319, 42439, 41710, 42307, 41608, 42093, 42009, 41798, 42553, 42570, 41898, 42389, 42047, 42623, 42054, 41965, 42006, 42369, 42515, 42010, 42214, 42100, 42263, 41981, 42006, 42092, 41876, 41781, 42094, 41962, 42424, 42441, 42633, 41532, 41047, 40734, 41574, 42202, 41792, 41815, 41708, 41603, 40345, 41064, 41270, 41096, 41952, 42389, 41904, 42647, 42644, 41401, 41641, 42282, 42545, 42026, 42387, 41839, 42354],
      "WindowCenter": [10164.0, 10128.0, 10123.0, 10111.0, 10109.0, 10098.0, 10100.0, 10109.0, 10132.0, 10128.0, 10126.0, 10118.0, 10100.0, 10084.0, 10069.0, 10068.0, 10067.0, 10073.0, 10075.0, 10075.0, 10075.0, 10090.0, 10100.0, 10094.0, 10080.0, 10073.0, 10069.0, 10069.0, 10062.0, 10054.0, 10047.0, 10050.0, 10051.0, 10075.0, 10080.0, 10079.0, 10060.0, 10050.0, 10048.0, 10050.0, 10053.0, 10059.0, 10061.0, 10060.0, 10062.0, 10070.0, 10077.0, 10085.0, 10095.0, 10098.0, 10098.0, 10090.0, 10089.0, 10095.0, 10095.0, 10103.0, 10110.0, 10102.0, 10096.0, 10080.0, 10070.0, 10072.0, 10084.0, 10091.0, 10080.0, 10061.0, 10046.0, 10051.0, 10052.0, 10059.0, 10062.0, 10068.0, 10069.0, 10063.0, 10071.0, 10072.0, 10072.0, 10074.0, 10080.0, 10082.0, 10081.0, 10081.0, 10075.0, 10081.0, 10081.0, 10088.0, 10083.0, 10082.0, 10088.0, 10087.0, 10073.0, 10071.0, 10071.0, 10077.0, 10081.0, 10081.0, 10072.0, 10072.0, 10086.0, 10091.0, 10084.0, 10065.0, 10048.0, 10032.0, 10032.0, 10039.0, 10054.0, 10051.0, 10049.0, 10065.0, 10079.0, 10079.0, 10085.0, 10090.0, 10113.0, 10109.0, 10108.0, 10088.0, 10053.0, 10040.0, 10042.0, 10059.0, 10072.0, 10091.0, 10099.0, 10087.0, 10097.0, 10096.0, 10106.0, 10127.0, 10120.0, 10117.0, 10154.0, 10148.0, 10117.0, 10080.0, 10093.0, 10091.0, 10057.0],
      "WindowWidth": [21876.0, 21761.0, 21728.0, 21693.0, 21677.0, 21649.0, 21651.0, 21673.0, 21722.0, 21717.0, 21709.0, 21690.0, 21650.0, 21611.0, 21580.0, 21576.0, 21575.0, 21588.0, 21595.0, 21596.0, 21598.0, 21628.0, 21650.0, 21637.0, 21606.0, 21593.0, 21581.0, 21581.0, 21565.0, 21550.0, 21536.0, 21541.0, 21542.0, 21598.0, 21614.0, 21610.0, 21564.0, 21536.0, 21529.0, 21538.0, 21546.0, 21556.0, 21562.0, 21562.0, 21570.0, 21586.0, 21603.0, 21623.0, 21641.0, 21649.0, 21651.0, 21634.0, 21631.0, 21644.0, 21645.0, 21662.0, 21675.0, 21661.0, 21649.0, 21613.0, 21586.0, 21591.0, 21616.0, 21633.0, 21611.0, 21568.0, 21532.0, 21543.0, 21548.0, 21563.0, 21568.0, 21580.0, 21581.0, 21568.0, 21588.0, 21591.0, 21593.0, 21598.0, 21612.0, 21618.0, 21612.0, 21613.0, 21600.0, 21611.0, 21613.0, 21623.0, 21616.0, 21614.0, 21624.0, 21622.0, 21591.0, 21587.0, 21588.0, 21598.0, 21613.0, 21612.0, 21593.0, 21590.0, 21623.0, 21635.0, 21623.0, 21581.0, 21540.0, 21506.0, 21504.0, 21521.0, 21551.0, 21549.0, 21542.0, 21576.0, 21608.0, 21609.0, 21621.0, 21636.0, 21689.0, 21685.0, 21684.0, 21638.0, 21559.0, 21527.0, 21529.0, 21568.0, 21602.0, 21644.0, 21660.0, 21635.0, 21655.0, 21654.0, 21682.0, 21725.0, 21710.0, 21705.0, 21788.0, 21776.0, 21697.0, 21611.0, 21634.0, 21632.0, 21543.0]
    },
    "slices": {}
  }
}