{
  "AcquisitionMatrixPE": 104,
  "AcquisitionNumber": 1,
  "AcquisitionTime": "09:54:33.415000",
  "BandwidthPerPixelPhaseEncode": 17.17,
  "BaseResolution": 104,
  "BodyPartExamined": "BRAIN",
  "CoilString": "HC1-7;NC1_2",
  "ConsistencyInfo": "N4_VE11C_LATEST_20160120",
  "ConversionSoftware": "dcm2niix",
  "ConversionSoftwareVersion": "v1.0.20190902",
  "DerivedVendorReportedEchoSpacing": 0.000560011,
  "DeviceSerialNumber": "167006",
  "DwellTime": 2.1e-06,
  "EchoTime": 0.037,
  "EchoTrainLength": 104,
  "EffectiveEchoSpacing": 0.000560011,
  "FlipAngle": 52,
  "ImageComments": "Unaliased_MB4_PE3_LB",
  "ImageOrientationPatientDICOM": [0.998787, -0.0490587, -0.00414096, 0.044656, 0.938136, -0.343376],
  "ImageType": [
    "ORIGINAL",
    "PRIMARY",
    "M",
    "MB",
    "ND",
    "MOSAIC"
],
  "ImagingFrequency": 123.259,
  "InPlanePhaseEncodingDirectionDICOM": "COL",
  "InstitutionAddress": "Chemin_Queen-Mary_4565_Montreal_District_CA_H3W_1W5",
  "InstitutionName": "IUGM",
  "InstitutionalDepartmentName": "Department",
  "MRAcquisitionType": "2D",
  "MagneticFieldStrength": 3,
  "Manufacturer": "Siemens",
  "ManufacturersModelName": "Prisma_fit",
  "Modality": "MR",
  "MultibandAccelerationFactor": 4,
  "PartialFourier": 1,
  "PatientPosition": "HFS",
  "PercentPhaseFOV": 100,
  "PhaseEncodingDirection": "j",
  "PhaseEncodingSteps": 104,
  "PhaseResolution": 1,
  "PixelBandwidth": 2290,
  "ProcedureStepDescription": "hcptrt_generic",
  "ProtocolName": "func_task-wm_run-1",
  "PulseSequenceDetails": "%CustomerSeq%_cmrr_mbep2d_bold",
  "ReceiveCoilActiveElements": "HC1-7;NC1,2",
  "ReceiveCoilName": "HeadNeck_64",
  "ReconMatrixPE": 104,
  "RepetitionTime": 1.49,
  "SAR": 0.0295648,
  "ScanOptions": "FS",
  "ScanningSequence": "EP",
  "SequenceName": "epfid2d1_104",
  "SequenceVariant": "SK_SS",
  "SeriesDescription": "func_task-wm_run-1",
  "SeriesNumber": 21,
  "ShimSetting": [623, -7270, -8845, 641, -14, -275, 8, -5],
  "SliceThickness": 2,
  "SliceTiming": [0, 0.785, 0.0975, 0.8825, 0.1975, 0.98, 0.295, 1.0775, 0.3925, 1.1775, 0.49, 1.275, 0.5875, 1.3725, 0.6875, 0, 0.785, 0.0975, 0.8825, 0.1975, 0.98, 0.295, 1.0775, 0.3925, 1.1775, 0.49, 1.275, 0.5875, 1.3725, 0.6875, 0, 0.785, 0.0975, 0.8825, 0.1975, 0.98, 0.295, 1.0775, 0.3925, 1.1775, 0.49, 1.275, 0.5875, 1.3725, 0.6875, 0, 0.785, 0.0975, 0.8825, 0.1975, 0.98, 0.295, 1.0775, 0.3925, 1.1775, 0.49, 1.275, 0.5875, 1.3725, 0.6875],
  "SoftwareVersions": "syngo_MR_E11",
  "SpacingBetweenSlices": 2,
  "StationName": "MRC35049",
  "TaskName": "wm",
  "TotalReadoutTime": 0.0576811,
  "TxRefAmp": 217.442,
  "WipMemBlock": "abd66259-ebc0-478e-befa-bd9a1c7bbdbd||Sequence: R016 ve11c/master r/e634e98; Dec 19 2017 11:00:25 by eja",
  "dcmmeta_affine": [
    [-1.9975745677947998, 0.08931203186511993, -0.04146072268486023, 102.74750518798828],
    [0.09811748564243317, 1.8762718439102173, -0.6855484843254089, -68.84217834472656],
    [-0.008281928487122059, 0.6867511868476868, 1.8783780336380005, -68.13473510742188],
    [0.0, 0.0, 0.0, 1.0]
],
  "dcmmeta_reorient_transform": [
    [0.0, -1.0, 0.0, 103.0],
    [1.0, 0.0, 0.0, 0.0],
    [0.0, 0.0, 1.0, 0.0],
    [0.0, 0.0, 0.0, 1.0]
],
  "dcmmeta_shape": [104, 104, 60, 202],
  "dcmmeta_slice_dim": 2,
  "dcmmeta_version": 0.6,
  "global": {
    "const": {
      "AcquisitionMatrix": [104, 0, 0, 104],
      "AngioFlag": "N",
      "BitsAllocated": 16,
      "BitsStored": 16,
      "BodyPartExamined": "BRAIN",
      "Columns": 832,
      "EchoNumbers": 1,
      "EchoTime": 37.0,
      "EchoTrainLength": 104,
      "FlipAngle": 52.0,
      "HighBit": 15,
      "ImageOrientationPatient": [0.99878731086525, -0.049058741018, -0.0041409641737, 0.04465601627037, 0.9381359452302, -0.3433755793266],
      "ImagePositionPatient": [-871.57338363826, -771.66203248852, 255.59267608801],
      "ImageType": [
        "ORIGINAL",
        "PRIMARY",
        "M",
        "MB",
        "ND",
        "MOSAIC"
],
      "ImagedNucleus": "1H",
      "ImagingFrequency": 123.25923,
      "InPlanePhaseEncodingDirection": "COL",
      "MRAcquisitionType": "2D",
      "MagneticFieldStrength": 3.0,
      "Manufacturer": "SIEMENS",
      "ManufacturerModelName": "Prisma_fit",
      "Modality": "MR",
      "NumberOfAverages": 1.0,
      "NumberOfPhaseEncodingSteps": 104,
      "PercentPhaseFieldOfView": 100.0,
      "PercentSampling": 100.0,
      "PerformedProcedureStepStartTime": "092418.321000",
      "PhotometricInterpretation": "MONOCHROME2",
      "PixelBandwidth": 2290.0,
      "PixelRepresentation": 0,
      "PixelSpacing": [2.0, 2.0],
      "ProtocolName": "func_task-wm_run-1",
      "RepetitionTime": 1490.0,
      "Rows": 832,
      "SAR": 0.02956476518652,
      "SamplesPerPixel": 1,
      "ScanOptions": "FS",
      "ScanningSequence": "EP",
      "SequenceName": "epfid2d1_104",
      "SequenceVariant": [
        "SK",
        "SS"
],
      "SeriesDescription": "func_task-wm_run-1",
      "SeriesNumber": 21,
      "SeriesTime": "095557.862000",
      "SliceLocation": -42.524065640809,
      "SliceThickness": 2.0,
      "SmallestImagePixelValue": 0,
      "SoftwareVersions": "syngo MR E11",
      "SpacingBetweenSlices": 1.9999999914624,
      "SpecificCharacterSet": "ISO_IR 100",
      "StudyID": "1",
      "StudyTime": "092418.124000",
      "TransmitCoilName": "Body",
      "VariableFlipAngleFlag": "N",
      "WindowCenterWidthExplanation": "Algo1",
      "dBdt": 0.0},
    "slices": {}
  },
  "time": {
    "samples": {
      "AcquisitionNumber": [1, 2, 3, 4, 5, 6, 7, 8, 9, 10, 11, 12, 13, 14, 15, 16, 17, 18, 19, 20, 21, 22, 23, 24, 25, 26, 27, 28, 29, 30, 31, 32, 33, 34, 35, 36, 37, 38, 39, 40, 41, 42, 43, 44, 45, 46, 47, 48, 49, 50, 51, 52, 53, 54, 55, 56, 57, 58, 59, 60, 61, 62, 63, 64, 65, 66, 67, 68, 69, 70, 71, 72, 73, 74, 75, 76, 77, 78, 79, 80, 81, 82, 83, 84, 85, 86, 87, 88, 89, 90, 91, 92, 93, 94, 95, 96, 97, 98, 99, 100, 101, 102, 103, 104, 105, 106, 107, 108, 109, 110, 111, 112, 113, 114, 115, 116, 117, 118, 119, 120, 121, 122, 123, 124, 125, 126, 127, 128, 129, 130, 131, 132, 133, 134, 135, 136, 137, 138, 139, 140, 141, 142, 143, 144, 145, 146, 147, 148, 149, 150, 151, 152, 153, 154, 155, 156, 157, 158, 159, 160, 161, 162, 163, 164, 165, 166, 167, 168, 169, 170, 171, 172, 173, 174, 175, 176, 177, 178, 179, 180, 181, 182, 183, 184, 185, 186, 187, 188, 189, 190, 191, 192, 193, 194, 195, 196, 197, 198, 199, 200, 201, 202],
      "AcquisitionTime": ["095433.415000", "095434.905000", "095436.395000", "095437.885000", "095439.375000", "095440.865000", "095442.355000", "095443.845000", "095445.335000", "095446.825000", "095448.315000", "095449.805000", "095451.295000", "095452.785000", "095454.275000", "095455.765000", "095457.255000", "095458.745000", "095500.235000", "095501.725000", "095503.215000", "095504.705000", "095506.195000", "095507.685000", "095509.175000", "095510.665000", "095512.155000", "095513.645000", "095515.135000", "095516.625000", "095518.115000", "095519.605000", "095521.095000", "095522.585000", "095524.075000", "095525.565000", "095527.055000", "095528.545000", "095530.035000", "095531.525000", "095533.015000", "095534.505000", "095535.995000", "095537.485000", "095538.975000", "095540.465000", "095541.955000", "095543.445000", "095544.935000", "095546.425000", "095547.915000", "095549.405000", "095550.895000", "095552.385000", "095553.875000", "095555.365000", "095556.855000", "095558.345000", "095559.835000", "095601.325000", "095602.815000", "095604.305000", "095605.795000", "095607.285000", "095608.775000", "095610.265000", "095611.755000", "095613.245000", "095614.735000", "095616.225000", "095617.715000", "095619.205000", "095620.695000", "095622.185000", "095623.675000", "095625.165000", "095626.655000", "095628.145000", "095629.635000", "095631.125000", "095632.615000", "095634.105000", "095635.595000", "095637.085000", "095638.575000", "095640.065000", "095641.555000", "095643.045000", "095644.535000", "095646.025000", "095647.515000", "095649.005000", "095650.495000", "095651.985000", "095653.475000", "095654.965000", "095656.455000", "095657.945000", "095659.435000", "095700.925000", "095702.415000", "095703.905000", "095705.395000", "095706.885000", "095708.375000", "095709.865000", "095711.355000", "095712.845000", "095714.335000", "095715.825000", "095717.315000", "095718.805000", "095720.295000", "095721.785000", "095723.275000", "095724.765000", "095726.255000", "095727.745000", "095729.235000", "095730.725000", "095732.215000", "095733.705000", "095735.195000", "095736.685000", "095738.175000", "095739.665000", "095741.155000", "095742.645000", "095744.135000", "095745.625000", "095747.115000", "095748.605000", "095750.095000", "095751.585000", "095753.075000", "095754.565000", "095756.055000", "095757.545000", "095759.035000", "095800.525000", "095802.015000", "095803.505000", "095804.995000", "095806.485000", "095807.975000", "095809.465000", "095810.955000", "095812.445000", "095813.935000", "095815.425000", "095816.915000", "095818.405000", "095819.895000", "095821.385000", "095822.875000", "095824.365000", "095825.855000", "095827.345000", "095828.835000", "095830.325000", "095831.815000", "095833.305000", "095834.795000", "095836.285000", "095837.775000", "095839.265000", "095840.755000", "095842.245000", "095843.735000", "095845.225000", "095846.715000", "095848.205000", "095849.695000", "095851.185000", "095852.675000", "095854.165000", "095855.655000", "095857.145000", "095858.635000", "095900.125000", "095901.615000", "095903.105000", "095904.595000", "095906.085000", "095907.575000", "095909.065000", "095910.555000", "095912.045000", "095913.535000", "095915.025000", "095916.515000", "095918.005000", "095919.495000", "095920.985000", "095922.475000", "095923.965000", "095925.455000", "095926.945000", "095928.435000", "095929.925000", "095931.415000", "095932.905000"],
      "ContentTime": ["095557.865000", "095557.869000", "095557.872000", "095557.875000", "095557.878000", "095557.881000", "095557.884000", "095557.887000", "095557.890000", "095557.893000", "095557.896000", "095557.899000", "095557.902000", "095557.905000", "095557.908000", "095557.911000", "095557.914000", "095557.917000", "095557.921000", "095557.924000", "095557.927000", "095557.930000", "095557.933000", "095557.936000", "095557.939000", "095557.946000", "095557.949000", "095557.952000", "095557.956000", "095557.959000", "095557.962000", "095617.826000", "095617.829000", "095617.832000", "095617.835000", "095617.838000", "095617.841000", "095617.845000", "095617.848000", "095617.851000", "095617.854000", "095617.857000", "095617.860000", "095617.863000", "095617.866000", "095617.869000", "095617.872000", "095617.875000", "095617.878000", "095617.881000", "095617.884000", "095637.826000", "095637.829000", "095637.832000", "095637.835000", "095637.839000", "095637.841000", "095637.845000", "095637.848000", "095637.851000", "095637.854000", "095637.857000", "095637.860000", "095637.863000", "095637.866000", "095637.869000", "095637.872000", "095637.875000", "095637.878000", "095637.881000", "095637.884000", "095657.826000", "095657.829000", "095657.833000", "095657.843000", "095657.846000", "095657.849000", "095657.852000", "095657.855000", "095657.858000", "095657.861000", "095657.865000", "095657.868000", "095657.871000", "095657.874000", "095657.877000", "095657.880000", "095657.883000", "095657.886000", "095657.890000", "095657.893000", "095737.827000", "095737.830000", "095737.833000", "095737.836000", "095737.839000", "095737.843000", "095737.846000", "095737.849000", "095737.852000", "095737.855000", "095737.858000", "095737.861000", "095737.864000", "095737.867000", "095737.870000", "095737.873000", "095737.876000", "095737.879000", "095737.883000", "095737.886000", "095737.889000", "095737.892000", "095737.895000", "095737.898000", "095737.901000", "095737.920000", "095737.923000", "095737.926000", "095737.929000", "095737.932000", "095737.935000", "095737.938000", "095817.826000", "095817.829000", "095817.832000", "095817.835000", "095817.838000", "095817.841000", "095817.844000", "095817.847000", "095817.851000", "095817.854000", "095817.857000", "095817.860000", "095817.863000", "095817.866000", "095817.869000", "095817.872000", "095817.875000", "095817.878000", "095817.881000", "095817.884000", "095817.888000", "095817.891000", "095817.893000", "095817.896000", "095817.900000", "095817.903000", "095817.906000", "095857.826000", "095857.829000", "095857.832000", "095857.842000", "095857.845000", "095857.848000", "095857.851000", "095857.854000", "095857.862000", "095857.865000", "095857.868000", "095857.871000", "095857.874000", "095857.877000", "095857.880000", "095857.883000", "095857.886000", "095857.889000", "095857.892000", "095857.896000", "095857.899000", "095857.902000", "095857.905000", "095857.908000", "095857.911000", "095857.914000", "095857.917000", "095935.071000", "095935.076000", "095935.080000", "095935.085000", "095935.088000", "095935.092000", "095935.095000", "095935.099000", "095935.102000", "095935.106000", "095935.112000", "095935.116000", "095935.119000", "095935.122000", "095935.129000", "095935.133000", "095935.138000", "095935.144000", "095935.157000", "095935.160000", "095935.163000", "095935.167000", "095935.170000", "095935.173000", "095935.176000"],
      "InstanceCreationTime": ["095557.865000", "095557.869000", "095557.872000", "095557.875000", "095557.878000", "095557.881000", "095557.884000", "095557.887000", "095557.890000", "095557.893000", "095557.896000", "095557.899000", "095557.902000", "095557.905000", "095557.908000", "095557.911000", "095557.914000", "095557.917000", "095557.921000", "095557.924000", "095557.927000", "095557.930000", "095557.933000", "095557.936000", "095557.939000", "095557.946000", "095557.949000", "095557.952000", "095557.956000", "095557.959000", "095557.962000", "095617.826000", "095617.829000", "095617.832000", "095617.835000", "095617.838000", "095617.841000", "095617.845000", "095617.848000", "095617.851000", "095617.854000", "095617.857000", "095617.860000", "095617.863000", "095617.866000", "095617.869000", "095617.872000", "095617.875000", "095617.878000", "095617.881000", "095617.884000", "095637.826000", "095637.829000", "095637.832000", "095637.835000", "095637.839000", "095637.841000", "095637.845000", "095637.848000", "095637.851000", "095637.854000", "095637.857000", "095637.860000", "095637.863000", "095637.866000", "095637.869000", "095637.872000", "095637.875000", "095637.878000", "095637.881000", "095637.884000", "095657.826000", "095657.829000", "095657.833000", "095657.843000", "095657.846000", "095657.849000", "095657.852000", "095657.855000", "095657.858000", "095657.861000", "095657.865000", "095657.868000", "095657.871000", "095657.874000", "095657.877000", "095657.880000", "095657.883000", "095657.886000", "095657.890000", "095657.893000", "095737.827000", "095737.830000", "095737.833000", "095737.836000", "095737.839000", "095737.843000", "095737.846000", "095737.849000", "095737.852000", "095737.855000", "095737.858000", "095737.861000", "095737.864000", "095737.867000", "095737.870000", "095737.873000", "095737.876000", "095737.879000", "095737.883000", "095737.886000", "095737.889000", "095737.892000", "095737.895000", "095737.898000", "095737.901000", "095737.920000", "095737.923000", "095737.926000", "095737.929000", "095737.932000", "095737.935000", "095737.938000", "095817.826000", "095817.829000", "095817.832000", "095817.835000", "095817.838000", "095817.841000", "095817.844000", "095817.847000", "095817.851000", "095817.854000", "095817.857000", "095817.860000", "095817.863000", "095817.866000", "095817.869000", "095817.872000", "095817.875000", "095817.878000", "095817.881000", "095817.884000", "095817.888000", "095817.891000", "095817.893000", "095817.896000", "095817.900000", "095817.903000", "095817.906000", "095857.826000", "095857.829000", "095857.832000", "095857.842000", "095857.845000", "095857.848000", "095857.851000", "095857.854000", "095857.862000", "095857.865000", "095857.868000", "095857.871000", "095857.874000", "095857.877000", "095857.880000", "095857.883000", "095857.886000", "095857.889000", "095857.892000", "095857.896000", "095857.899000", "095857.902000", "095857.905000", "095857.908000", "095857.911000", "095857.914000", "095857.917000", "095935.071000", "095935.076000", "095935.080000", "095935.085000", "095935.088000", "095935.092000", "095935.095000", "095935.099000", "095935.102000", "095935.106000", "095935.112000", "095935.116000", "095935.119000", "095935.122000", "095935.129000", "095935.133000", "095935.138000", "095935.144000", "095935.157000", "095935.160000", "095935.163000", "095935.167000", "095935.170000", "095935.173000", "095935.176000"],
      "InstanceNumber": [1, 2, 3, 4, 5, 6, 7, 8, 9, 10, 11, 12, 13, 14, 15, 16, 17, 18, 19, 20, 21, 22, 23, 24, 25, 26, 27, 28, 29, 30, 31, 32, 33, 34, 35, 36, 37, 38, 39, 40, 41, 42, 43, 44, 45, 46, 47, 48, 49, 50, 51, 52, 53, 54, 55, 56, 57, 58, 59, 60, 61, 62, 63, 64, 65, 66, 67, 68, 69, 70, 71, 72, 73, 74, 75, 76, 77, 78, 79, 80, 81, 82, 83, 84, 85, 86, 87, 88, 89, 90, 91, 92, 93, 94, 95, 96, 97, 98, 99, 100, 101, 102, 103, 104, 105, 106, 107, 108, 109, 110, 111, 112, 113, 114, 115, 116, 117, 118, 119, 120, 121, 122, 123, 124, 125, 126, 127, 128, 129, 130, 131, 132, 133, 134, 135, 136, 137, 138, 139, 140, 141, 142, 143, 144, 145, 146, 147, 148, 149, 150, 151, 152, 153, 154, 155, 156, 157, 158, 159, 160, 161, 162, 163, 164, 165, 166, 167, 168, 169, 170, 171, 172, 173, 174, 175, 176, 177, 178, 179, 180, 181, 182, 183, 184, 185, 186, 187, 188, 189, 190, 191, 192, 193, 194, 195, 196, 197, 198, 199, 200, 201, 202],
      "LargestImagePixelValue": [43640, 42552, 42228, 41380, 41399, 41418, 41894, 42697, 42643, 42402, 41781, 41860, 41650, 41851, 41656, 41674, 41996, 42025, 41903, 42614, 42241, 42129, 42200, 42166, 41964, 41645, 41920, 42209, 41909, 42367, 42103, 42429, 42062, 41645, 41692, 41762, 41456, 42165, 41828, 41967, 41922, 42088, 42182, 41387, 41706, 42093, 41795, 41706, 41925, 41781, 42265, 42410, 42996, 42913, 42803, 42603, 42098, 42343, 42295, 42050, 42448, 42702, 43047, 42399, 42104, 42184, 42899, 42146, 42423, 42746, 42438, 42448, 42342, 42520, 42753, 43023, 42629, 42811, 42191, 42150, 41797, 42229, 42317, 41877, 42039, 42516, 42268, 42632, 42092, 41903, 42315, 41962, 41831, 41788, 41970, 41940, 42056, 42430, 42350, 42092, 42189, 41590, 42134, 42377, 41869, 42057, 42130, 41982, 42371, 41792, 41705, 41956, 41809, 41806, 42311, 42150, 42267, 42099, 42158, 43099, 42636, 41628, 42147, 41791, 41623, 41644, 41376, 41896, 41943, 41948, 41829, 42083, 41704, 41615, 42026, 42337, 42441, 41821, 42076, 41821, 41882, 41357, 41843, 41796, 42240, 42059, 41726, 41854, 42673, 42445, 42157, 41839, 41868, 41803, 42009, 42038, 41767, 41674, 41881, 42038, 41857, 41870, 41706, 41814, 41324, 41752, 41505, 41602, 41983, 41483, 41869, 42155, 41613, 41947, 42022, 41622, 41992, 41861, 41677, 41828, 41418, 41813, 42272, 41481, 42393, 41427, 41591, 41482, 41315, 41429, 41300, 41348, 41895, 41701, 42218, 42106, 41913, 41679, 42014, 41719, 41028, 41179],
      "WindowCenter": [10250.0, 10195.0, 10173.0, 10163.0, 10167.0, 10165.0, 10187.0, 10232.0, 10233.0, 10220.0, 10210.0, 10202.0, 10194.0, 10187.0, 10171.0, 10147.0, 10141.0, 10140.0, 10144.0, 10161.0, 10156.0, 10155.0, 10147.0, 10154.0, 10171.0, 10175.0, 10190.0, 10189.0, 10184.0, 10182.0, 10196.0, 10204.0, 10199.0, 10192.0, 10185.0, 10188.0, 10183.0, 10181.0, 10173.0, 10171.0, 10172.0, 10164.0, 10163.0, 10159.0, 10164.0, 10163.0, 10155.0, 10150.0, 10161.0, 10169.0, 10171.0, 10186.0, 10212.0, 10196.0, 10184.0, 10175.0, 10169.0, 10175.0, 10178.0, 10171.0, 10175.0, 10163.0, 10166.0, 10148.0, 10145.0, 10144.0, 10163.0, 10169.0, 10197.0, 10200.0, 10187.0, 10178.0, 10179.0, 10177.0, 10181.0, 10189.0, 10187.0, 10192.0, 10180.0, 10179.0, 10176.0, 10170.0, 10170.0, 10169.0, 10163.0, 10161.0, 10160.0, 10166.0, 10174.0, 10170.0, 10170.0, 10177.0, 10171.0, 10165.0, 10156.0, 10153.0, 10156.0, 10175.0, 10176.0, 10162.0, 10153.0, 10156.0, 10178.0, 10193.0, 10190.0, 10194.0, 10187.0, 10174.0, 10171.0, 10164.0, 10156.0, 10167.0, 10163.0, 10161.0, 10161.0, 10161.0, 10162.0, 10163.0, 10160.0, 10156.0, 10148.0, 10152.0, 10175.0, 10169.0, 10154.0, 10139.0, 10141.0, 10144.0, 10132.0, 10121.0, 10125.0, 10149.0, 10161.0, 10150.0, 10147.0, 10154.0, 10167.0, 10185.0, 10189.0, 10176.0, 10164.0, 10151.0, 10163.0, 10179.0, 10187.0, 10182.0, 10169.0, 10159.0, 10160.0, 10163.0, 10175.0, 10170.0, 10163.0, 10159.0, 10173.0, 10185.0, 10172.0, 10148.0, 10129.0, 10127.0, 10141.0, 10151.0, 10155.0, 10160.0, 10149.0, 10146.0, 10139.0, 10146.0, 10150.0, 10146.0, 10153.0, 10167.0, 10163.0, 10162.0, 10170.0, 10166.0, 10171.0, 10171.0, 10158.0, 10155.0, 10150.0, 10163.0, 10175.0, 10179.0, 10195.0, 10169.0, 10151.0, 10132.0, 10124.0, 10123.0, 10124.0, 10131.0, 10130.0, 10124.0, 10129.0, 10142.0, 10167.0, 10188.0, 10180.0, 10158.0, 10143.0, 10143.0],
      "WindowWidth": [22132.0, 21972.0, 21900.0, 21864.0, 21863.0, 21854.0, 21900.0, 22000.0, 22004.0, 21972.0, 21946.0, 21929.0, 21911.0, 21895.0, 21861.0, 21805.0, 21787.0, 21788.0, 21802.0, 21835.0, 21825.0, 21820.0, 21802.0, 21819.0, 21859.0, 21873.0, 21903.0, 21900.0, 21891.0, 21886.0, 21913.0, 21934.0, 21924.0, 21906.0, 21894.0, 21897.0, 21885.0, 21880.0, 21863.0, 21857.0, 21862.0, 21845.0, 21840.0, 21837.0, 21846.0, 21842.0, 21825.0, 21817.0, 21837.0, 21854.0, 21861.0, 21896.0, 21958.0, 21919.0, 21887.0, 21865.0, 21852.0, 21862.0, 21871.0, 21859.0, 21864.0, 21838.0, 21842.0, 21807.0, 21799.0, 21797.0, 21836.0, 21851.0, 21910.0, 21921.0, 21891.0, 21869.0, 21874.0, 21871.0, 21874.0, 21895.0, 21894.0, 21903.0, 21877.0, 21874.0, 21867.0, 21855.0, 21855.0, 21851.0, 21839.0, 21835.0, 21830.0, 21844.0, 21862.0, 21855.0, 21855.0, 21869.0, 21859.0, 21846.0, 21824.0, 21816.0, 21825.0, 21862.0, 21864.0, 21836.0, 21817.0, 21826.0, 21874.0, 21906.0, 21903.0, 21909.0, 21893.0, 21864.0, 21856.0, 21841.0, 21823.0, 21846.0, 21839.0, 21834.0, 21832.0, 21834.0, 21839.0, 21840.0, 21828.0, 21816.0, 21800.0, 21813.0, 21864.0, 21850.0, 21819.0, 21786.0, 21790.0, 21796.0, 21771.0, 21743.0, 21749.0, 21805.0, 21835.0, 21814.0, 21807.0, 21821.0, 21849.0, 21886.0, 21898.0, 21871.0, 21841.0, 21814.0, 21841.0, 21874.0, 21892.0, 21886.0, 21858.0, 21836.0, 21832.0, 21832.0, 21864.0, 21855.0, 21837.0, 21827.0, 21856.0, 21888.0, 21860.0, 21807.0, 21761.0, 21757.0, 21784.0, 21810.0, 21823.0, 21832.0, 21809.0, 21802.0, 21784.0, 21799.0, 21804.0, 21798.0, 21816.0, 21844.0, 21839.0, 21838.0, 21854.0, 21849.0, 21857.0, 21855.0, 21827.0, 21820.0, 21810.0, 21839.0, 21862.0, 21876.0, 21914.0, 21857.0, 21813.0, 21768.0, 21750.0, 21748.0, 21752.0, 21767.0, 21763.0, 21753.0, 21762.0, 21790.0, 21849.0, 21900.0, 21878.0, 21829.0, 21796.0, 21796.0]
    },
    "slices": {}
  }
}