{
  "AcquisitionMatrixPE": 104,
  "AcquisitionNumber": 1,
  "AcquisitionTime": "09:46:41.317500",
  "BandwidthPerPixelPhaseEncode": 17.17,
  "BaseResolution": 104,
  "BodyPartExamined": "BRAIN",
  "CoilString": "HC1-7;NC1_2",
  "ConsistencyInfo": "N4_VE11C_LATEST_20160120",
  "ConversionSoftware": "dcm2niix",
  "ConversionSoftwareVersion": "v1.0.20190902",
  "DerivedVendorReportedEchoSpacing": 0.000560011,
  "DeviceSerialNumber": "167006",
  "DwellTime": 2.1e-06,
  "EchoTime": 0.037,
  "EchoTrainLength": 104,
  "EffectiveEchoSpacing": 0.000560011,
  "FlipAngle": 52,
  "ImageComments": "Unaliased_MB4_PE3_LB",
  "ImageOrientationPatientDICOM": [0.998779, -0.0492225, -0.00408105, 0.0448303, 0.938127, -0.343376],
  "ImageType": [
    "ORIGINAL",
    "PRIMARY",
    "M",
    "MB",
    "ND",
    "MOSAIC"
],
  "ImagingFrequency": 123.259,
  "InPlanePhaseEncodingDirectionDICOM": "COL",
  "InstitutionAddress": "Chemin_Queen-Mary_4565_Montreal_District_CA_H3W_1W5",
  "InstitutionName": "IUGM",
  "InstitutionalDepartmentName": "Department",
  "MRAcquisitionType": "2D",
  "MagneticFieldStrength": 3,
  "Manufacturer": "Siemens",
  "ManufacturersModelName": "Prisma_fit",
  "Modality": "MR",
  "MultibandAccelerationFactor": 4,
  "PartialFourier": 1,
  "PatientPosition": "HFS",
  "PercentPhaseFOV": 100,
  "PhaseEncodingDirection": "j",
  "PhaseEncodingSteps": 104,
  "PhaseResolution": 1,
  "PixelBandwidth": 2290,
  "ProcedureStepDescription": "hcptrt_generic",
  "ProtocolName": "func_task-social_run-1",
  "PulseSequenceDetails": "%CustomerSeq%_cmrr_mbep2d_bold",
  "ReceiveCoilActiveElements": "HC1-7;NC1,2",
  "ReceiveCoilName": "HeadNeck_64",
  "ReconMatrixPE": 104,
  "RepetitionTime": 1.49,
  "SAR": 0.0294399,
  "ScanOptions": "FS",
  "ScanningSequence": "EP",
  "SequenceName": "epfid2d1_104",
  "SequenceVariant": "SK_SS",
  "SeriesDescription": "func_task-social_run-1",
  "SeriesNumber": 17,
  "ShimSetting": [623, -7270, -8845, 641, -15, -275, 8, -5],
  "SliceThickness": 2,
  "SliceTiming": [0, 0.785, 0.1, 0.8825, 0.1975, 0.98, 0.295, 1.0775, 0.3925, 1.1775, 0.49, 1.275, 0.5875, 1.3725, 0.6875, 0, 0.785, 0.1, 0.8825, 0.1975, 0.98, 0.295, 1.0775, 0.3925, 1.1775, 0.49, 1.275, 0.5875, 1.3725, 0.6875, 0, 0.785, 0.1, 0.8825, 0.1975, 0.98, 0.295, 1.0775, 0.3925, 1.1775, 0.49, 1.275, 0.5875, 1.3725, 0.6875, 0, 0.785, 0.1, 0.8825, 0.1975, 0.98, 0.295, 1.0775, 0.3925, 1.1775, 0.49, 1.275, 0.5875, 1.3725, 0.6875],
  "SoftwareVersions": "syngo_MR_E11",
  "SpacingBetweenSlices": 2,
  "StationName": "MRC35049",
  "TaskName": "social",
  "TotalReadoutTime": 0.0576811,
  "TxRefAmp": 217.442,
  "WipMemBlock": "592ef780-b3d4-4eb2-9b14-6f7a085571e7||Sequence: R016 ve11c/master r/e634e98; Dec 19 2017 11:00:25 by eja",
  "dcmmeta_affine": [
    [-1.9975589513778687, 0.0896606370806694, -0.04146074876189232, 102.72891235351562],
    [0.09844492375850677, 1.876254677772522, -0.6855485439300537, -68.85832977294922],
    [-0.008162103593349457, 0.6867526173591614, 1.8783780336380005, -68.14104461669922],
    [0.0, 0.0, 0.0, 1.0]
],
  "dcmmeta_reorient_transform": [
    [0.0, -1.0, 0.0, 103.0],
    [1.0, 0.0, 0.0, 0.0],
    [0.0, 0.0, 1.0, 0.0],
    [0.0, 0.0, 0.0, 1.0]
],
  "dcmmeta_shape": [104, 104, 60, 139],
  "dcmmeta_slice_dim": 2,
  "dcmmeta_version": 0.6,
  "global": {
    "const": {
      "AcquisitionMatrix": [104, 0, 0, 104],
      "AngioFlag": "N",
      "BitsAllocated": 16,
      "BitsStored": 16,
      "BodyPartExamined": "BRAIN",
      "Columns": 832,
      "EchoNumbers": 1,
      "EchoTime": 37.0,
      "EchoTrainLength": 104,
      "FlipAngle": 52.0,
      "HighBit": 15,
      "ImageOrientationPatient": [0.99877950231791, -0.0492224620135, -0.0040810516936, 0.04483031738178, 0.9381273643998, -0.3433763107842],
      "ImagePositionPatient": [-871.71190545156, -771.5186773694, 255.54343747722],
      "ImageType": [
        "ORIGINAL",
        "PRIMARY",
        "M",
        "MB",
        "ND",
        "MOSAIC"
],
      "ImagedNucleus": "1H",
      "ImagingFrequency": 123.259227,
      "InPlanePhaseEncodingDirection": "COL",
      "MRAcquisitionType": "2D",
      "MagneticFieldStrength": 3.0,
      "Manufacturer": "SIEMENS",
      "ManufacturerModelName": "Prisma_fit",
      "Modality": "MR",
      "NumberOfAverages": 1.0,
      "NumberOfPhaseEncodingSteps": 104,
      "PercentPhaseFieldOfView": 100.0,
      "PercentSampling": 100.0,
      "PerformedProcedureStepStartTime": "092418.321000",
      "PhotometricInterpretation": "MONOCHROME2",
      "PixelBandwidth": 2290.0,
      "PixelRepresentation": 0,
      "PixelSpacing": [2.0, 2.0],
      "ProtocolName": "func_task-social_run-1",
      "RepetitionTime": 1490.0,
      "Rows": 832,
      "SAR": 0.02943987512053,
      "SamplesPerPixel": 1,
      "ScanOptions": "FS",
      "ScanningSequence": "EP",
      "SequenceName": "epfid2d1_104",
      "SequenceVariant": [
        "SK",
        "SS"
],
      "SeriesDescription": "func_task-social_run-1",
      "SeriesNumber": 17,
      "SeriesTime": "094737.222000",
      "SliceLocation": -42.524065939527,
      "SliceThickness": 2.0,
      "SmallestImagePixelValue": 0,
      "SoftwareVersions": "syngo MR E11",
      "SpacingBetweenSlices": 1.9999999914624,
      "SpecificCharacterSet": "ISO_IR 100",
      "StudyID": "1",
      "StudyTime": "092418.124000",
      "TransmitCoilName": "Body",
      "VariableFlipAngleFlag": "N",
      "WindowCenterWidthExplanation": "Algo1",
      "dBdt": 0.0},
    "slices": {}
  },
  "time": {
    "samples": {
      "AcquisitionNumber": [1, 2, 3, 4, 5, 6, 7, 8, 9, 10, 11, 12, 13, 14, 15, 16, 17, 18, 19, 20, 21, 22, 23, 24, 25, 26, 27, 28, 29, 30, 31, 32, 33, 34, 35, 36, 37, 38, 39, 40, 41, 42, 43, 44, 45, 46, 47, 48, 49, 50, 51, 52, 53, 54, 55, 56, 57, 58, 59, 60, 61, 62, 63, 64, 65, 66, 67, 68, 69, 70, 71, 72, 73, 74, 75, 76, 77, 78, 79, 80, 81, 82, 83, 84, 85, 86, 87, 88, 89, 90, 91, 92, 93, 94, 95, 96, 97, 98, 99, 100, 101, 102, 103, 104, 105, 106, 107, 108, 109, 110, 111, 112, 113, 114, 115, 116, 117, 118, 119, 120, 121, 122, 123, 124, 125, 126, 127, 128, 129, 130, 131, 132, 133, 134, 135, 136, 137, 138, 139],
      "AcquisitionTime": ["094641.317500", "094642.807500", "094644.297500", "094645.787500", "094647.277500", "094648.767500", "094650.257500", "094651.747500", "094653.237500", "094654.727500", "094656.217500", "094657.707500", "094659.197500", "094700.687500", "094702.177500", "094703.667500", "094705.157500", "094706.647500", "094708.137500", "094709.627500", "094711.117500", "094712.607500", "094714.097500", "094715.587500", "094717.077500", "094718.567500", "094720.057500", "094721.547500", "094723.037500", "094724.527500", "094726.017500", "094727.507500", "094728.997500", "094730.487500", "094731.977500", "094733.467500", "094734.957500", "094736.447500", "094737.937500", "094739.427500", "094740.917500", "094742.407500", "094743.897500", "094745.387500", "094746.877500", "094748.367500", "094749.857500", "094751.347500", "094752.837500", "094754.327500", "094755.817500", "094757.307500", "094758.797500", "094800.287500", "094801.777500", "094803.267500", "094804.757500", "094806.247500", "094807.737500", "094809.227500", "094810.717500", "094812.207500", "094813.697500", "094815.187500", "094816.677500", "094818.167500", "094819.657500", "094821.147500", "094822.637500", "094824.127500", "094825.617500", "094827.107500", "094828.597500", "094830.087500", "094831.577500", "094833.067500", "094834.557500", "094836.047500", "094837.537500", "094839.027500", "094840.517500", "094842.007500", "094843.497500", "094844.987500", "094846.477500", "094847.967500", "094849.457500", "094850.947500", "094852.437500", "094853.927500", "094855.417500", "094856.907500", "094858.397500", "094859.887500", "094901.377500", "094902.867500", "094904.357500", "094905.847500", "094907.337500", "094908.827500", "094910.317500", "094911.807500", "094913.297500", "094914.787500", "094916.277500", "094917.767500", "094919.257500", "094920.747500", "094922.237500", "094923.727500", "094925.217500", "094926.707500", "094928.197500", "094929.687500", "094931.177500", "094932.667500", "094934.157500", "094935.647500", "094937.137500", "094938.627500", "094940.117500", "094941.607500", "094943.097500", "094944.587500", "094946.077500", "094947.567500", "094949.057500", "094950.547500", "094952.037500", "094953.527500", "094955.017500", "094956.507500", "094957.997500", "094959.487500", "095000.977500", "095002.467500", "095003.957500", "095005.447500", "095006.937500"],
      "ContentTime": ["094737.224000", "094757.191000", "094757.194000", "094757.197000", "094757.200000", "094757.211000", "094757.214000", "094757.217000", "094757.220000", "094757.223000", "094757.226000", "094757.229000", "094757.232000", "094757.237000", "094757.240000", "094757.243000", "094757.246000", "094757.249000", "094757.252000", "094757.261000", "094757.264000", "094817.191000", "094817.194000", "094817.197000", "094817.200000", "094817.203000", "094817.207000", "094817.210000", "094817.213000", "094817.216000", "094817.219000", "094817.222000", "094817.225000", "094817.228000", "094817.231000", "094817.234000", "094817.237000", "094817.240000", "094817.243000", "094817.246000", "094817.249000", "094837.192000", "094837.195000", "094837.198000", "094837.201000", "094837.204000", "094837.207000", "094837.210000", "094837.214000", "094837.217000", "094837.220000", "094837.223000", "094837.226000", "094837.229000", "094837.233000", "094837.236000", "094837.239000", "094837.242000", "094837.245000", "094837.262000", "094837.265000", "094857.192000", "094857.195000", "094857.198000", "094857.201000", "094857.204000", "094857.207000", "094857.210000", "094857.213000", "094857.216000", "094857.219000", "094857.222000", "094857.226000", "094857.228000", "094857.231000", "094857.234000", "094857.238000", "094857.241000", "094857.244000", "094857.247000", "094857.250000", "094857.253000", "094917.192000", "094917.195000", "094917.198000", "094917.201000", "094917.204000", "094917.207000", "094917.211000", "094917.214000", "094917.217000", "094917.220000", "094917.223000", "094917.226000", "094917.229000", "094917.232000", "094917.235000", "094917.238000", "094917.241000", "094917.244000", "094917.247000", "094917.250000", "094957.191000", "094957.194000", "094957.198000", "094957.201000", "094957.204000", "094957.206000", "094957.210000", "094957.213000", "094957.216000", "094957.219000", "094957.222000", "094957.225000", "094957.228000", "094957.231000", "094957.234000", "094957.237000", "094957.240000", "094957.243000", "094957.246000", "094957.249000", "094957.252000", "094957.255000", "094957.258000", "094957.261000", "094957.264000", "094957.267000", "094957.270000", "094957.273000", "095009.401000", "095009.404000", "095009.408000", "095009.411000", "095009.414000", "095009.417000", "095009.420000", "095009.423000", "095009.426000"],
      "InstanceCreationTime": ["094737.224000", "094757.191000", "094757.194000", "094757.197000", "094757.200000", "094757.211000", "094757.214000", "094757.217000", "094757.220000", "094757.223000", "094757.226000", "094757.229000", "094757.232000", "094757.237000", "094757.240000", "094757.243000", "094757.246000", "094757.249000", "094757.252000", "094757.261000", "094757.264000", "094817.191000", "094817.194000", "094817.197000", "094817.200000", "094817.203000", "094817.207000", "094817.210000", "094817.213000", "094817.216000", "094817.219000", "094817.222000", "094817.225000", "094817.228000", "094817.231000", "094817.234000", "094817.237000", "094817.240000", "094817.243000", "094817.246000", "094817.249000", "094837.192000", "094837.195000", "094837.198000", "094837.201000", "094837.204000", "094837.207000", "094837.210000", "094837.214000", "094837.217000", "094837.220000", "094837.223000", "094837.226000", "094837.229000", "094837.233000", "094837.236000", "094837.239000", "094837.242000", "094837.245000", "094837.262000", "094837.265000", "094857.192000", "094857.195000", "094857.198000", "094857.201000", "094857.204000", "094857.207000", "094857.210000", "094857.213000", "094857.216000", "094857.219000", "094857.222000", "094857.226000", "094857.228000", "094857.231000", "094857.234000", "094857.238000", "094857.241000", "094857.244000", "094857.247000", "094857.250000", "094857.253000", "094917.192000", "094917.195000", "094917.198000", "094917.201000", "094917.204000", "094917.207000", "094917.211000", "094917.214000", "094917.217000", "094917.220000", "094917.223000", "094917.226000", "094917.229000", "094917.232000", "094917.235000", "094917.238000", "094917.241000", "094917.244000", "094917.247000", "094917.250000", "094957.191000", "094957.194000", "094957.198000", "094957.201000", "094957.204000", "094957.206000", "094957.210000", "094957.213000", "094957.216000", "094957.219000", "094957.222000", "094957.225000", "094957.228000", "094957.231000", "094957.234000", "094957.237000", "094957.240000", "094957.243000", "094957.246000", "094957.249000", "094957.252000", "094957.255000", "094957.258000", "094957.261000", "094957.264000", "094957.267000", "094957.270000", "094957.273000", "095009.401000", "095009.404000", "095009.408000", "095009.411000", "095009.414000", "095009.417000", "095009.420000", "095009.423000", "095009.426000"],
      "InstanceNumber": [1, 2, 3, 4, 5, 6, 7, 8, 9, 10, 11, 12, 13, 14, 15, 16, 17, 18, 19, 20, 21, 22, 23, 24, 25, 26, 27, 28, 29, 30, 31, 32, 33, 34, 35, 36, 37, 38, 39, 40, 41, 42, 43, 44, 45, 46, 47, 48, 49, 50, 51, 52, 53, 54, 55, 56, 57, 58, 59, 60, 61, 62, 63, 64, 65, 66, 67, 68, 69, 70, 71, 72, 73, 74, 75, 76, 77, 78, 79, 80, 81, 82, 83, 84, 85, 86, 87, 88, 89, 90, 91, 92, 93, 94, 95, 96, 97, 98, 99, 100, 101, 102, 103, 104, 105, 106, 107, 108, 109, 110, 111, 112, 113, 114, 115, 116, 117, 118, 119, 120, 121, 122, 123, 124, 125, 126, 127, 128, 129, 130, 131, 132, 133, 134, 135, 136, 137, 138, 139],
      "LargestImagePixelValue": [45342, 43511, 43323, 43409, 42290, 42122, 42775, 42161, 43105, 43242, 42960, 41968, 42736, 42935, 41901, 42196, 43580, 43257, 42766, 42119, 41128, 42621, 43195, 42760, 42297, 42032, 43111, 42131, 41959, 42713, 43552, 42843, 42734, 43160, 42672, 42751, 43299, 43103, 42879, 43521, 43584, 43190, 43713, 44020, 43120, 43071, 43973, 43643, 42166, 43841, 43259, 42654, 42273, 41593, 42171, 43502, 42742, 42870, 42612, 42858, 42730, 43104, 41727, 42342, 42487, 42791, 41832, 42583, 42302, 41940, 42679, 42819, 42158, 42680, 42470, 41939, 42836, 42354, 42287, 41589, 41982, 42480, 43143, 42433, 41674, 42117, 42920, 42428, 42827, 43437, 42537, 43169, 42517, 43442, 42716, 42457, 42794, 43858, 41895, 42780, 42836, 42757, 42608, 42890, 42704, 42035, 42267, 43418, 42046, 42647, 41855, 42452, 41916, 41639, 42286, 42066, 42033, 42357, 42275, 42047, 41651, 41250, 42101, 43021, 42177, 41878, 41948, 42599, 41992, 41795, 42473, 41742, 41488, 42166, 41351, 40655, 41274, 41356, 39925],
      "WindowCenter": [10287.0, 10225.0, 10208.0, 10210.0, 10191.0, 10187.0, 10182.0, 10192.0, 10219.0, 10222.0, 10215.0, 10202.0, 10206.0, 10204.0, 10194.0, 10201.0, 10221.0, 10216.0, 10193.0, 10162.0, 10153.0, 10186.0, 10218.0, 10193.0, 10161.0, 10151.0, 10177.0, 10182.0, 10183.0, 10181.0, 10179.0, 10173.0, 10186.0, 10201.0, 10198.0, 10197.0, 10197.0, 10197.0, 10193.0, 10179.0, 10178.0, 10186.0, 10215.0, 10213.0, 10190.0, 10195.0, 10218.0, 10229.0, 10211.0, 10212.0, 10199.0, 10179.0, 10162.0, 10156.0, 10175.0, 10190.0, 10176.0, 10167.0, 10175.0, 10206.0, 10216.0, 10192.0, 10165.0, 10177.0, 10200.0, 10200.0, 10179.0, 10180.0, 10183.0, 10192.0, 10198.0, 10204.0, 10193.0, 10191.0, 10187.0, 10174.0, 10177.0, 10162.0, 10146.0, 10139.0, 10157.0, 10175.0, 10189.0, 10178.0, 10164.0, 10176.0, 10206.0, 10211.0, 10199.0, 10188.0, 10188.0, 10187.0, 10181.0, 10185.0, 10158.0, 10139.0, 10153.0, 10158.0, 10163.0, 10186.0, 10173.0, 10140.0, 10122.0, 10133.0, 10137.0, 10153.0, 10166.0, 10170.0, 10145.0, 10148.0, 10143.0, 10147.0, 10141.0, 10135.0, 10133.0, 10128.0, 10135.0, 10142.0, 10150.0, 10143.0, 10129.0, 10128.0, 10139.0, 10171.0, 10162.0, 10148.0, 10136.0, 10152.0, 10156.0, 10154.0, 10145.0, 10141.0, 10147.0, 10151.0, 10171.0, 10194.0, 10203.0, 10190.0, 10161.0],
      "WindowWidth": [22211.0, 22036.0, 21975.0, 21962.0, 21919.0, 21902.0, 21886.0, 21909.0, 21967.0, 21975.0, 21961.0, 21932.0, 21938.0, 21931.0, 21913.0, 21930.0, 21973.0, 21966.0, 21913.0, 21843.0, 21821.0, 21892.0, 21965.0, 21910.0, 21838.0, 21815.0, 21869.0, 21886.0, 21888.0, 21883.0, 21876.0, 21867.0, 21896.0, 21931.0, 21922.0, 21916.0, 21917.0, 21916.0, 21906.0, 21875.0, 21870.0, 21891.0, 21954.0, 21955.0, 21900.0, 21908.0, 21961.0, 21986.0, 21950.0, 21945.0, 21918.0, 21874.0, 21838.0, 21825.0, 21864.0, 21897.0, 21867.0, 21848.0, 21863.0, 21935.0, 21959.0, 21906.0, 21844.0, 21867.0, 21920.0, 21920.0, 21874.0, 21869.0, 21879.0, 21902.0, 21911.0, 21925.0, 21907.0, 21900.0, 21893.0, 21866.0, 21868.0, 21837.0, 21798.0, 21783.0, 21822.0, 21865.0, 21898.0, 21871.0, 21840.0, 21866.0, 21933.0, 21950.0, 21916.0, 21887.0, 21889.0, 21883.0, 21871.0, 21877.0, 21819.0, 21776.0, 21806.0, 21814.0, 21832.0, 21877.0, 21853.0, 21777.0, 21733.0, 21758.0, 21769.0, 21814.0, 21837.0, 21842.0, 21792.0, 21793.0, 21788.0, 21791.0, 21780.0, 21768.0, 21760.0, 21754.0, 21769.0, 21783.0, 21801.0, 21785.0, 21756.0, 21752.0, 21777.0, 21847.0, 21830.0, 21799.0, 21769.0, 21806.0, 21817.0, 21813.0, 21791.0, 21784.0, 21798.0, 21803.0, 21856.0, 21916.0, 21939.0, 21912.0, 21850.0]
    },
    "slices": {}
  }
}