{
  "AcquisitionMatrixPE": 104,
  "AcquisitionNumber": 1,
  "AcquisitionTime": "10:30:7.875000",
  "BandwidthPerPixelPhaseEncode": 17.17,
  "BaseResolution": 104,
  "BodyPartExamined": "BRAIN",
  "CoilString": "HC1-7;NC1_2",
  "ConsistencyInfo": "N4_VE11C_LATEST_20160120",
  "ConversionSoftware": "dcm2niix",
  "ConversionSoftwareVersion": "v1.0.20190902",
  "DerivedVendorReportedEchoSpacing": 0.000560011,
  "DeviceSerialNumber": "167006",
  "DwellTime": 2.1e-06,
  "EchoTime": 0.037,
  "EchoTrainLength": 104,
  "EffectiveEchoSpacing": 0.000560011,
  "FlipAngle": 52,
  "ImageComments": "Unaliased_MB4_PE3_LB",
  "ImageOrientationPatientDICOM": [0.998779, -0.0492225, -0.00408105, 0.0448303, 0.938127, -0.343376],
  "ImageType": [
    "ORIGINAL",
    "PRIMARY",
    "M",
    "MB",
    "ND",
    "MOSAIC"
],
  "ImagingFrequency": 123.259,
  "InPlanePhaseEncodingDirectionDICOM": "COL",
  "InstitutionAddress": "Chemin_Queen-Mary_4565_Montreal_District_CA_H3W_1W5",
  "InstitutionName": "IUGM",
  "InstitutionalDepartmentName": "Department",
  "MRAcquisitionType": "2D",
  "MagneticFieldStrength": 3,
  "Manufacturer": "Siemens",
  "ManufacturersModelName": "Prisma_fit",
  "Modality": "MR",
  "MultibandAccelerationFactor": 4,
  "PartialFourier": 1,
  "PatientPosition": "HFS",
  "PercentPhaseFOV": 100,
  "PhaseEncodingDirection": "j",
  "PhaseEncodingSteps": 104,
  "PhaseResolution": 1,
  "PixelBandwidth": 2290,
  "ProcedureStepDescription": "hcptrt_generic",
  "ProtocolName": "func_task-relational_run-2",
  "PulseSequenceDetails": "%CustomerSeq%_cmrr_mbep2d_bold",
  "ReceiveCoilActiveElements": "HC1-7;NC1,2",
  "ReceiveCoilName": "HeadNeck_64",
  "ReconMatrixPE": 104,
  "RepetitionTime": 1.49,
  "SAR": 0.0293741,
  "ScanOptions": "FS",
  "ScanningSequence": "EP",
  "SequenceName": "epfid2d1_104",
  "SequenceVariant": "SK_SS",
  "SeriesDescription": "func_task-relational_run-2",
  "SeriesNumber": 37,
  "ShimSetting": [623, -7270, -8845, 641, -15, -275, 8, -5],
  "SliceThickness": 2,
  "SliceTiming": [0, 0.785, 0.0975, 0.8825, 0.195, 0.98, 0.295, 1.0775, 0.3925, 1.175, 0.49, 1.275, 0.5875, 1.3725, 0.685, 0, 0.785, 0.0975, 0.8825, 0.195, 0.98, 0.295, 1.0775, 0.3925, 1.175, 0.49, 1.275, 0.5875, 1.3725, 0.685, 0, 0.785, 0.0975, 0.8825, 0.195, 0.98, 0.295, 1.0775, 0.3925, 1.175, 0.49, 1.275, 0.5875, 1.3725, 0.685, 0, 0.785, 0.0975, 0.8825, 0.195, 0.98, 0.295, 1.0775, 0.3925, 1.175, 0.49, 1.275, 0.5875, 1.3725, 0.685],
  "SoftwareVersions": "syngo_MR_E11",
  "SpacingBetweenSlices": 2,
  "StationName": "MRC35049",
  "TaskName": "relational",
  "TotalReadoutTime": 0.0576811,
  "TxRefAmp": 217.442,
  "WipMemBlock": "619f4b8d-6a4f-43c4-bb09-417358c1c105||Sequence: R016 ve11c/master r/e634e98; Dec 19 2017 11:00:25 by eja",
  "dcmmeta_affine": [
    [-1.9975589513778687, 0.0896606370806694, -0.04146074876189232, 102.72891235351562],
    [0.09844492375850677, 1.876254677772522, -0.6855485439300537, -68.85832977294922],
    [-0.008162103593349457, 0.6867526173591614, 1.8783780336380005, -68.14104461669922],
    [0.0, 0.0, 0.0, 1.0]
],
  "dcmmeta_reorient_transform": [
    [0.0, -1.0, 0.0, 103.0],
    [1.0, 0.0, 0.0, 0.0],
    [0.0, 0.0, 1.0, 0.0],
    [0.0, 0.0, 0.0, 1.0]
],
  "dcmmeta_shape": [104, 104, 60, 119],
  "dcmmeta_slice_dim": 2,
  "dcmmeta_version": 0.6,
  "global": {
    "const": {
      "AcquisitionMatrix": [104, 0, 0, 104],
      "AngioFlag": "N",
      "BitsAllocated": 16,
      "BitsStored": 16,
      "BodyPartExamined": "BRAIN",
      "Columns": 832,
      "EchoNumbers": 1,
      "EchoTime": 37.0,
      "EchoTrainLength": 104,
      "FlipAngle": 52.0,
      "HighBit": 15,
      "ImageOrientationPatient": [0.99877950231791, -0.0492224620135, -0.0040810516936, 0.04483031738178, 0.9381273643998, -0.3433763107842],
      "ImagePositionPatient": [-871.71190545156, -771.5186773694, 255.54343747722],
      "ImageType": [
        "ORIGINAL",
        "PRIMARY",
        "M",
        "MB",
        "ND",
        "MOSAIC"
],
      "ImagedNucleus": "1H",
      "ImagingFrequency": 123.259241,
      "InPlanePhaseEncodingDirection": "COL",
      "MRAcquisitionType": "2D",
      "MagneticFieldStrength": 3.0,
      "Manufacturer": "SIEMENS",
      "ManufacturerModelName": "Prisma_fit",
      "Modality": "MR",
      "NumberOfAverages": 1.0,
      "NumberOfPhaseEncodingSteps": 104,
      "PercentPhaseFieldOfView": 100.0,
      "PercentSampling": 100.0,
      "PerformedProcedureStepStartTime": "092418.321000",
      "PhotometricInterpretation": "MONOCHROME2",
      "PixelBandwidth": 2290.0,
      "PixelRepresentation": 0,
      "PixelSpacing": [2.0, 2.0],
      "ProtocolName": "func_task-relational_run-2",
      "RepetitionTime": 1490.0,
      "Rows": 832,
      "SAR": 0.02937411247109,
      "SamplesPerPixel": 1,
      "ScanOptions": "FS",
      "ScanningSequence": "EP",
      "SequenceName": "epfid2d1_104",
      "SequenceVariant": [
        "SK",
        "SS"
],
      "SeriesDescription": "func_task-relational_run-2",
      "SeriesNumber": 37,
      "SeriesTime": "103141.110000",
      "SliceLocation": -42.524065939527,
      "SliceThickness": 2.0,
      "SmallestImagePixelValue": 0,
      "SoftwareVersions": "syngo MR E11",
      "SpacingBetweenSlices": 1.9999999914624,
      "SpecificCharacterSet": "ISO_IR 100",
      "StudyID": "1",
      "StudyTime": "092418.124000",
      "TransmitCoilName": "Body",
      "VariableFlipAngleFlag": "N",
      "WindowCenterWidthExplanation": "Algo1",
      "dBdt": 0.0},
    "slices": {}
  },
  "time": {
    "samples": {
      "AcquisitionNumber": [1, 2, 3, 4, 5, 6, 7, 8, 9, 10, 11, 12, 13, 14, 15, 16, 17, 18, 19, 20, 21, 22, 23, 24, 25, 26, 27, 28, 29, 30, 31, 32, 33, 34, 35, 36, 37, 38, 39, 40, 41, 42, 43, 44, 45, 46, 47, 48, 49, 50, 51, 52, 53, 54, 55, 56, 57, 58, 59, 60, 61, 62, 63, 64, 65, 66, 67, 68, 69, 70, 71, 72, 73, 74, 75, 76, 77, 78, 79, 80, 81, 82, 83, 84, 85, 86, 87, 88, 89, 90, 91, 92, 93, 94, 95, 96, 97, 98, 99, 100, 101, 102, 103, 104, 105, 106, 107, 108, 109, 110, 111, 112, 113, 114, 115, 116, 117, 118, 119],
      "AcquisitionTime": ["103007.875000", "103009.365000", "103010.855000", "103012.345000", "103013.835000", "103015.325000", "103016.815000", "103018.305000", "103019.795000", "103021.285000", "103022.775000", "103024.265000", "103025.755000", "103027.245000", "103028.735000", "103030.225000", "103031.715000", "103033.205000", "103034.695000", "103036.185000", "103037.675000", "103039.165000", "103040.655000", "103042.145000", "103043.635000", "103045.125000", "103046.615000", "103048.105000", "103049.595000", "103051.085000", "103052.575000", "103054.065000", "103055.555000", "103057.045000", "103058.535000", "103100.025000", "103101.515000", "103103.005000", "103104.495000", "103105.985000", "103107.475000", "103108.965000", "103110.455000", "103111.945000", "103113.435000", "103114.925000", "103116.415000", "103117.905000", "103119.395000", "103120.885000", "103122.375000", "103123.865000", "103125.355000", "103126.845000", "103128.335000", "103129.825000", "103131.315000", "103132.805000", "103134.295000", "103135.785000", "103137.275000", "103138.765000", "103140.255000", "103141.745000", "103143.235000", "103144.725000", "103146.215000", "103147.705000", "103149.195000", "103150.685000", "103152.175000", "103153.665000", "103155.155000", "103156.645000", "103158.135000", "103159.625000", "103201.115000", "103202.605000", "103204.095000", "103205.585000", "103207.075000", "103208.565000", "103210.055000", "103211.545000", "103213.035000", "103214.525000", "103216.015000", "103217.505000", "103218.995000", "103220.485000", "103221.975000", "103223.465000", "103224.955000", "103226.445000", "103227.935000", "103229.425000", "103230.915000", "103232.405000", "103233.895000", "103235.385000", "103236.875000", "103238.365000", "103239.855000", "103241.345000", "103242.835000", "103244.325000", "103245.815000", "103247.305000", "103248.795000", "103250.285000", "103251.775000", "103253.265000", "103254.755000", "103256.245000", "103257.735000", "103259.225000", "103300.715000", "103302.205000", "103303.695000"],
      "ContentTime": ["103141.113000", "103141.116000", "103141.119000", "103141.128000", "103141.131000", "103141.134000", "103141.137000", "103141.140000", "103141.144000", "103141.147000", "103141.150000", "103141.153000", "103141.156000", "103141.159000", "103141.162000", "103141.165000", "103141.168000", "103141.171000", "103141.174000", "103141.177000", "103141.180000", "103141.183000", "103141.186000", "103141.189000", "103141.193000", "103141.196000", "103141.205000", "103141.208000", "103141.212000", "103141.215000", "103141.218000", "103141.221000", "103141.224000", "103141.227000", "103141.230000", "103141.233000", "103141.236000", "103141.239000", "103141.242000", "103201.084000", "103201.087000", "103201.090000", "103201.093000", "103201.101000", "103201.113000", "103201.116000", "103201.119000", "103201.122000", "103201.125000", "103201.128000", "103201.131000", "103201.135000", "103201.138000", "103201.141000", "103201.144000", "103201.147000", "103201.150000", "103201.152000", "103201.155000", "103221.084000", "103221.087000", "103221.090000", "103221.093000", "103221.096000", "103221.099000", "103221.102000", "103221.105000", "103221.108000", "103221.111000", "103221.114000", "103221.117000", "103221.120000", "103221.123000", "103221.126000", "103221.129000", "103221.133000", "103221.135000", "103221.139000", "103221.142000", "103241.084000", "103241.087000", "103241.090000", "103241.093000", "103241.096000", "103241.099000", "103241.103000", "103241.106000", "103241.109000", "103241.112000", "103241.115000", "103241.118000", "103241.121000", "103241.124000", "103241.127000", "103241.130000", "103241.133000", "103241.136000", "103241.139000", "103241.142000", "103241.145000", "103305.702000", "103305.705000", "103305.709000", "103305.712000", "103305.715000", "103305.718000", "103305.722000", "103305.725000", "103305.728000", "103305.731000", "103305.734000", "103305.737000", "103305.740000", "103305.743000", "103305.746000", "103305.749000", "103305.752000", "103305.755000", "103305.758000"],
      "InstanceCreationTime": ["103141.113000", "103141.116000", "103141.119000", "103141.128000", "103141.131000", "103141.134000", "103141.137000", "103141.140000", "103141.144000", "103141.147000", "103141.150000", "103141.153000", "103141.156000", "103141.159000", "103141.162000", "103141.165000", "103141.168000", "103141.171000", "103141.174000", "103141.177000", "103141.180000", "103141.183000", "103141.186000", "103141.189000", "103141.193000", "103141.196000", "103141.205000", "103141.208000", "103141.212000", "103141.215000", "103141.218000", "103141.221000", "103141.224000", "103141.227000", "103141.230000", "103141.233000", "103141.236000", "103141.239000", "103141.242000", "103201.084000", "103201.087000", "103201.090000", "103201.093000", "103201.101000", "103201.113000", "103201.116000", "103201.119000", "103201.122000", "103201.125000", "103201.128000", "103201.131000", "103201.135000", "103201.138000", "103201.141000", "103201.144000", "103201.147000", "103201.150000", "103201.152000", "103201.155000", "103221.084000", "103221.087000", "103221.090000", "103221.093000", "103221.096000", "103221.099000", "103221.102000", "103221.105000", "103221.108000", "103221.111000", "103221.114000", "103221.117000", "103221.120000", "103221.123000", "103221.126000", "103221.129000", "103221.133000", "103221.135000", "103221.139000", "103221.142000", "103241.084000", "103241.087000", "103241.090000", "103241.093000", "103241.096000", "103241.099000", "103241.103000", "103241.106000", "103241.109000", "103241.112000", "103241.115000", "103241.118000", "103241.121000", "103241.124000", "103241.127000", "103241.130000", "103241.133000", "103241.136000", "103241.139000", "103241.142000", "103241.145000", "103305.702000", "103305.705000", "103305.709000", "103305.712000", "103305.715000", "103305.718000", "103305.722000", "103305.725000", "103305.728000", "103305.731000", "103305.734000", "103305.737000", "103305.740000", "103305.743000", "103305.746000", "103305.749000", "103305.752000", "103305.755000", "103305.758000"],
      "InstanceNumber": [1, 2, 3, 4, 5, 6, 7, 8, 9, 10, 11, 12, 13, 14, 15, 16, 17, 18, 19, 20, 21, 22, 23, 24, 25, 26, 27, 28, 29, 30, 31, 32, 33, 34, 35, 36, 37, 38, 39, 40, 41, 42, 43, 44, 45, 46, 47, 48, 49, 50, 51, 52, 53, 54, 55, 56, 57, 58, 59, 60, 61, 62, 63, 64, 65, 66, 67, 68, 69, 70, 71, 72, 73, 74, 75, 76, 77, 78, 79, 80, 81, 82, 83, 84, 85, 86, 87, 88, 89, 90, 91, 92, 93, 94, 95, 96, 97, 98, 99, 100, 101, 102, 103, 104, 105, 106, 107, 108, 109, 110, 111, 112, 113, 114, 115, 116, 117, 118, 119],
      "LargestImagePixelValue": [44331, 42527, 42980, 42144, 41474, 40813, 41587, 41770, 41813, 41947, 42230, 42024, 41616, 42036, 42136, 42031, 42172, 42158, 41605, 41997, 42425, 42032, 42025, 42113, 42447, 42179, 42584, 42252, 42025, 42022, 42071, 42177, 42254, 42064, 42165, 41999, 42197, 42273, 41925, 42006, 41752, 41728, 41738, 42238, 41675, 41936, 41702, 41376, 41680, 41157, 41823, 41140, 41045, 41197, 41069, 40558, 40803, 40798, 41020, 40659, 40973, 40964, 40679, 40675, 40594, 40788, 41036, 41767, 40778, 41022, 40671, 40405, 40534, 40257, 39826, 40499, 40452, 40047, 39855, 40588, 40055, 40356, 40118, 40115, 39869, 39768, 40255, 40229, 39937, 39956, 41322, 40351, 40321, 40897, 40010, 40942, 39954, 40177, 40563, 40242, 40934, 40487, 41078, 40099, 40079, 40694, 40102, 39924, 40213, 40229, 40294, 40198, 40324, 40805, 40681, 41434, 40540, 40194, 40957],
      "WindowCenter": [10161.0, 10092.0, 10064.0, 10059.0, 10053.0, 10045.0, 10044.0, 10048.0, 10047.0, 10062.0, 10071.0, 10070.0, 10058.0, 10063.0, 10077.0, 10064.0, 10055.0, 10045.0, 10025.0, 10028.0, 10034.0, 10043.0, 10045.0, 10037.0, 10033.0, 10032.0, 10040.0, 10048.0, 10036.0, 10029.0, 10021.0, 10024.0, 10026.0, 10028.0, 10035.0, 10037.0, 10037.0, 10045.0, 10055.0, 10062.0, 10057.0, 10057.0, 10056.0, 10061.0, 10060.0, 10069.0, 10064.0, 10057.0, 10054.0, 10046.0, 10068.0, 10059.0, 10034.0, 10022.0, 10006.0, 9991.0, 9988.0, 9988.0, 9996.0, 10004.0, 9998.0, 9997.0, 9999.0, 10012.0, 10029.0, 10038.0, 10042.0, 10053.0, 10044.0, 10051.0, 10053.0, 10031.0, 10030.0, 10006.0, 9991.0, 10002.0, 10005.0, 9998.0, 9998.0, 10025.0, 10047.0, 10071.0, 10058.0, 10040.0, 10030.0, 10022.0, 10035.0, 10030.0, 10039.0, 10055.0, 10051.0, 10031.0, 10023.0, 10025.0, 10021.0, 10031.0, 10028.0, 10029.0, 10035.0, 10030.0, 10028.0, 10030.0, 10037.0, 10034.0, 10040.0, 10039.0, 10017.0, 10008.0, 10005.0, 10003.0, 10011.0, 10014.0, 10036.0, 10067.0, 10081.0, 10094.0, 10081.0, 10074.0, 10073.0],
      "WindowWidth": [21872.0, 21685.0, 21597.0, 21571.0, 21555.0, 21535.0, 21528.0, 21533.0, 21532.0, 21563.0, 21583.0, 21579.0, 21555.0, 21563.0, 21594.0, 21569.0, 21547.0, 21524.0, 21481.0, 21483.0, 21495.0, 21515.0, 21520.0, 21501.0, 21492.0, 21487.0, 21506.0, 21523.0, 21501.0, 21486.0, 21468.0, 21471.0, 21478.0, 21483.0, 21497.0, 21505.0, 21506.0, 21522.0, 21545.0, 21558.0, 21551.0, 21550.0, 21547.0, 21557.0, 21555.0, 21573.0, 21565.0, 21548.0, 21542.0, 21524.0, 21571.0, 21553.0, 21502.0, 21470.0, 21436.0, 21404.0, 21395.0, 21397.0, 21415.0, 21433.0, 21423.0, 21419.0, 21425.0, 21450.0, 21486.0, 21510.0, 21519.0, 21542.0, 21527.0, 21540.0, 21544.0, 21497.0, 21498.0, 21443.0, 21415.0, 21437.0, 21445.0, 21431.0, 21430.0, 21485.0, 21539.0, 21589.0, 21563.0, 21523.0, 21500.0, 21481.0, 21511.0, 21502.0, 21521.0, 21555.0, 21546.0, 21504.0, 21486.0, 21485.0, 21481.0, 21500.0, 21498.0, 21501.0, 21510.0, 21500.0, 21496.0, 21501.0, 21517.0, 21517.0, 21528.0, 21521.0, 21476.0, 21454.0, 21448.0, 21441.0, 21459.0, 21466.0, 21513.0, 21581.0, 21616.0, 21644.0, 21616.0, 21604.0, 21601.0]
    },
    "slices": {}
  }
}