{
  "AcquisitionMatrixPE": 104,
  "AcquisitionNumber": 1,
  "AcquisitionTime": "09:37:23.420000",
  "BandwidthPerPixelPhaseEncode": 17.17,
  "BaseResolution": 104,
  "BodyPartExamined": "BRAIN",
  "CoilString": "HC1-7;NC1_2",
  "ConsistencyInfo": "N4_VE11C_LATEST_20160120",
  "ConversionSoftware": "dcm2niix",
  "ConversionSoftwareVersion": "v1.0.20190902",
  "DerivedVendorReportedEchoSpacing": 0.000560011,
  "DeviceSerialNumber": "167006",
  "DwellTime": 2.1e-06,
  "EchoTime": 0.037,
  "EchoTrainLength": 104,
  "EffectiveEchoSpacing": 0.000560011,
  "FlipAngle": 52,
  "ImageComments": "Unaliased_MB4_PE3_LB",
  "ImageOrientationPatientDICOM": [0.998779, -0.0492225, -0.00408105, 0.0448303, 0.938127, -0.343376],
  "ImageType": [
    "ORIGINAL",
    "PRIMARY",
    "M",
    "MB",
    "ND",
    "MOSAIC"
],
  "ImagingFrequency": 123.259,
  "InPlanePhaseEncodingDirectionDICOM": "COL",
  "InstitutionAddress": "Chemin_Queen-Mary_4565_Montreal_District_CA_H3W_1W5",
  "InstitutionName": "IUGM",
  "InstitutionalDepartmentName": "Department",
  "MRAcquisitionType": "2D",
  "MagneticFieldStrength": 3,
  "Manufacturer": "Siemens",
  "ManufacturersModelName": "Prisma_fit",
  "Modality": "MR",
  "MultibandAccelerationFactor": 4,
  "PartialFourier": 1,
  "PatientPosition": "HFS",
  "PercentPhaseFOV": 100,
  "PhaseEncodingDirection": "j",
  "PhaseEncodingSteps": 104,
  "PhaseResolution": 1,
  "PixelBandwidth": 2290,
  "ProcedureStepDescription": "hcptrt_generic",
  "ProtocolName": "func_task-relational_run-1",
  "PulseSequenceDetails": "%CustomerSeq%_cmrr_mbep2d_bold",
  "ReceiveCoilActiveElements": "HC1-7;NC1,2",
  "ReceiveCoilName": "HeadNeck_64",
  "ReconMatrixPE": 104,
  "RepetitionTime": 1.49,
  "SAR": 0.0293741,
  "ScanOptions": "FS",
  "ScanningSequence": "EP",
  "SequenceName": "epfid2d1_104",
  "SequenceVariant": "SK_SS",
  "SeriesDescription": "func_task-relational_run-1",
  "SeriesNumber": 13,
  "ShimSetting": [623, -7270, -8845, 641, -15, -275, 8, -5],
  "SliceThickness": 2,
  "SliceTiming": [0, 0.785, 0.0975, 0.8825, 0.1975, 0.98, 0.295, 1.0775, 0.3925, 1.1775, 0.49, 1.275, 0.5875, 1.3725, 0.6875, 0, 0.785, 0.0975, 0.8825, 0.1975, 0.98, 0.295, 1.0775, 0.3925, 1.1775, 0.49, 1.275, 0.5875, 1.3725, 0.6875, 0, 0.785, 0.0975, 0.8825, 0.1975, 0.98, 0.295, 1.0775, 0.3925, 1.1775, 0.49, 1.275, 0.5875, 1.3725, 0.6875, 0, 0.785, 0.0975, 0.8825, 0.1975, 0.98, 0.295, 1.0775, 0.3925, 1.1775, 0.49, 1.275, 0.5875, 1.3725, 0.6875],
  "SoftwareVersions": "syngo_MR_E11",
  "SpacingBetweenSlices": 2,
  "StationName": "MRC35049",
  "TaskName": "relational",
  "TotalReadoutTime": 0.0576811,
  "TxRefAmp": 217.442,
  "WipMemBlock": "d167b23a-3426-4c61-8b68-9a3bfe423059||Sequence: R016 ve11c/master r/e634e98; Dec 19 2017 11:00:25 by eja",
  "dcmmeta_affine": [
    [-1.9975589513778687, 0.0896606370806694, -0.04146074876189232, 102.72891235351562],
    [0.09844492375850677, 1.876254677772522, -0.6855485439300537, -68.85832977294922],
    [-0.008162103593349457, 0.6867526173591614, 1.8783780336380005, -68.14104461669922],
    [0.0, 0.0, 0.0, 1.0]
],
  "dcmmeta_reorient_transform": [
    [0.0, -1.0, 0.0, 103.0],
    [1.0, 0.0, 0.0, 0.0],
    [0.0, 0.0, 1.0, 0.0],
    [0.0, 0.0, 0.0, 1.0]
],
  "dcmmeta_shape": [104, 104, 60, 119],
  "dcmmeta_slice_dim": 2,
  "dcmmeta_version": 0.6,
  "global": {
    "const": {
      "AcquisitionMatrix": [104, 0, 0, 104],
      "AngioFlag": "N",
      "BitsAllocated": 16,
      "BitsStored": 16,
      "BodyPartExamined": "BRAIN",
      "Columns": 832,
      "EchoNumbers": 1,
      "EchoTime": 37.0,
      "EchoTrainLength": 104,
      "FlipAngle": 52.0,
      "HighBit": 15,
      "ImageOrientationPatient": [0.99877950231791, -0.0492224620135, -0.0040810516936, 0.04483031738178, 0.9381273643998, -0.3433763107842],
      "ImagePositionPatient": [-871.71190545156, -771.5186773694, 255.54343747722],
      "ImageType": [
        "ORIGINAL",
        "PRIMARY",
        "M",
        "MB",
        "ND",
        "MOSAIC"
],
      "ImagedNucleus": "1H",
      "ImagingFrequency": 123.259222,
      "InPlanePhaseEncodingDirection": "COL",
      "MRAcquisitionType": "2D",
      "MagneticFieldStrength": 3.0,
      "Manufacturer": "SIEMENS",
      "ManufacturerModelName": "Prisma_fit",
      "Modality": "MR",
      "NumberOfAverages": 1.0,
      "NumberOfPhaseEncodingSteps": 104,
      "PercentPhaseFieldOfView": 100.0,
      "PercentSampling": 100.0,
      "PerformedProcedureStepStartTime": "092418.321000",
      "PhotometricInterpretation": "MONOCHROME2",
      "PixelBandwidth": 2290.0,
      "PixelRepresentation": 0,
      "PixelSpacing": [2.0, 2.0],
      "ProtocolName": "func_task-relational_run-1",
      "RepetitionTime": 1490.0,
      "Rows": 832,
      "SAR": 0.02937411247109,
      "SamplesPerPixel": 1,
      "ScanOptions": "FS",
      "ScanningSequence": "EP",
      "SequenceName": "epfid2d1_104",
      "SequenceVariant": [
        "SK",
        "SS"
],
      "SeriesDescription": "func_task-relational_run-1",
      "SeriesNumber": 13,
      "SeriesTime": "093841.114000",
      "SliceLocation": -42.524065939527,
      "SliceThickness": 2.0,
      "SmallestImagePixelValue": 0,
      "SoftwareVersions": "syngo MR E11",
      "SpacingBetweenSlices": 1.9999999914624,
      "SpecificCharacterSet": "ISO_IR 100",
      "StudyID": "1",
      "StudyTime": "092418.124000",
      "TransmitCoilName": "Body",
      "VariableFlipAngleFlag": "N",
      "WindowCenterWidthExplanation": "Algo1",
      "dBdt": 0.0},
    "slices": {}
  },
  "time": {
    "samples": {
      "AcquisitionNumber": [1, 2, 3, 4, 5, 6, 7, 8, 9, 10, 11, 12, 13, 14, 15, 16, 17, 18, 19, 20, 21, 22, 23, 24, 25, 26, 27, 28, 29, 30, 31, 32, 33, 34, 35, 36, 37, 38, 39, 40, 41, 42, 43, 44, 45, 46, 47, 48, 49, 50, 51, 52, 53, 54, 55, 56, 57, 58, 59, 60, 61, 62, 63, 64, 65, 66, 67, 68, 69, 70, 71, 72, 73, 74, 75, 76, 77, 78, 79, 80, 81, 82, 83, 84, 85, 86, 87, 88, 89, 90, 91, 92, 93, 94, 95, 96, 97, 98, 99, 100, 101, 102, 103, 104, 105, 106, 107, 108, 109, 110, 111, 112, 113, 114, 115, 116, 117, 118, 119],
      "AcquisitionTime": ["093723.420000", "093724.910000", "093726.400000", "093727.890000", "093729.380000", "093730.870000", "093732.360000", "093733.850000", "093735.340000", "093736.830000", "093738.320000", "093739.810000", "093741.300000", "093742.790000", "093744.280000", "093745.770000", "093747.260000", "093748.750000", "093750.240000", "093751.730000", "093753.220000", "093754.710000", "093756.200000", "093757.690000", "093759.180000", "093800.670000", "093802.160000", "093803.650000", "093805.140000", "093806.630000", "093808.120000", "093809.610000", "093811.100000", "093812.590000", "093814.080000", "093815.570000", "093817.060000", "093818.550000", "093820.040000", "093821.530000", "093823.020000", "093824.510000", "093826.000000", "093827.490000", "093828.980000", "093830.470000", "093831.960000", "093833.450000", "093834.940000", "093836.430000", "093837.920000", "093839.410000", "093840.900000", "093842.390000", "093843.880000", "093845.370000", "093846.860000", "093848.350000", "093849.840000", "093851.330000", "093852.820000", "093854.310000", "093855.800000", "093857.290000", "093858.780000", "093900.270000", "093901.760000", "093903.250000", "093904.740000", "093906.230000", "093907.720000", "093909.210000", "093910.700000", "093912.190000", "093913.680000", "093915.170000", "093916.660000", "093918.150000", "093919.640000", "093921.130000", "093922.620000", "093924.110000", "093925.600000", "093927.090000", "093928.580000", "093930.070000", "093931.560000", "093933.050000", "093934.540000", "093936.030000", "093937.520000", "093939.010000", "093940.500000", "093941.990000", "093943.480000", "093944.970000", "093946.460000", "093947.950000", "093949.440000", "093950.930000", "093952.420000", "093953.910000", "093955.400000", "093956.890000", "093958.380000", "093959.870000", "094001.360000", "094002.850000", "094004.340000", "094005.830000", "094007.320000", "094008.810000", "094010.300000", "094011.790000", "094013.280000", "094014.770000", "094016.260000", "094017.750000", "094019.240000"],
      "ContentTime": ["093841.117000", "093841.121000", "093841.124000", "093841.127000", "093841.130000", "093841.133000", "093841.136000", "093841.139000", "093841.147000", "093841.151000", "093841.154000", "093841.157000", "093841.162000", "093841.165000", "093841.168000", "093841.171000", "093841.174000", "093841.180000", "093841.183000", "093841.186000", "093841.189000", "093841.192000", "093841.195000", "093901.084000", "093901.087000", "093901.090000", "093901.093000", "093901.096000", "093901.099000", "093901.102000", "093901.106000", "093901.109000", "093901.112000", "093901.115000", "093901.118000", "093901.121000", "093901.124000", "093901.127000", "093901.130000", "093901.133000", "093901.136000", "093901.139000", "093901.142000", "093901.148000", "093921.084000", "093921.087000", "093921.090000", "093921.100000", "093921.103000", "093921.106000", "093921.109000", "093921.122000", "093921.125000", "093921.128000", "093921.131000", "093921.134000", "093921.139000", "093921.142000", "093921.145000", "093921.148000", "093921.151000", "093921.154000", "093921.158000", "093921.161000", "093941.084000", "093941.087000", "093941.090000", "093941.093000", "093941.096000", "093941.099000", "093941.102000", "093941.105000", "093941.108000", "093941.111000", "093941.114000", "093941.117000", "093941.120000", "093941.123000", "093941.127000", "093941.130000", "093941.133000", "093941.136000", "093941.139000", "093941.142000", "094001.084000", "094001.087000", "094001.090000", "094001.093000", "094001.105000", "094001.108000", "094001.111000", "094001.114000", "094001.117000", "094001.120000", "094001.124000", "094001.126000", "094001.129000", "094001.132000", "094001.136000", "094001.139000", "094001.142000", "094001.145000", "094001.148000", "094001.151000", "094021.122000", "094021.125000", "094021.128000", "094021.131000", "094021.134000", "094021.138000", "094021.141000", "094021.144000", "094021.147000", "094021.150000", "094021.153000", "094021.156000", "094021.159000", "094021.162000", "094021.165000"],
      "InstanceCreationTime": ["093841.117000", "093841.121000", "093841.124000", "093841.127000", "093841.130000", "093841.133000", "093841.136000", "093841.139000", "093841.147000", "093841.151000", "093841.154000", "093841.157000", "093841.162000", "093841.165000", "093841.168000", "093841.171000", "093841.174000", "093841.180000", "093841.183000", "093841.186000", "093841.189000", "093841.192000", "093841.195000", "093901.084000", "093901.087000", "093901.090000", "093901.093000", "093901.096000", "093901.099000", "093901.102000", "093901.106000", "093901.109000", "093901.112000", "093901.115000", "093901.118000", "093901.121000", "093901.124000", "093901.127000", "093901.130000", "093901.133000", "093901.136000", "093901.139000", "093901.142000", "093901.148000", "093921.084000", "093921.087000", "093921.090000", "093921.100000", "093921.103000", "093921.106000", "093921.109000", "093921.122000", "093921.125000", "093921.128000", "093921.131000", "093921.134000", "093921.139000", "093921.142000", "093921.145000", "093921.148000", "093921.151000", "093921.154000", "093921.158000", "093921.161000", "093941.084000", "093941.087000", "093941.090000", "093941.093000", "093941.096000", "093941.099000", "093941.102000", "093941.105000", "093941.108000", "093941.111000", "093941.114000", "093941.117000", "093941.120000", "093941.123000", "093941.127000", "093941.130000", "093941.133000", "093941.136000", "093941.139000", "093941.142000", "094001.084000", "094001.087000", "094001.090000", "094001.093000", "094001.105000", "094001.108000", "094001.111000", "094001.114000", "094001.117000", "094001.120000", "094001.124000", "094001.126000", "094001.129000", "094001.132000", "094001.136000", "094001.139000", "094001.142000", "094001.145000", "094001.148000", "094001.151000", "094021.122000", "094021.125000", "094021.128000", "094021.131000", "094021.134000", "094021.138000", "094021.141000", "094021.144000", "094021.147000", "094021.150000", "094021.153000", "094021.156000", "094021.159000", "094021.162000", "094021.165000"],
      "InstanceNumber": [1, 2, 3, 4, 5, 6, 7, 8, 9, 10, 11, 12, 13, 14, 15, 16, 17, 18, 19, 20, 21, 22, 23, 24, 25, 26, 27, 28, 29, 30, 31, 32, 33, 34, 35, 36, 37, 38, 39, 40, 41, 42, 43, 44, 45, 46, 47, 48, 49, 50, 51, 52, 53, 54, 55, 56, 57, 58, 59, 60, 61, 62, 63, 64, 65, 66, 67, 68, 69, 70, 71, 72, 73, 74, 75, 76, 77, 78, 79, 80, 81, 82, 83, 84, 85, 86, 87, 88, 89, 90, 91, 92, 93, 94, 95, 96, 97, 98, 99, 100, 101, 102, 103, 104, 105, 106, 107, 108, 109, 110, 111, 112, 113, 114, 115, 116, 117, 118, 119],
      "LargestImagePixelValue": [45084, 43311, 42947, 42006, 42019, 41877, 41763, 41471, 41654, 41400, 41096, 41113, 40470, 40714, 40640, 40627, 41321, 41157, 41354, 41052, 40881, 41261, 41779, 42042, 41233, 41659, 41541, 41767, 41505, 41249, 41866, 41528, 41543, 41670, 41850, 41505, 41528, 41624, 41879, 41670, 42309, 41965, 42143, 41548, 41599, 42160, 42041, 42493, 42329, 42307, 42531, 42543, 42633, 42474, 42753, 42512, 42267, 42708, 42335, 42260, 42810, 42675, 42179, 42963, 42762, 42750, 42769, 42948, 42168, 42704, 42764, 42707, 42742, 42348, 42681, 42903, 42654, 43256, 42339, 42982, 42915, 42800, 43197, 42784, 43137, 43651, 43102, 42906, 42784, 43185, 43083, 43162, 43248, 43122, 43191, 43049, 43288, 43489, 43248, 43535, 43005, 42633, 43349, 43160, 42945, 43360, 43391, 43502, 43039, 43302, 43290, 43551, 43124, 43382, 43044, 43172, 42942, 42907, 43162],
      "WindowCenter": [10276.0, 10228.0, 10212.0, 10193.0, 10176.0, 10169.0, 10173.0, 10185.0, 10216.0, 10222.0, 10214.0, 10221.0, 10216.0, 10209.0, 10205.0, 10206.0, 10215.0, 10209.0, 10206.0, 10184.0, 10186.0, 10201.0, 10218.0, 10217.0, 10204.0, 10203.0, 10209.0, 10216.0, 10217.0, 10215.0, 10222.0, 10207.0, 10196.0, 10195.0, 10203.0, 10203.0, 10204.0, 10205.0, 10210.0, 10204.0, 10212.0, 10220.0, 10214.0, 10205.0, 10211.0, 10223.0, 10240.0, 10263.0, 10260.0, 10237.0, 10218.0, 10205.0, 10196.0, 10197.0, 10203.0, 10197.0, 10190.0, 10191.0, 10199.0, 10199.0, 10212.0, 10207.0, 10215.0, 10222.0, 10215.0, 10213.0, 10211.0, 10199.0, 10191.0, 10204.0, 10198.0, 10184.0, 10178.0, 10184.0, 10207.0, 10208.0, 10213.0, 10234.0, 10249.0, 10246.0, 10231.0, 10221.0, 10220.0, 10215.0, 10214.0, 10219.0, 10213.0, 10199.0, 10197.0, 10196.0, 10195.0, 10208.0, 10220.0, 10220.0, 10219.0, 10227.0, 10242.0, 10237.0, 10222.0, 10213.0, 10206.0, 10198.0, 10195.0, 10188.0, 10188.0, 10194.0, 10195.0, 10194.0, 10196.0, 10220.0, 10234.0, 10231.0, 10214.0, 10213.0, 10224.0, 10225.0, 10225.0, 10226.0, 10231.0],
      "WindowWidth": [22183.0, 22037.0, 21980.0, 21930.0, 21881.0, 21857.0, 21862.0, 21890.0, 21960.0, 21975.0, 21956.0, 21972.0, 21960.0, 21949.0, 21936.0, 21937.0, 21961.0, 21948.0, 21940.0, 21892.0, 21891.0, 21925.0, 21961.0, 21960.0, 21933.0, 21929.0, 21943.0, 21956.0, 21960.0, 21962.0, 21976.0, 21944.0, 21916.0, 21911.0, 21928.0, 21931.0, 21932.0, 21935.0, 21945.0, 21934.0, 21951.0, 21970.0, 21957.0, 21936.0, 21947.0, 21971.0, 22009.0, 22061.0, 22062.0, 22008.0, 21960.0, 21927.0, 21905.0, 21910.0, 21924.0, 21912.0, 21898.0, 21898.0, 21919.0, 21923.0, 21946.0, 21938.0, 21956.0, 21971.0, 21954.0, 21948.0, 21942.0, 21919.0, 21902.0, 21929.0, 21916.0, 21884.0, 21868.0, 21886.0, 21937.0, 21938.0, 21946.0, 21994.0, 22034.0, 22023.0, 21991.0, 21965.0, 21962.0, 21953.0, 21951.0, 21959.0, 21946.0, 21918.0, 21912.0, 21910.0, 21911.0, 21937.0, 21965.0, 21963.0, 21957.0, 21978.0, 22012.0, 22001.0, 21969.0, 21948.0, 21932.0, 21914.0, 21905.0, 21893.0, 21891.0, 21906.0, 21909.0, 21907.0, 21914.0, 21966.0, 22001.0, 21993.0, 21955.0, 21947.0, 21976.0, 21976.0, 21976.0, 21979.0, 21990.0]
    },
    "slices": {}
  }
}