{
  "AcquisitionMatrixPE": 104,
  "AcquisitionNumber": 1,
  "AcquisitionTime": "09:33:2.877500",
  "BandwidthPerPixelPhaseEncode": 17.17,
  "BaseResolution": 104,
  "BodyPartExamined": "BRAIN",
  "CoilString": "HC1-7;NC1_2",
  "ConsistencyInfo": "N4_VE11C_LATEST_20160120",
  "ConversionSoftware": "dcm2niix",
  "ConversionSoftwareVersion": "v1.0.20190902",
  "DerivedVendorReportedEchoSpacing": 0.000560011,
  "DeviceSerialNumber": "167006",
  "DwellTime": 2.1e-06,
  "EchoTime": 0.037,
  "EchoTrainLength": 104,
  "EffectiveEchoSpacing": 0.000560011,
  "FlipAngle": 52,
  "ImageComments": "Unaliased_MB4_PE3_LB",
  "ImageOrientationPatientDICOM": [0.998787, -0.0490587, -0.00414096, 0.044656, 0.938136, -0.343376],
  "ImageType": [
    "ORIGINAL",
    "PRIMARY",
    "M",
    "MB",
    "ND",
    "MOSAIC"
],
  "ImagingFrequency": 123.259,
  "InPlanePhaseEncodingDirectionDICOM": "COL",
  "InstitutionAddress": "Chemin_Queen-Mary_4565_Montreal_District_CA_H3W_1W5",
  "InstitutionName": "IUGM",
  "InstitutionalDepartmentName": "Department",
  "MRAcquisitionType": "2D",
  "MagneticFieldStrength": 3,
  "Manufacturer": "Siemens",
  "ManufacturersModelName": "Prisma_fit",
  "Modality": "MR",
  "MultibandAccelerationFactor": 4,
  "PartialFourier": 1,
  "PatientPosition": "HFS",
  "PercentPhaseFOV": 100,
  "PhaseEncodingDirection": "j",
  "PhaseEncodingSteps": 104,
  "PhaseResolution": 1,
  "PixelBandwidth": 2290,
  "ProcedureStepDescription": "hcptrt_generic",
  "ProtocolName": "func_task-gambling_run-1",
  "PulseSequenceDetails": "%CustomerSeq%_cmrr_mbep2d_bold",
  "ReceiveCoilActiveElements": "HC1-7;NC1,2",
  "ReceiveCoilName": "HeadNeck_64",
  "ReconMatrixPE": 104,
  "RepetitionTime": 1.49,
  "SAR": 0.0294094,
  "ScanOptions": "FS",
  "ScanningSequence": "EP",
  "SequenceName": "epfid2d1_104",
  "SequenceVariant": "SK_SS",
  "SeriesDescription": "func_task-gambling_run-1",
  "SeriesNumber": 11,
  "ShimSetting": [623, -7270, -8845, 641, -14, -275, 8, -5],
  "SliceThickness": 2,
  "SliceTiming": [0, 0.7825, 0.0975, 0.8825, 0.195, 0.98, 0.2925, 1.0775, 0.3925, 1.175, 0.49, 1.2725, 0.5875, 1.3725, 0.685, 0, 0.7825, 0.0975, 0.8825, 0.195, 0.98, 0.2925, 1.0775, 0.3925, 1.175, 0.49, 1.2725, 0.5875, 1.3725, 0.685, 0, 0.7825, 0.0975, 0.8825, 0.195, 0.98, 0.2925, 1.0775, 0.3925, 1.175, 0.49, 1.2725, 0.5875, 1.3725, 0.685, 0, 0.7825, 0.0975, 0.8825, 0.195, 0.98, 0.2925, 1.0775, 0.3925, 1.175, 0.49, 1.2725, 0.5875, 1.3725, 0.685],
  "SoftwareVersions": "syngo_MR_E11",
  "SpacingBetweenSlices": 2,
  "StationName": "MRC35049",
  "TaskName": "gambling",
  "TotalReadoutTime": 0.0576811,
  "TxRefAmp": 217.442,
  "WipMemBlock": "eca187da-3ae9-43f1-ac50-e9ba67461dca||Sequence: R016 ve11c/master r/e634e98; Dec 19 2017 11:00:25 by eja",
  "dcmmeta_affine": [
    [-1.9975745677947998, 0.08931203186511993, -0.04146072268486023, 102.74750518798828],
    [0.09811748564243317, 1.8762718439102173, -0.6855484843254089, -68.84217834472656],
    [-0.008281928487122059, 0.6867511868476868, 1.8783780336380005, -68.13473510742188],
    [0.0, 0.0, 0.0, 1.0]
],
  "dcmmeta_reorient_transform": [
    [0.0, -1.0, 0.0, 103.0],
    [1.0, 0.0, 0.0, 0.0],
    [0.0, 0.0, 1.0, 0.0],
    [0.0, 0.0, 0.0, 1.0]
],
  "dcmmeta_shape": [104, 104, 60, 129],
  "dcmmeta_slice_dim": 2,
  "dcmmeta_version": 0.6,
  "global": {
    "const": {
      "AcquisitionMatrix": [104, 0, 0, 104],
      "AngioFlag": "N",
      "BitsAllocated": 16,
      "BitsStored": 16,
      "BodyPartExamined": "BRAIN",
      "Columns": 832,
      "EchoNumbers": 1,
      "EchoTime": 37.0,
      "EchoTrainLength": 104,
      "FlipAngle": 52.0,
      "HighBit": 15,
      "ImageOrientationPatient": [0.99878731086525, -0.049058741018, -0.0041409641737, 0.04465601627037, 0.9381359452302, -0.3433755793266],
      "ImagePositionPatient": [-871.57338363826, -771.66203248852, 255.59267608801],
      "ImageType": [
        "ORIGINAL",
        "PRIMARY",
        "M",
        "MB",
        "ND",
        "MOSAIC"
],
      "ImagedNucleus": "1H",
      "ImagingFrequency": 123.25922,
      "InPlanePhaseEncodingDirection": "COL",
      "MRAcquisitionType": "2D",
      "MagneticFieldStrength": 3.0,
      "Manufacturer": "SIEMENS",
      "ManufacturerModelName": "Prisma_fit",
      "Modality": "MR",
      "NumberOfAverages": 1.0,
      "NumberOfPhaseEncodingSteps": 104,
      "PercentPhaseFieldOfView": 100.0,
      "PercentSampling": 100.0,
      "PerformedProcedureStepStartTime": "092418.321000",
      "PhotometricInterpretation": "MONOCHROME2",
      "PixelBandwidth": 2290.0,
      "PixelRepresentation": 0,
      "PixelSpacing": [2.0, 2.0],
      "ProtocolName": "func_task-gambling_run-1",
      "RepetitionTime": 1490.0,
      "Rows": 832,
      "SAR": 0.02940941126648,
      "SamplesPerPixel": 1,
      "ScanOptions": "FS",
      "ScanningSequence": "EP",
      "SequenceName": "epfid2d1_104",
      "SequenceVariant": [
        "SK",
        "SS"
],
      "SeriesDescription": "func_task-gambling_run-1",
      "SeriesNumber": 11,
      "SeriesTime": "093417.241000",
      "SliceLocation": -42.524065640809,
      "SliceThickness": 2.0,
      "SmallestImagePixelValue": 0,
      "SoftwareVersions": "syngo MR E11",
      "SpacingBetweenSlices": 1.9999999914624,
      "SpecificCharacterSet": "ISO_IR 100",
      "StudyID": "1",
      "StudyTime": "092418.124000",
      "TransmitCoilName": "Body",
      "VariableFlipAngleFlag": "N",
      "WindowCenterWidthExplanation": "Algo1",
      "dBdt": 0.0},
    "slices": {}
  },
  "time": {
    "samples": {
      "AcquisitionNumber": [1, 2, 3, 4, 5, 6, 7, 8, 9, 10, 11, 12, 13, 14, 15, 16, 17, 18, 19, 20, 21, 22, 23, 24, 25, 26, 27, 28, 29, 30, 31, 32, 33, 34, 35, 36, 37, 38, 39, 40, 41, 42, 43, 44, 45, 46, 47, 48, 49, 50, 51, 52, 53, 54, 55, 56, 57, 58, 59, 60, 61, 62, 63, 64, 65, 66, 67, 68, 69, 70, 71, 72, 73, 74, 75, 76, 77, 78, 79, 80, 81, 82, 83, 84, 85, 86, 87, 88, 89, 90, 91, 92, 93, 94, 95, 96, 97, 98, 99, 100, 101, 102, 103, 104, 105, 106, 107, 108, 109, 110, 111, 112, 113, 114, 115, 116, 117, 118, 119, 120, 121, 122, 123, 124, 125, 126, 127, 128, 129],
      "AcquisitionTime": ["093302.877500", "093304.367500", "093305.857500", "093307.347500", "093308.837500", "093310.327500", "093311.817500", "093313.307500", "093314.797500", "093316.287500", "093317.777500", "093319.267500", "093320.757500", "093322.247500", "093323.737500", "093325.227500", "093326.717500", "093328.207500", "093329.697500", "093331.187500", "093332.677500", "093334.167500", "093335.657500", "093337.147500", "093338.637500", "093340.127500", "093341.617500", "093343.107500", "093344.597500", "093346.087500", "093347.577500", "093349.067500", "093350.557500", "093352.047500", "093353.537500", "093355.027500", "093356.517500", "093358.007500", "093359.497500", "093400.987500", "093402.477500", "093403.967500", "093405.457500", "093406.947500", "093408.437500", "093409.927500", "093411.417500", "093412.907500", "093414.397500", "093415.887500", "093417.377500", "093418.867500", "093420.357500", "093421.847500", "093423.337500", "093424.827500", "093426.317500", "093427.807500", "093429.297500", "093430.787500", "093432.277500", "093433.767500", "093435.257500", "093436.747500", "093438.237500", "093439.727500", "093441.217500", "093442.707500", "093444.197500", "093445.687500", "093447.177500", "093448.667500", "093450.157500", "093451.647500", "093453.137500", "093454.627500", "093456.117500", "093457.607500", "093459.097500", "093500.587500", "093502.077500", "093503.567500", "093505.057500", "093506.547500", "093508.037500", "093509.527500", "093511.017500", "093512.507500", "093513.997500", "093515.487500", "093516.977500", "093518.467500", "093519.957500", "093521.447500", "093522.937500", "093524.427500", "093525.917500", "093527.407500", "093528.897500", "093530.387500", "093531.877500", "093533.367500", "093534.857500", "093536.347500", "093537.837500", "093539.327500", "093540.817500", "093542.307500", "093543.797500", "093545.287500", "093546.777500", "093548.267500", "093549.757500", "093551.247500", "093552.737500", "093554.227500", "093555.717500", "093557.207500", "093558.697500", "093600.187500", "093601.677500", "093603.167500", "093604.657500", "093606.147500", "093607.637500", "093609.127500", "093610.617500", "093612.107500", "093613.597500"],
      "ContentTime": ["093417.244000", "093417.247000", "093417.250000", "093417.253000", "093417.256000", "093417.259000", "093417.262000", "093417.265000", "093417.269000", "093417.272000", "093417.274000", "093417.278000", "093417.281000", "093417.284000", "093417.287000", "093417.290000", "093417.293000", "093417.296000", "093417.299000", "093417.302000", "093437.192000", "093437.195000", "093437.198000", "093437.201000", "093437.204000", "093437.207000", "093437.210000", "093437.214000", "093437.216000", "093437.219000", "093437.222000", "093437.226000", "093437.229000", "093437.232000", "093437.235000", "093437.238000", "093437.241000", "093437.244000", "093437.247000", "093437.250000", "093457.192000", "093457.206000", "093457.209000", "093457.212000", "093457.215000", "093457.218000", "093457.221000", "093457.235000", "093457.238000", "093457.241000", "093457.244000", "093457.247000", "093457.250000", "093457.253000", "093457.256000", "093457.259000", "093457.262000", "093457.265000", "093457.268000", "093457.271000", "093517.192000", "093517.195000", "093517.198000", "093517.201000", "093517.204000", "093517.207000", "093517.210000", "093517.214000", "093517.216000", "093517.219000", "093517.222000", "093517.226000", "093517.228000", "093517.231000", "093517.234000", "093517.237000", "093517.240000", "093517.244000", "093517.247000", "093517.250000", "093537.192000", "093537.195000", "093537.198000", "093537.201000", "093537.204000", "093537.207000", "093537.210000", "093537.214000", "093537.217000", "093537.220000", "093537.223000", "093537.226000", "093537.230000", "093537.233000", "093537.236000", "093537.239000", "093537.242000", "093537.245000", "093537.248000", "093537.251000", "093557.191000", "093557.199000", "093557.201000", "093557.205000", "093557.208000", "093557.211000", "093557.214000", "093557.217000", "093557.220000", "093557.223000", "093557.226000", "093557.229000", "093557.232000", "093557.235000", "093557.238000", "093557.241000", "093615.332000", "093615.336000", "093615.339000", "093615.342000", "093615.345000", "093615.348000", "093615.351000", "093615.354000", "093615.358000", "093615.361000", "093615.364000", "093615.367000", "093615.370000"],
      "InstanceCreationTime": ["093417.244000", "093417.247000", "093417.250000", "093417.253000", "093417.256000", "093417.259000", "093417.262000", "093417.265000", "093417.269000", "093417.272000", "093417.274000", "093417.278000", "093417.281000", "093417.284000", "093417.287000", "093417.290000", "093417.293000", "093417.296000", "093417.299000", "093417.302000", "093437.192000", "093437.195000", "093437.198000", "093437.201000", "093437.204000", "093437.207000", "093437.210000", "093437.214000", "093437.216000", "093437.219000", "093437.222000", "093437.226000", "093437.229000", "093437.232000", "093437.235000", "093437.238000", "093437.241000", "093437.244000", "093437.247000", "093437.250000", "093457.192000", "093457.206000", "093457.209000", "093457.212000", "093457.215000", "093457.218000", "093457.221000", "093457.235000", "093457.238000", "093457.241000", "093457.244000", "093457.247000", "093457.250000", "093457.253000", "093457.256000", "093457.259000", "093457.262000", "093457.265000", "093457.268000", "093457.271000", "093517.192000", "093517.195000", "093517.198000", "093517.201000", "093517.204000", "093517.207000", "093517.210000", "093517.214000", "093517.216000", "093517.219000", "093517.222000", "093517.226000", "093517.228000", "093517.231000", "093517.234000", "093517.237000", "093517.240000", "093517.244000", "093517.247000", "093517.250000", "093537.192000", "093537.195000", "093537.198000", "093537.201000", "093537.204000", "093537.207000", "093537.210000", "093537.214000", "093537.217000", "093537.220000", "093537.223000", "093537.226000", "093537.230000", "093537.233000", "093537.236000", "093537.239000", "093537.242000", "093537.245000", "093537.248000", "093537.251000", "093557.191000", "093557.199000", "093557.201000", "093557.205000", "093557.208000", "093557.211000", "093557.214000", "093557.217000", "093557.220000", "093557.223000", "093557.226000", "093557.229000", "093557.232000", "093557.235000", "093557.238000", "093557.241000", "093615.332000", "093615.336000", "093615.339000", "093615.342000", "093615.345000", "093615.348000", "093615.351000", "093615.354000", "093615.358000", "093615.361000", "093615.364000", "093615.367000", "093615.370000"],
      "InstanceNumber": [1, 2, 3, 4, 5, 6, 7, 8, 9, 10, 11, 12, 13, 14, 15, 16, 17, 18, 19, 20, 21, 22, 23, 24, 25, 26, 27, 28, 29, 30, 31, 32, 33, 34, 35, 36, 37, 38, 39, 40, 41, 42, 43, 44, 45, 46, 47, 48, 49, 50, 51, 52, 53, 54, 55, 56, 57, 58, 59, 60, 61, 62, 63, 64, 65, 66, 67, 68, 69, 70, 71, 72, 73, 74, 75, 76, 77, 78, 79, 80, 81, 82, 83, 84, 85, 86, 87, 88, 89, 90, 91, 92, 93, 94, 95, 96, 97, 98, 99, 100, 101, 102, 103, 104, 105, 106, 107, 108, 109, 110, 111, 112, 113, 114, 115, 116, 117, 118, 119, 120, 121, 122, 123, 124, 125, 126, 127, 128, 129],
      "LargestImagePixelValue": [45771, 44560, 43499, 43090, 42809, 42509, 42792, 42711, 42326, 42591, 42288, 42547, 42252, 42462, 42451, 42399, 42187, 42111, 42360, 42357, 41843, 42404, 42222, 42372, 42429, 42317, 41936, 41602, 42432, 42257, 41944, 41895, 41878, 42248, 42093, 41710, 42052, 42115, 41931, 41778, 41893, 41494, 41631, 41688, 41726, 41710, 42395, 41743, 41885, 42088, 41695, 41087, 41991, 41515, 41559, 41416, 40737, 41590, 41511, 41439, 41622, 42098, 42057, 41528, 40959, 41080, 41353, 40938, 40988, 41723, 41606, 40926, 41373, 41366, 41117, 40897, 41263, 41242, 40757, 41062, 41251, 40953, 41333, 41649, 42368, 42124, 41408, 41312, 40803, 40974, 42078, 40928, 41113, 41164, 41881, 41356, 41695, 41912, 41562, 41497, 41006, 42085, 41819, 41842, 41612, 42323, 41956, 41587, 41503, 41960, 42077, 42163, 41941, 42128, 41741, 41688, 41989, 41969, 41408, 40984, 41379, 41713, 41769, 41962, 41709, 40992, 40730, 42864, 41441],
      "WindowCenter": [10312.0, 10255.0, 10220.0, 10198.0, 10179.0, 10163.0, 10160.0, 10172.0, 10191.0, 10208.0, 10196.0, 10192.0, 10187.0, 10202.0, 10209.0, 10217.0, 10213.0, 10217.0, 10219.0, 10229.0, 10231.0, 10229.0, 10214.0, 10213.0, 10224.0, 10227.0, 10215.0, 10207.0, 10224.0, 10228.0, 10216.0, 10191.0, 10180.0, 10200.0, 10215.0, 10212.0, 10217.0, 10231.0, 10226.0, 10211.0, 10202.0, 10194.0, 10200.0, 10203.0, 10208.0, 10195.0, 10199.0, 10194.0, 10193.0, 10192.0, 10192.0, 10193.0, 10223.0, 10219.0, 10194.0, 10170.0, 10157.0, 10174.0, 10181.0, 10169.0, 10161.0, 10180.0, 10188.0, 10177.0, 10167.0, 10168.0, 10191.0, 10195.0, 10195.0, 10199.0, 10193.0, 10194.0, 10186.0, 10185.0, 10184.0, 10185.0, 10198.0, 10185.0, 10170.0, 10168.0, 10183.0, 10186.0, 10209.0, 10232.0, 10220.0, 10196.0, 10167.0, 10157.0, 10150.0, 10144.0, 10149.0, 10144.0, 10138.0, 10142.0, 10159.0, 10181.0, 10205.0, 10196.0, 10188.0, 10187.0, 10192.0, 10227.0, 10230.0, 10233.0, 10208.0, 10190.0, 10182.0, 10181.0, 10189.0, 10218.0, 10207.0, 10198.0, 10180.0, 10171.0, 10159.0, 10158.0, 10157.0, 10140.0, 10125.0, 10135.0, 10163.0, 10175.0, 10173.0, 10165.0, 10172.0, 10173.0, 10236.0, 10268.0, 10225.0],
      "WindowWidth": [22260.0, 22096.0, 21994.0, 21931.0, 21880.0, 21840.0, 21827.0, 21851.0, 21898.0, 21935.0, 21909.0, 21896.0, 21889.0, 21922.0, 21939.0, 21956.0, 21948.0, 21955.0, 21961.0, 21985.0, 21993.0, 21983.0, 21950.0, 21948.0, 21970.0, 21978.0, 21954.0, 21937.0, 21969.0, 21985.0, 21958.0, 21902.0, 21876.0, 21918.0, 21951.0, 21947.0, 21957.0, 21989.0, 21976.0, 21946.0, 21922.0, 21906.0, 21918.0, 21926.0, 21938.0, 21911.0, 21916.0, 21907.0, 21903.0, 21902.0, 21899.0, 21904.0, 21969.0, 21962.0, 21907.0, 21852.0, 21824.0, 21859.0, 21876.0, 21849.0, 21830.0, 21872.0, 21895.0, 21870.0, 21847.0, 21850.0, 21900.0, 21911.0, 21911.0, 21920.0, 21907.0, 21907.0, 21892.0, 21887.0, 21887.0, 21887.0, 21917.0, 21888.0, 21855.0, 21850.0, 21884.0, 21895.0, 21945.0, 22000.0, 21970.0, 21912.0, 21848.0, 21824.0, 21807.0, 21796.0, 21806.0, 21794.0, 21782.0, 21792.0, 21823.0, 21880.0, 21934.0, 21913.0, 21890.0, 21888.0, 21902.0, 21977.0, 21986.0, 21995.0, 21939.0, 21897.0, 21881.0, 21879.0, 21897.0, 21964.0, 21942.0, 21917.0, 21875.0, 21852.0, 21826.0, 21823.0, 21821.0, 21782.0, 21749.0, 21775.0, 21839.0, 21868.0, 21861.0, 21841.0, 21854.0, 21864.0, 22002.0, 22097.0, 21978.0]
    },
    "slices": {}
  }
}