{
  "AcquisitionMatrixPE": 104,
  "AcquisitionNumber": 1,
  "AcquisitionTime": "18:22:34.532500",
  "BandwidthPerPixelPhaseEncode": 17.17,
  "BaseResolution": 104,
  "BodyPartExamined": "BRAIN",
  "CoilString": "HC1-7;NC1_2",
  "ConsistencyInfo": "N4_VE11C_LATEST_20160120",
  "ConversionSoftware": "dcm2niix",
  "ConversionSoftwareVersion": "v1.0.20190720  (JP2:OpenJPEG) GCC7.3.0",
  "DerivedVendorReportedEchoSpacing": 0.000560011,
  "DeviceSerialNumber": "167006",
  "DwellTime": 2.1e-06,
  "EchoTime": 0.037,
  "EchoTrainLength": 104,
  "EffectiveEchoSpacing": 0.000560011,
  "FlipAngle": 52,
  "ImageComments": "Unaliased_MB4_PE3_LB",
  "ImageOrientationPatientDICOM": [0.999048, -0.0404892, -0.0162302, 0.0298256, 0.905558, -0.423173],
  "ImageType": [
    "ORIGINAL",
    "PRIMARY",
    "M",
    "MB",
    "ND",
    "MOSAIC"
],
  "ImagingFrequency": 123.259,
  "InPlanePhaseEncodingDirectionDICOM": "COL",
  "InstitutionAddress": "Chemin_Queen-Mary_4565_Montreal_District_CA_H3W_1W5",
  "InstitutionName": "IUGM",
  "InstitutionalDepartmentName": "Department",
  "MRAcquisitionType": "2D",
  "MagneticFieldStrength": 3,
  "Manufacturer": "Siemens",
  "ManufacturersModelName": "Prisma_fit",
  "Modality": "MR",
  "MultibandAccelerationFactor": 4,
  "PartialFourier": 1,
  "PatientPosition": "HFS",
  "PercentPhaseFOV": 100,
  "PhaseEncodingDirection": "j",
  "PhaseEncodingSteps": 104,
  "PhaseResolution": 1,
  "PixelBandwidth": 2290,
  "ProcedureStepDescription": "hcptrt_generic",
  "ProtocolName": "func_task-gambling_run-2",
  "PulseSequenceDetails": "%CustomerSeq%_cmrr_mbep2d_bold",
  "ReceiveCoilActiveElements": "HC1-7;NC1,2",
  "ReceiveCoilName": "HeadNeck_64",
  "ReconMatrixPE": 104,
  "RepetitionTime": 1.49,
  "SAR": 0.0323836,
  "ScanOptions": "FS",
  "ScanningSequence": "EP",
  "SequenceName": "epfid2d1_104",
  "SequenceVariant": "SK_SS",
  "SeriesDescription": "func_task-gambling_run-2",
  "SeriesNumber": 29,
  "ShimSetting": [612, -7252, -8872, 333, 32, -392, 57, 23],
  "SliceThickness": 2,
  "SliceTiming": [0, 0.7825, 0.0975, 0.8825, 0.195, 0.98, 0.2925, 1.0775, 0.3925, 1.175, 0.49, 1.2725, 0.5875, 1.3725, 0.685, 0, 0.7825, 0.0975, 0.8825, 0.195, 0.98, 0.2925, 1.0775, 0.3925, 1.175, 0.49, 1.2725, 0.5875, 1.3725, 0.685, 0, 0.7825, 0.0975, 0.8825, 0.195, 0.98, 0.2925, 1.0775, 0.3925, 1.175, 0.49, 1.2725, 0.5875, 1.3725, 0.685, 0, 0.7825, 0.0975, 0.8825, 0.195, 0.98, 0.2925, 1.0775, 0.3925, 1.175, 0.49, 1.2725, 0.5875, 1.3725, 0.685],
  "SoftwareVersions": "syngo_MR_E11",
  "SpacingBetweenSlices": 2,
  "StationName": "MRC35049",
  "TaskName": "gambling",
  "TotalReadoutTime": 0.0576811,
  "TxRefAmp": 231.144,
  "WipMemBlock": "d828c92b-59f1-4e8b-9963-ad24094f03e4||Sequence: R016 ve11c/master r/e634e98; Dec 19 2017 11:00:25 by eja",
  "dcmmeta_affine": [
    [-1.9980963468551636, 0.05965118110179901, -0.06366259604692459, 102.72966766357422],
    [0.08097849041223526, 1.811116099357605, -0.8445715308189392, -61.827392578125],
    [-0.03246033191680908, 0.8463453054428101, 1.8118072748184204, -72.94894409179688],
    [0.0, 0.0, 0.0, 1.0]
],
  "dcmmeta_reorient_transform": [
    [0.0, -1.0, 0.0, 103.0],
    [1.0, 0.0, 0.0, 0.0],
    [0.0, 0.0, 1.0, 0.0],
    [0.0, 0.0, 0.0, 1.0]
],
  "dcmmeta_shape": [104, 104, 60, 129],
  "dcmmeta_slice_dim": 2,
  "dcmmeta_version": 0.6,
  "global": {
    "const": {
      "AcquisitionMatrix": [104, 0, 0, 104],
      "AngioFlag": "N",
      "BitsAllocated": 16,
      "BitsStored": 16,
      "BodyPartExamined": "BRAIN",
      "Columns": 832,
      "EchoNumbers": 1,
      "EchoTime": 37.0,
      "EchoTrainLength": 104,
      "FlipAngle": 52.0,
      "HighBit": 15,
      "ImageOrientationPatient": [0.9990481482964, -0.0404892466148, -0.0162301661761, 0.02982558962974, 0.90555803079794, -0.4231726445088],
      "ImagePositionPatient": [-857.89382078317, -754.48763661299, 334.10986998093],
      "ImageType": [
        "ORIGINAL",
        "PRIMARY",
        "M",
        "MB",
        "ND",
        "MOSAIC"
],
      "ImagedNucleus": "1H",
      "ImagingFrequency": 123.258624,
      "InPlanePhaseEncodingDirection": "COL",
      "MRAcquisitionType": "2D",
      "MagneticFieldStrength": 3.0,
      "Manufacturer": "SIEMENS",
      "ManufacturerModelName": "Prisma_fit",
      "Modality": "MR",
      "NumberOfAverages": 1.0,
      "NumberOfPhaseEncodingSteps": 104,
      "PercentPhaseFieldOfView": 100.0,
      "PercentSampling": 100.0,
      "PerformedProcedureStepStartTime": "172858.910000",
      "PhotometricInterpretation": "MONOCHROME2",
      "PixelBandwidth": 2290.0,
      "PixelRepresentation": 0,
      "PixelSpacing": [2.0, 2.0],
      "ProtocolName": "func_task-gambling_run-2",
      "RepetitionTime": 1490.0,
      "Rows": 832,
      "SAR": 0.03238357410066,
      "SamplesPerPixel": 1,
      "ScanOptions": "FS",
      "ScanningSequence": "EP",
      "SequenceName": "epfid2d1_104",
      "SequenceVariant": [
        "SK",
        "SS"
],
      "SeriesDescription": "func_task-gambling_run-2",
      "SeriesNumber": 29,
      "SeriesTime": "182358.021000",
      "SliceLocation": -43.24590527568,
      "SliceThickness": 2.0,
      "SmallestImagePixelValue": 0,
      "SoftwareVersions": "syngo MR E11",
      "SpacingBetweenSlices": 1.9999999375892,
      "SpecificCharacterSet": "ISO_IR 100",
      "StudyID": "1",
      "StudyTime": "172858.858000",
      "TransmitCoilName": "Body",
      "VariableFlipAngleFlag": "N",
      "WindowCenterWidthExplanation": "Algo1",
      "dBdt": 0.0},
    "slices": {}
  },
  "time": {
    "samples": {
      "AcquisitionNumber": [1, 2, 3, 4, 5, 6, 7, 8, 9, 10, 11, 12, 13, 14, 15, 16, 17, 18, 19, 20, 21, 22, 23, 24, 25, 26, 27, 28, 29, 30, 31, 32, 33, 34, 35, 36, 37, 38, 39, 40, 41, 42, 43, 44, 45, 46, 47, 48, 49, 50, 51, 52, 53, 54, 55, 56, 57, 58, 59, 60, 61, 62, 63, 64, 65, 66, 67, 68, 69, 70, 71, 72, 73, 74, 75, 76, 77, 78, 79, 80, 81, 82, 83, 84, 85, 86, 87, 88, 89, 90, 91, 92, 93, 94, 95, 96, 97, 98, 99, 100, 101, 102, 103, 104, 105, 106, 107, 108, 109, 110, 111, 112, 113, 114, 115, 116, 117, 118, 119, 120, 121, 122, 123, 124, 125, 126, 127, 128, 129],
      "AcquisitionTime": ["182234.532500", "182236.022500", "182237.512500", "182239.002500", "182240.492500", "182241.982500", "182243.472500", "182244.962500", "182246.452500", "182247.942500", "182249.432500", "182250.922500", "182252.412500", "182253.902500", "182255.392500", "182256.882500", "182258.372500", "182259.862500", "182301.352500", "182302.842500", "182304.332500", "182305.822500", "182307.312500", "182308.802500", "182310.292500", "182311.782500", "182313.272500", "182314.762500", "182316.252500", "182317.742500", "182319.232500", "182320.722500", "182322.212500", "182323.702500", "182325.192500", "182326.682500", "182328.172500", "182329.662500", "182331.152500", "182332.642500", "182334.132500", "182335.622500", "182337.112500", "182338.602500", "182340.092500", "182341.582500", "182343.072500", "182344.562500", "182346.052500", "182347.542500", "182349.032500", "182350.522500", "182352.012500", "182353.502500", "182354.992500", "182356.482500", "182357.972500", "182359.462500", "182400.952500", "182402.442500", "182403.932500", "182405.422500", "182406.912500", "182408.402500", "182409.892500", "182411.382500", "182412.872500", "182414.362500", "182415.852500", "182417.342500", "182418.832500", "182420.322500", "182421.812500", "182423.302500", "182424.792500", "182426.282500", "182427.772500", "182429.262500", "182430.752500", "182432.242500", "182433.732500", "182435.222500", "182436.712500", "182438.202500", "182439.692500", "182441.182500", "182442.672500", "182444.162500", "182445.652500", "182447.142500", "182448.632500", "182450.122500", "182451.612500", "182453.102500", "182454.592500", "182456.082500", "182457.572500", "182459.062500", "182500.552500", "182502.042500", "182503.532500", "182505.022500", "182506.512500", "182508.002500", "182509.492500", "182510.982500", "182512.472500", "182513.962500", "182515.452500", "182516.942500", "182518.432500", "182519.922500", "182521.412500", "182522.902500", "182524.392500", "182525.882500", "182527.372500", "182528.862500", "182530.352500", "182531.842500", "182533.332500", "182534.822500", "182536.312500", "182537.802500", "182539.292500", "182540.782500", "182542.272500", "182543.762500", "182545.252500"],
      "ContentTime": ["182358.025000", "182358.028000", "182358.031000", "182358.034000", "182358.037000", "182358.039000", "182358.042000", "182358.045000", "182358.048000", "182358.062000", "182358.064000", "182358.067000", "182358.070000", "182358.073000", "182358.076000", "182358.078000", "182358.081000", "182358.084000", "182358.087000", "182358.090000", "182358.092000", "182358.095000", "182358.098000", "182358.101000", "182358.104000", "182358.107000", "182358.109000", "182417.973000", "182417.976000", "182417.979000", "182417.982000", "182417.985000", "182417.988000", "182417.991000", "182417.994000", "182417.996000", "182418.000000", "182418.003000", "182418.006000", "182418.009000", "182418.012000", "182418.015000", "182418.018000", "182418.031000", "182418.034000", "182418.037000", "182418.040000", "182437.973000", "182437.976000", "182437.978000", "182437.981000", "182437.984000", "182437.987000", "182437.990000", "182437.993000", "182437.996000", "182437.998000", "182438.002000", "182438.005000", "182438.008000", "182438.011000", "182438.013000", "182438.016000", "182438.019000", "182438.022000", "182438.025000", "182438.028000", "182438.030000", "182457.974000", "182457.977000", "182457.979000", "182457.982000", "182457.985000", "182457.988000", "182457.991000", "182457.994000", "182457.997000", "182457.999000", "182458.003000", "182458.006000", "182458.009000", "182458.012000", "182458.015000", "182458.018000", "182458.021000", "182458.023000", "182458.026000", "182458.029000", "182517.974000", "182517.977000", "182517.980000", "182517.983000", "182517.985000", "182517.988000", "182517.991000", "182517.994000", "182517.997000", "182518.001000", "182518.004000", "182518.007000", "182518.009000", "182518.012000", "182518.015000", "182518.018000", "182518.021000", "182518.024000", "182518.027000", "182518.029000", "182547.361000", "182547.364000", "182547.367000", "182547.370000", "182547.373000", "182547.381000", "182547.384000", "182547.386000", "182547.389000", "182547.392000", "182547.395000", "182547.398000", "182547.401000", "182547.404000", "182547.407000", "182547.410000", "182547.412000", "182547.415000", "182547.418000", "182547.421000", "182547.424000"],
      "InstanceCreationTime": ["182358.025000", "182358.028000", "182358.031000", "182358.034000", "182358.037000", "182358.039000", "182358.042000", "182358.045000", "182358.048000", "182358.062000", "182358.064000", "182358.067000", "182358.070000", "182358.073000", "182358.076000", "182358.078000", "182358.081000", "182358.084000", "182358.087000", "182358.090000", "182358.092000", "182358.095000", "182358.098000", "182358.101000", "182358.104000", "182358.107000", "182358.109000", "182417.973000", "182417.976000", "182417.979000", "182417.982000", "182417.985000", "182417.988000", "182417.991000", "182417.994000", "182417.996000", "182418.000000", "182418.003000", "182418.006000", "182418.009000", "182418.012000", "182418.015000", "182418.018000", "182418.031000", "182418.034000", "182418.037000", "182418.040000", "182437.973000", "182437.976000", "182437.978000", "182437.981000", "182437.984000", "182437.987000", "182437.990000", "182437.993000", "182437.996000", "182437.998000", "182438.002000", "182438.005000", "182438.008000", "182438.011000", "182438.013000", "182438.016000", "182438.019000", "182438.022000", "182438.025000", "182438.028000", "182438.030000", "182457.974000", "182457.977000", "182457.979000", "182457.982000", "182457.985000", "182457.988000", "182457.991000", "182457.994000", "182457.997000", "182457.999000", "182458.003000", "182458.006000", "182458.009000", "182458.012000", "182458.015000", "182458.018000", "182458.021000", "182458.023000", "182458.026000", "182458.029000", "182517.974000", "182517.977000", "182517.980000", "182517.983000", "182517.985000", "182517.988000", "182517.991000", "182517.994000", "182517.997000", "182518.001000", "182518.004000", "182518.007000", "182518.009000", "182518.012000", "182518.015000", "182518.018000", "182518.021000", "182518.024000", "182518.027000", "182518.029000", "182547.361000", "182547.364000", "182547.367000", "182547.370000", "182547.373000", "182547.381000", "182547.384000", "182547.386000", "182547.389000", "182547.392000", "182547.395000", "182547.398000", "182547.401000", "182547.404000", "182547.407000", "182547.410000", "182547.412000", "182547.415000", "182547.418000", "182547.421000", "182547.424000"],
      "InstanceNumber": [1, 2, 3, 4, 5, 6, 7, 8, 9, 10, 11, 12, 13, 14, 15, 16, 17, 18, 19, 20, 21, 22, 23, 24, 25, 26, 27, 28, 29, 30, 31, 32, 33, 34, 35, 36, 37, 38, 39, 40, 41, 42, 43, 44, 45, 46, 47, 48, 49, 50, 51, 52, 53, 54, 55, 56, 57, 58, 59, 60, 61, 62, 63, 64, 65, 66, 67, 68, 69, 70, 71, 72, 73, 74, 75, 76, 77, 78, 79, 80, 81, 82, 83, 84, 85, 86, 87, 88, 89, 90, 91, 92, 93, 94, 95, 96, 97, 98, 99, 100, 101, 102, 103, 104, 105, 106, 107, 108, 109, 110, 111, 112, 113, 114, 115, 116, 117, 118, 119, 120, 121, 122, 123, 124, 125, 126, 127, 128, 129],
      "LargestImagePixelValue": [58571, 56749, 56314, 54977, 55809, 54669, 54984, 54318, 54178, 53888, 54123, 54096, 53884, 54020, 53960, 54094, 54141, 53508, 54083, 54227, 54013, 54143, 53268, 53797, 53384, 53665, 54188, 53622, 53588, 53302, 54339, 54358, 53903, 53748, 53058, 52934, 52255, 52757, 52224, 52291, 52438, 52439, 52063, 52491, 51876, 52168, 52171, 52559, 52156, 52314, 52070, 52256, 52468, 52199, 52113, 52315, 51853, 51941, 52142, 52333, 52435, 52053, 52432, 52621, 52409, 52724, 52976, 52022, 51617, 52073, 52497, 52668, 52653, 52234, 52150, 52207, 52502, 52941, 53702, 53542, 54281, 54533, 54889, 55402, 55713, 55609, 56098, 55850, 56110, 56329, 56021, 56116, 56040, 56073, 55840, 56115, 56539, 56770, 56149, 56857, 56462, 56926, 56579, 56757, 57102, 57432, 57021, 56697, 56621, 56750, 56764, 56995, 56431, 56813, 57161, 56533, 56982, 56915, 57540, 57075, 56411, 56298, 56695, 56371, 55974, 56109, 56981, 56540, 56759],
      "WindowCenter": [10515.0, 10471.0, 10442.0, 10414.0, 10399.0, 10407.0, 10438.0, 10442.0, 10435.0, 10419.0, 10415.0, 10409.0, 10412.0, 10426.0, 10433.0, 10433.0, 10434.0, 10426.0, 10423.0, 10432.0, 10444.0, 10437.0, 10413.0, 10406.0, 10390.0, 10404.0, 10429.0, 10432.0, 10436.0, 10431.0, 10417.0, 10388.0, 10360.0, 10345.0, 10352.0, 10344.0, 10345.0, 10353.0, 10355.0, 10358.0, 10366.0, 10368.0, 10375.0, 10377.0, 10363.0, 10359.0, 10357.0, 10350.0, 10348.0, 10349.0, 10360.0, 10375.0, 10367.0, 10345.0, 10332.0, 10339.0, 10357.0, 10385.0, 10413.0, 10412.0, 10397.0, 10372.0, 10353.0, 10340.0, 10346.0, 10355.0, 10348.0, 10331.0, 10308.0, 10320.0, 10346.0, 10370.0, 10347.0, 10323.0, 10320.0, 10343.0, 10387.0, 10401.0, 10398.0, 10387.0, 10374.0, 10363.0, 10367.0, 10375.0, 10383.0, 10384.0, 10389.0, 10385.0, 10391.0, 10392.0, 10392.0, 10391.0, 10385.0, 10383.0, 10383.0, 10391.0, 10405.0, 10399.0, 10387.0, 10388.0, 10387.0, 10388.0, 10397.0, 10398.0, 10396.0, 10386.0, 10380.0, 10380.0, 10387.0, 10387.0, 10381.0, 10379.0, 10373.0, 10386.0, 10402.0, 10399.0, 10399.0, 10397.0, 10395.0, 10378.0, 10355.0, 10352.0, 10367.0, 10400.0, 10420.0, 10419.0, 10402.0, 10376.0, 10356.0],
      "WindowWidth": [22754.0, 22622.0, 22529.0, 22451.0, 22407.0, 22421.0, 22487.0, 22501.0, 22483.0, 22447.0, 22436.0, 22423.0, 22431.0, 22464.0, 22478.0, 22478.0, 22483.0, 22463.0, 22453.0, 22476.0, 22504.0, 22489.0, 22432.0, 22414.0, 22378.0, 22411.0, 22469.0, 22476.0, 22489.0, 22480.0, 22441.0, 22367.0, 22300.0, 22265.0, 22282.0, 22263.0, 22268.0, 22284.0, 22291.0, 22300.0, 22318.0, 22325.0, 22340.0, 22347.0, 22317.0, 22304.0, 22300.0, 22284.0, 22279.0, 22283.0, 22308.0, 22337.0, 22320.0, 22271.0, 22242.0, 22258.0, 22301.0, 22367.0, 22428.0, 22426.0, 22393.0, 22339.0, 22293.0, 22258.0, 22272.0, 22293.0, 22277.0, 22240.0, 22187.0, 22215.0, 22271.0, 22326.0, 22275.0, 22223.0, 22213.0, 22265.0, 22365.0, 22399.0, 22386.0, 22358.0, 22328.0, 22303.0, 22311.0, 22326.0, 22345.0, 22350.0, 22357.0, 22351.0, 22365.0, 22365.0, 22364.0, 22364.0, 22353.0, 22342.0, 22346.0, 22363.0, 22392.0, 22378.0, 22356.0, 22352.0, 22348.0, 22352.0, 22374.0, 22377.0, 22370.0, 22347.0, 22335.0, 22335.0, 22352.0, 22349.0, 22336.0, 22331.0, 22319.0, 22348.0, 22383.0, 22380.0, 22382.0, 22373.0, 22369.0, 22327.0, 22278.0, 22269.0, 22302.0, 22391.0, 22433.0, 22429.0, 22387.0, 22328.0, 22281.0]
    },
    "slices": {}
  }
}