{
  "AcquisitionMatrixPE": 104,
  "AcquisitionNumber": 1,
  "AcquisitionTime": "18:08:57.452500",
  "BandwidthPerPixelPhaseEncode": 17.17,
  "BaseResolution": 104,
  "BodyPartExamined": "BRAIN",
  "CoilString": "HC1-7;NC1_2",
  "ConsistencyInfo": "N4_VE11C_LATEST_20160120",
  "ConversionSoftware": "dcm2niix",
  "ConversionSoftwareVersion": "v1.0.20190720  (JP2:OpenJPEG) GCC7.3.0",
  "DerivedVendorReportedEchoSpacing": 0.000560011,
  "DeviceSerialNumber": "167006",
  "DwellTime": 2.1e-06,
  "EchoTime": 0.037,
  "EchoTrainLength": 104,
  "EffectiveEchoSpacing": 0.000560011,
  "FlipAngle": 52,
  "ImageComments": "Unaliased_MB4_PE3_LB",
  "ImageOrientationPatientDICOM": [0.999048, -0.0404892, -0.0162302, 0.0298256, 0.905558, -0.423173],
  "ImageType": [
    "ORIGINAL",
    "PRIMARY",
    "M",
    "MB",
    "ND",
    "MOSAIC"
],
  "ImagingFrequency": 123.259,
  "InPlanePhaseEncodingDirectionDICOM": "COL",
  "InstitutionAddress": "Chemin_Queen-Mary_4565_Montreal_District_CA_H3W_1W5",
  "InstitutionName": "IUGM",
  "InstitutionalDepartmentName": "Department",
  "MRAcquisitionType": "2D",
  "MagneticFieldStrength": 3,
  "Manufacturer": "Siemens",
  "ManufacturersModelName": "Prisma_fit",
  "Modality": "MR",
  "MultibandAccelerationFactor": 4,
  "PartialFourier": 1,
  "PatientPosition": "HFS",
  "PercentPhaseFOV": 100,
  "PhaseEncodingDirection": "j",
  "PhaseEncodingSteps": 104,
  "PhaseResolution": 1,
  "PixelBandwidth": 2290,
  "ProcedureStepDescription": "hcptrt_generic",
  "ProtocolName": "func_task-relational_run-1",
  "PulseSequenceDetails": "%CustomerSeq%_cmrr_mbep2d_bold",
  "ReceiveCoilActiveElements": "HC1-7;NC1,2",
  "ReceiveCoilName": "HeadNeck_64",
  "ReconMatrixPE": 104,
  "RepetitionTime": 1.49,
  "SAR": 0.0323447,
  "ScanOptions": "FS",
  "ScanningSequence": "EP",
  "SequenceName": "epfid2d1_104",
  "SequenceVariant": "SK_SS",
  "SeriesDescription": "func_task-relational_run-1",
  "SeriesNumber": 21,
  "ShimSetting": [612, -7252, -8872, 333, 32, -392, 57, 23],
  "SliceThickness": 2,
  "SliceTiming": [0, 0.785, 0.1, 0.8825, 0.1975, 0.98, 0.295, 1.08, 0.3925, 1.1775, 0.49, 1.275, 0.59, 1.3725, 0.6875, 0, 0.785, 0.1, 0.8825, 0.1975, 0.98, 0.295, 1.08, 0.3925, 1.1775, 0.49, 1.275, 0.59, 1.3725, 0.6875, 0, 0.785, 0.1, 0.8825, 0.1975, 0.98, 0.295, 1.08, 0.3925, 1.1775, 0.49, 1.275, 0.59, 1.3725, 0.6875, 0, 0.785, 0.1, 0.8825, 0.1975, 0.98, 0.295, 1.08, 0.3925, 1.1775, 0.49, 1.275, 0.59, 1.3725, 0.6875],
  "SoftwareVersions": "syngo_MR_E11",
  "SpacingBetweenSlices": 2,
  "StationName": "MRC35049",
  "TaskName": "relational",
  "TotalReadoutTime": 0.0576811,
  "TxRefAmp": 231.144,
  "WipMemBlock": "8f195090-ccf7-4883-9ab7-7df55a303ef8||Sequence: R016 ve11c/master r/e634e98; Dec 19 2017 11:00:25 by eja",
  "dcmmeta_affine": [
    [-1.9980963468551636, 0.05965118110179901, -0.06366259604692459, 102.72966766357422],
    [0.08097849041223526, 1.811116099357605, -0.8445715308189392, -61.827392578125],
    [-0.03246033191680908, 0.8463453054428101, 1.8118072748184204, -72.94894409179688],
    [0.0, 0.0, 0.0, 1.0]
],
  "dcmmeta_reorient_transform": [
    [0.0, -1.0, 0.0, 103.0],
    [1.0, 0.0, 0.0, 0.0],
    [0.0, 0.0, 1.0, 0.0],
    [0.0, 0.0, 0.0, 1.0]
],
  "dcmmeta_shape": [104, 104, 60, 119],
  "dcmmeta_slice_dim": 2,
  "dcmmeta_version": 0.6,
  "global": {
    "const": {
      "AcquisitionMatrix": [104, 0, 0, 104],
      "AngioFlag": "N",
      "BitsAllocated": 16,
      "BitsStored": 16,
      "BodyPartExamined": "BRAIN",
      "Columns": 832,
      "EchoNumbers": 1,
      "EchoTime": 37.0,
      "EchoTrainLength": 104,
      "FlipAngle": 52.0,
      "HighBit": 15,
      "ImageOrientationPatient": [0.9990481482964, -0.0404892466148, -0.0162301661761, 0.02982558962974, 0.90555803079794, -0.4231726445088],
      "ImagePositionPatient": [-857.89382078317, -754.48763661299, 334.10986998093],
      "ImageType": [
        "ORIGINAL",
        "PRIMARY",
        "M",
        "MB",
        "ND",
        "MOSAIC"
],
      "ImagedNucleus": "1H",
      "ImagingFrequency": 123.25862,
      "InPlanePhaseEncodingDirection": "COL",
      "MRAcquisitionType": "2D",
      "MagneticFieldStrength": 3.0,
      "Manufacturer": "SIEMENS",
      "ManufacturerModelName": "Prisma_fit",
      "Modality": "MR",
      "NumberOfAverages": 1.0,
      "NumberOfPhaseEncodingSteps": 104,
      "PercentPhaseFieldOfView": 100.0,
      "PercentSampling": 100.0,
      "PerformedProcedureStepStartTime": "172858.910000",
      "PhotometricInterpretation": "MONOCHROME2",
      "PixelBandwidth": 2290.0,
      "PixelRepresentation": 0,
      "PixelSpacing": [2.0, 2.0],
      "ProtocolName": "func_task-relational_run-1",
      "RepetitionTime": 1490.0,
      "Rows": 832,
      "SAR": 0.03234470548097,
      "SamplesPerPixel": 1,
      "ScanOptions": "FS",
      "ScanningSequence": "EP",
      "SequenceName": "epfid2d1_104",
      "SequenceVariant": [
        "SK",
        "SS"
],
      "SeriesDescription": "func_task-relational_run-1",
      "SeriesNumber": 21,
      "SeriesTime": "181017.266000",
      "SliceLocation": -43.24590527568,
      "SliceThickness": 2.0,
      "SmallestImagePixelValue": 0,
      "SoftwareVersions": "syngo MR E11",
      "SpacingBetweenSlices": 1.9999999375892,
      "SpecificCharacterSet": "ISO_IR 100",
      "StudyID": "1",
      "StudyTime": "172858.858000",
      "TransmitCoilName": "Body",
      "VariableFlipAngleFlag": "N",
      "WindowCenterWidthExplanation": "Algo1",
      "dBdt": 0.0},
    "slices": {}
  },
  "time": {
    "samples": {
      "AcquisitionNumber": [1, 2, 3, 4, 5, 6, 7, 8, 9, 10, 11, 12, 13, 14, 15, 16, 17, 18, 19, 20, 21, 22, 23, 24, 25, 26, 27, 28, 29, 30, 31, 32, 33, 34, 35, 36, 37, 38, 39, 40, 41, 42, 43, 44, 45, 46, 47, 48, 49, 50, 51, 52, 53, 54, 55, 56, 57, 58, 59, 60, 61, 62, 63, 64, 65, 66, 67, 68, 69, 70, 71, 72, 73, 74, 75, 76, 77, 78, 79, 80, 81, 82, 83, 84, 85, 86, 87, 88, 89, 90, 91, 92, 93, 94, 95, 96, 97, 98, 99, 100, 101, 102, 103, 104, 105, 106, 107, 108, 109, 110, 111, 112, 113, 114, 115, 116, 117, 118, 119],
      "AcquisitionTime": ["180857.452500", "180858.942500", "180900.432500", "180901.922500", "180903.412500", "180904.902500", "180906.392500", "180907.882500", "180909.372500", "180910.862500", "180912.352500", "180913.842500", "180915.332500", "180916.822500", "180918.312500", "180919.802500", "180921.292500", "180922.782500", "180924.272500", "180925.762500", "180927.252500", "180928.742500", "180930.232500", "180931.722500", "180933.212500", "180934.702500", "180936.192500", "180937.682500", "180939.172500", "180940.662500", "180942.152500", "180943.642500", "180945.132500", "180946.622500", "180948.112500", "180949.602500", "180951.092500", "180952.582500", "180954.072500", "180955.562500", "180957.052500", "180958.542500", "181000.032500", "181001.522500", "181003.012500", "181004.502500", "181005.992500", "181007.482500", "181008.972500", "181010.462500", "181011.952500", "181013.442500", "181014.932500", "181016.422500", "181017.912500", "181019.402500", "181020.892500", "181022.382500", "181023.872500", "181025.362500", "181026.852500", "181028.342500", "181029.832500", "181031.322500", "181032.812500", "181034.302500", "181035.792500", "181037.282500", "181038.772500", "181040.262500", "181041.752500", "181043.242500", "181044.732500", "181046.222500", "181047.712500", "181049.202500", "181050.692500", "181052.182500", "181053.672500", "181055.162500", "181056.652500", "181058.142500", "181059.632500", "181101.122500", "181102.612500", "181104.102500", "181105.592500", "181107.082500", "181108.572500", "181110.062500", "181111.552500", "181113.042500", "181114.532500", "181116.022500", "181117.512500", "181119.002500", "181120.492500", "181121.982500", "181123.472500", "181124.962500", "181126.452500", "181127.942500", "181129.432500", "181130.922500", "181132.412500", "181133.902500", "181135.392500", "181136.882500", "181138.372500", "181139.862500", "181141.352500", "181142.842500", "181144.332500", "181145.822500", "181147.312500", "181148.802500", "181150.292500", "181151.782500", "181153.272500"],
      "ContentTime": ["181017.269000", "181017.272000", "181017.275000", "181017.278000", "181017.281000", "181017.284000", "181017.286000", "181017.298000", "181017.301000", "181017.304000", "181017.306000", "181017.309000", "181017.312000", "181017.315000", "181017.318000", "181017.320000", "181017.323000", "181017.326000", "181017.329000", "181017.332000", "181017.342000", "181017.345000", "181017.348000", "181017.350000", "181017.353000", "181017.356000", "181037.237000", "181037.240000", "181037.243000", "181037.246000", "181037.248000", "181037.251000", "181037.254000", "181037.257000", "181037.260000", "181037.263000", "181037.266000", "181037.268000", "181037.271000", "181037.278000", "181037.281000", "181037.283000", "181037.286000", "181037.289000", "181037.292000", "181037.295000", "181057.237000", "181057.240000", "181057.243000", "181057.246000", "181057.248000", "181057.251000", "181057.261000", "181057.264000", "181057.267000", "181057.270000", "181057.272000", "181057.275000", "181057.278000", "181057.281000", "181057.284000", "181057.286000", "181057.289000", "181057.292000", "181057.295000", "181057.298000", "181117.238000", "181117.241000", "181117.244000", "181117.247000", "181117.249000", "181117.252000", "181117.255000", "181117.258000", "181117.261000", "181117.263000", "181117.266000", "181117.269000", "181117.272000", "181117.275000", "181117.278000", "181117.280000", "181117.283000", "181117.286000", "181117.289000", "181117.292000", "181137.238000", "181137.241000", "181137.244000", "181137.246000", "181137.249000", "181137.252000", "181137.255000", "181137.258000", "181137.261000", "181137.263000", "181137.266000", "181137.269000", "181137.272000", "181137.275000", "181137.278000", "181137.281000", "181137.283000", "181137.286000", "181137.289000", "181137.292000", "181155.918000", "181155.921000", "181155.924000", "181155.927000", "181155.929000", "181155.932000", "181155.935000", "181155.938000", "181155.941000", "181155.944000", "181155.947000", "181155.950000", "181155.953000"],
      "InstanceCreationTime": ["181017.269000", "181017.272000", "181017.275000", "181017.278000", "181017.281000", "181017.284000", "181017.286000", "181017.298000", "181017.301000", "181017.304000", "181017.306000", "181017.309000", "181017.312000", "181017.315000", "181017.318000", "181017.320000", "181017.323000", "181017.326000", "181017.329000", "181017.332000", "181017.342000", "181017.345000", "181017.348000", "181017.350000", "181017.353000", "181017.356000", "181037.237000", "181037.240000", "181037.243000", "181037.246000", "181037.248000", "181037.251000", "181037.254000", "181037.257000", "181037.260000", "181037.263000", "181037.266000", "181037.268000", "181037.271000", "181037.278000", "181037.281000", "181037.283000", "181037.286000", "181037.289000", "181037.292000", "181037.295000", "181057.237000", "181057.240000", "181057.243000", "181057.246000", "181057.248000", "181057.251000", "181057.261000", "181057.264000", "181057.267000", "181057.270000", "181057.272000", "181057.275000", "181057.278000", "181057.281000", "181057.284000", "181057.286000", "181057.289000", "181057.292000", "181057.295000", "181057.298000", "181117.238000", "181117.241000", "181117.244000", "181117.247000", "181117.249000", "181117.252000", "181117.255000", "181117.258000", "181117.261000", "181117.263000", "181117.266000", "181117.269000", "181117.272000", "181117.275000", "181117.278000", "181117.280000", "181117.283000", "181117.286000", "181117.289000", "181117.292000", "181137.238000", "181137.241000", "181137.244000", "181137.246000", "181137.249000", "181137.252000", "181137.255000", "181137.258000", "181137.261000", "181137.263000", "181137.266000", "181137.269000", "181137.272000", "181137.275000", "181137.278000", "181137.281000", "181137.283000", "181137.286000", "181137.289000", "181137.292000", "181155.918000", "181155.921000", "181155.924000", "181155.927000", "181155.929000", "181155.932000", "181155.935000", "181155.938000", "181155.941000", "181155.944000", "181155.947000", "181155.950000", "181155.953000"],
      "InstanceNumber": [1, 2, 3, 4, 5, 6, 7, 8, 9, 10, 11, 12, 13, 14, 15, 16, 17, 18, 19, 20, 21, 22, 23, 24, 25, 26, 27, 28, 29, 30, 31, 32, 33, 34, 35, 36, 37, 38, 39, 40, 41, 42, 43, 44, 45, 46, 47, 48, 49, 50, 51, 52, 53, 54, 55, 56, 57, 58, 59, 60, 61, 62, 63, 64, 65, 66, 67, 68, 69, 70, 71, 72, 73, 74, 75, 76, 77, 78, 79, 80, 81, 82, 83, 84, 85, 86, 87, 88, 89, 90, 91, 92, 93, 94, 95, 96, 97, 98, 99, 100, 101, 102, 103, 104, 105, 106, 107, 108, 109, 110, 111, 112, 113, 114, 115, 116, 117, 118, 119],
      "LargestImagePixelValue": [57882, 55514, 55519, 54218, 54244, 53758, 53861, 53735, 53725, 53300, 53019, 53128, 53054, 53294, 52512, 52970, 52562, 53191, 53235, 53441, 52560, 53454, 52854, 53205, 53164, 53003, 52924, 52738, 53026, 52861, 52955, 52477, 52685, 52475, 53174, 53455, 52987, 53458, 52917, 52984, 53075, 52920, 52872, 52966, 52597, 53659, 53077, 53500, 53039, 53431, 52601, 53396, 52923, 53460, 53082, 52959, 53432, 52506, 52947, 52952, 53482, 53247, 53164, 53560, 53203, 52766, 53525, 53196, 53335, 54417, 53361, 53115, 53207, 53092, 53219, 53124, 53849, 53822, 54052, 53848, 53162, 53581, 53669, 53444, 53588, 53561, 53620, 53187, 53404, 52957, 53215, 53216, 53217, 53219, 53653, 53570, 53595, 53026, 52751, 53566, 53655, 53037, 53503, 54242, 53749, 53373, 53229, 53688, 53361, 53373, 53587, 53454, 54426, 54525, 54305, 54367, 54087, 53886, 54228],
      "WindowCenter": [10462.0, 10435.0, 10440.0, 10409.0, 10387.0, 10360.0, 10350.0, 10356.0, 10363.0, 10364.0, 10364.0, 10357.0, 10356.0, 10367.0, 10359.0, 10371.0, 10368.0, 10372.0, 10372.0, 10379.0, 10376.0, 10381.0, 10369.0, 10372.0, 10371.0, 10373.0, 10372.0, 10366.0, 10364.0, 10350.0, 10355.0, 10351.0, 10357.0, 10351.0, 10348.0, 10339.0, 10336.0, 10342.0, 10345.0, 10360.0, 10380.0, 10374.0, 10353.0, 10354.0, 10343.0, 10358.0, 10354.0, 10354.0, 10348.0, 10345.0, 10333.0, 10329.0, 10328.0, 10341.0, 10340.0, 10339.0, 10337.0, 10339.0, 10355.0, 10357.0, 10355.0, 10338.0, 10330.0, 10342.0, 10342.0, 10349.0, 10346.0, 10331.0, 10339.0, 10354.0, 10353.0, 10361.0, 10388.0, 10394.0, 10379.0, 10355.0, 10347.0, 10331.0, 10335.0, 10342.0, 10362.0, 10374.0, 10372.0, 10357.0, 10348.0, 10339.0, 10344.0, 10338.0, 10339.0, 10334.0, 10326.0, 10324.0, 10337.0, 10357.0, 10371.0, 10359.0, 10353.0, 10337.0, 10331.0, 10337.0, 10344.0, 10331.0, 10344.0, 10359.0, 10356.0, 10355.0, 10347.0, 10342.0, 10348.0, 10349.0, 10337.0, 10335.0, 10378.0, 10399.0, 10409.0, 10388.0, 10368.0, 10335.0, 10323.0],
      "WindowWidth": [22606.0, 22506.0, 22495.0, 22412.0, 22353.0, 22287.0, 22262.0, 22275.0, 22288.0, 22292.0, 22287.0, 22275.0, 22270.0, 22295.0, 22281.0, 22308.0, 22303.0, 22312.0, 22308.0, 22322.0, 22320.0, 22329.0, 22304.0, 22308.0, 22304.0, 22308.0, 22307.0, 22293.0, 22287.0, 22259.0, 22270.0, 22263.0, 22273.0, 22263.0, 22255.0, 22231.0, 22222.0, 22237.0, 22244.0, 22277.0, 22327.0, 22313.0, 22267.0, 22265.0, 22243.0, 22270.0, 22261.0, 22265.0, 22252.0, 22242.0, 22222.0, 22209.0, 22206.0, 22232.0, 22240.0, 22237.0, 22225.0, 22233.0, 22268.0, 22274.0, 22270.0, 22231.0, 22213.0, 22238.0, 22247.0, 22258.0, 22246.0, 22216.0, 22232.0, 22268.0, 22262.0, 22280.0, 22344.0, 22362.0, 22329.0, 22271.0, 22248.0, 22214.0, 22221.0, 22234.0, 22282.0, 22310.0, 22302.0, 22273.0, 22253.0, 22233.0, 22241.0, 22231.0, 22234.0, 22229.0, 22208.0, 22202.0, 22226.0, 22274.0, 22306.0, 22276.0, 22262.0, 22224.0, 22215.0, 22225.0, 22241.0, 22213.0, 22237.0, 22274.0, 22270.0, 22266.0, 22253.0, 22245.0, 22257.0, 22261.0, 22228.0, 22225.0, 22328.0, 22374.0, 22394.0, 22349.0, 22300.0, 22227.0, 22199.0]
    },
    "slices": {}
  }
}