{
  "AcquisitionMatrixPE": 104,
  "AcquisitionNumber": 1,
  "AcquisitionTime": "17:47:31.547500",
  "BandwidthPerPixelPhaseEncode": 17.17,
  "BaseResolution": 104,
  "BodyPartExamined": "BRAIN",
  "CoilString": "HC1-7;NC1_2",
  "ConsistencyInfo": "N4_VE11C_LATEST_20160120",
  "ConversionSoftware": "dcm2niix",
  "ConversionSoftwareVersion": "v1.0.20190720  (JP2:OpenJPEG) GCC7.3.0",
  "DerivedVendorReportedEchoSpacing": 0.000560011,
  "DeviceSerialNumber": "167006",
  "DwellTime": 2.1e-06,
  "EchoTime": 0.037,
  "EchoTrainLength": 104,
  "EffectiveEchoSpacing": 0.000560011,
  "FlipAngle": 52,
  "ImageComments": "Unaliased_MB4_PE3_LB",
  "ImageOrientationPatientDICOM": [0.999048, -0.0404892, -0.0162302, 0.0298256, 0.905558, -0.423173],
  "ImageType": [
    "ORIGINAL",
    "PRIMARY",
    "M",
    "MB",
    "ND",
    "MOSAIC"
],
  "ImagingFrequency": 123.259,
  "InPlanePhaseEncodingDirectionDICOM": "COL",
  "InstitutionAddress": "Chemin_Queen-Mary_4565_Montreal_District_CA_H3W_1W5",
  "InstitutionName": "IUGM",
  "InstitutionalDepartmentName": "Department",
  "MRAcquisitionType": "2D",
  "MagneticFieldStrength": 3,
  "Manufacturer": "Siemens",
  "ManufacturersModelName": "Prisma_fit",
  "Modality": "MR",
  "MultibandAccelerationFactor": 4,
  "PartialFourier": 1,
  "PatientPosition": "HFS",
  "PercentPhaseFOV": 100,
  "PhaseEncodingDirection": "j",
  "PhaseEncodingSteps": 104,
  "PhaseResolution": 1,
  "PixelBandwidth": 2290,
  "ProcedureStepDescription": "hcptrt_generic",
  "ProtocolName": "func_task-motor_run-1",
  "PulseSequenceDetails": "%CustomerSeq%_cmrr_mbep2d_bold",
  "ReceiveCoilActiveElements": "HC1-7;NC1,2",
  "ReceiveCoilName": "HeadNeck_64",
  "ReconMatrixPE": 104,
  "RepetitionTime": 1.49,
  "SAR": 0.0324322,
  "ScanOptions": "FS",
  "ScanningSequence": "EP",
  "SequenceName": "epfid2d1_104",
  "SequenceVariant": "SK_SS",
  "SeriesDescription": "func_task-motor_run-1",
  "SeriesNumber": 13,
  "ShimSetting": [612, -7252, -8872, 333, 32, -392, 57, 23],
  "SliceThickness": 2,
  "SliceTiming": [0, 0.785, 0.0975, 0.8825, 0.1975, 0.98, 0.295, 1.0775, 0.3925, 1.1775, 0.49, 1.275, 0.5875, 1.3725, 0.6875, 0, 0.785, 0.0975, 0.8825, 0.1975, 0.98, 0.295, 1.0775, 0.3925, 1.1775, 0.49, 1.275, 0.5875, 1.3725, 0.6875, 0, 0.785, 0.0975, 0.8825, 0.1975, 0.98, 0.295, 1.0775, 0.3925, 1.1775, 0.49, 1.275, 0.5875, 1.3725, 0.6875, 0, 0.785, 0.0975, 0.8825, 0.1975, 0.98, 0.295, 1.0775, 0.3925, 1.1775, 0.49, 1.275, 0.5875, 1.3725, 0.6875],
  "SoftwareVersions": "syngo_MR_E11",
  "SpacingBetweenSlices": 2,
  "StationName": "MRC35049",
  "TaskName": "motor",
  "TotalReadoutTime": 0.0576811,
  "TxRefAmp": 231.144,
  "WipMemBlock": "b0e8b634-2674-44f4-a109-55c071077ed7||Sequence: R016 ve11c/master r/e634e98; Dec 19 2017 11:00:25 by eja",
  "dcmmeta_affine": [
    [-1.9980963468551636, 0.05965118110179901, -0.06366259604692459, 102.72966766357422],
    [0.08097849041223526, 1.811116099357605, -0.8445715308189392, -61.827392578125],
    [-0.03246033191680908, 0.8463453054428101, 1.8118072748184204, -72.94894409179688],
    [0.0, 0.0, 0.0, 1.0]
],
  "dcmmeta_reorient_transform": [
    [0.0, -1.0, 0.0, 103.0],
    [1.0, 0.0, 0.0, 0.0],
    [0.0, 0.0, 1.0, 0.0],
    [0.0, 0.0, 0.0, 1.0]
],
  "dcmmeta_shape": [104, 104, 60, 144],
  "dcmmeta_slice_dim": 2,
  "dcmmeta_version": 0.6,
  "global": {
    "const": {
      "AcquisitionMatrix": [104, 0, 0, 104],
      "AngioFlag": "N",
      "BitsAllocated": 16,
      "BitsStored": 16,
      "BodyPartExamined": "BRAIN",
      "Columns": 832,
      "EchoNumbers": 1,
      "EchoTime": 37.0,
      "EchoTrainLength": 104,
      "FlipAngle": 52.0,
      "HighBit": 15,
      "ImageOrientationPatient": [0.9990481482964, -0.0404892466148, -0.0162301661761, 0.02982558962974, 0.90555803079794, -0.4231726445088],
      "ImagePositionPatient": [-857.89382078317, -754.48763661299, 334.10986998093],
      "ImageType": [
        "ORIGINAL",
        "PRIMARY",
        "M",
        "MB",
        "ND",
        "MOSAIC"
],
      "ImagedNucleus": "1H",
      "ImagingFrequency": 123.258612,
      "InPlanePhaseEncodingDirection": "COL",
      "MRAcquisitionType": "2D",
      "MagneticFieldStrength": 3.0,
      "Manufacturer": "SIEMENS",
      "ManufacturerModelName": "Prisma_fit",
      "Modality": "MR",
      "NumberOfAverages": 1.0,
      "NumberOfPhaseEncodingSteps": 104,
      "PercentPhaseFieldOfView": 100.0,
      "PercentSampling": 100.0,
      "PerformedProcedureStepStartTime": "172858.910000",
      "PhotometricInterpretation": "MONOCHROME2",
      "PixelBandwidth": 2290.0,
      "PixelRepresentation": 0,
      "PixelSpacing": [2.0, 2.0],
      "ProtocolName": "func_task-motor_run-1",
      "RepetitionTime": 1490.0,
      "Rows": 832,
      "SAR": 0.03243222720432,
      "SamplesPerPixel": 1,
      "ScanOptions": "FS",
      "ScanningSequence": "EP",
      "SequenceName": "epfid2d1_104",
      "SequenceVariant": [
        "SK",
        "SS"
],
      "SeriesDescription": "func_task-motor_run-1",
      "SeriesNumber": 13,
      "SeriesTime": "174858.002000",
      "SliceLocation": -43.24590527568,
      "SliceThickness": 2.0,
      "SmallestImagePixelValue": 0,
      "SoftwareVersions": "syngo MR E11",
      "SpacingBetweenSlices": 1.9999999375892,
      "SpecificCharacterSet": "ISO_IR 100",
      "StudyID": "1",
      "StudyTime": "172858.858000",
      "TransmitCoilName": "Body",
      "VariableFlipAngleFlag": "N",
      "WindowCenterWidthExplanation": "Algo1",
      "dBdt": 0.0},
    "slices": {}
  },
  "time": {
    "samples": {
      "AcquisitionNumber": [1, 2, 3, 4, 5, 6, 7, 8, 9, 10, 11, 12, 13, 14, 15, 16, 17, 18, 19, 20, 21, 22, 23, 24, 25, 26, 27, 28, 29, 30, 31, 32, 33, 34, 35, 36, 37, 38, 39, 40, 41, 42, 43, 44, 45, 46, 47, 48, 49, 50, 51, 52, 53, 54, 55, 56, 57, 58, 59, 60, 61, 62, 63, 64, 65, 66, 67, 68, 69, 70, 71, 72, 73, 74, 75, 76, 77, 78, 79, 80, 81, 82, 83, 84, 85, 86, 87, 88, 89, 90, 91, 92, 93, 94, 95, 96, 97, 98, 99, 100, 101, 102, 103, 104, 105, 106, 107, 108, 109, 110, 111, 112, 113, 114, 115, 116, 117, 118, 119, 120, 121, 122, 123, 124, 125, 126, 127, 128, 129, 130, 131, 132, 133, 134, 135, 136, 137, 138, 139, 140, 141, 142, 143, 144],
      "AcquisitionTime": ["174731.547500", "174733.037500", "174734.527500", "174736.017500", "174737.507500", "174738.997500", "174740.487500", "174741.977500", "174743.467500", "174744.957500", "174746.447500", "174747.937500", "174749.427500", "174750.917500", "174752.407500", "174753.897500", "174755.387500", "174756.877500", "174758.367500", "174759.857500", "174801.347500", "174802.837500", "174804.327500", "174805.817500", "174807.307500", "174808.797500", "174810.287500", "174811.777500", "174813.267500", "174814.757500", "174816.247500", "174817.737500", "174819.227500", "174820.717500", "174822.207500", "174823.697500", "174825.187500", "174826.677500", "174828.167500", "174829.657500", "174831.147500", "174832.637500", "174834.127500", "174835.617500", "174837.107500", "174838.597500", "174840.087500", "174841.577500", "174843.067500", "174844.557500", "174846.047500", "174847.537500", "174849.027500", "174850.517500", "174852.007500", "174853.497500", "174854.987500", "174856.477500", "174857.967500", "174859.457500", "174900.947500", "174902.437500", "174903.927500", "174905.417500", "174906.907500", "174908.397500", "174909.887500", "174911.377500", "174912.867500", "174914.357500", "174915.847500", "174917.337500", "174918.827500", "174920.317500", "174921.807500", "174923.297500", "174924.787500", "174926.277500", "174927.767500", "174929.257500", "174930.747500", "174932.237500", "174933.727500", "174935.217500", "174936.707500", "174938.197500", "174939.687500", "174941.177500", "174942.667500", "174944.157500", "174945.647500", "174947.137500", "174948.627500", "174950.117500", "174951.607500", "174953.097500", "174954.587500", "174956.077500", "174957.567500", "174959.057500", "175000.547500", "175002.037500", "175003.527500", "175005.017500", "175006.507500", "175007.997500", "175009.487500", "175010.977500", "175012.467500", "175013.957500", "175015.447500", "175016.937500", "175018.427500", "175019.917500", "175021.407500", "175022.897500", "175024.387500", "175025.877500", "175027.367500", "175028.857500", "175030.347500", "175031.837500", "175033.327500", "175034.817500", "175036.307500", "175037.797500", "175039.287500", "175040.777500", "175042.267500", "175043.757500", "175045.247500", "175046.737500", "175048.227500", "175049.717500", "175051.207500", "175052.697500", "175054.187500", "175055.677500", "175057.167500", "175058.657500", "175100.147500", "175101.637500", "175103.127500", "175104.617500"],
      "ContentTime": ["174858.005000", "174858.008000", "174858.011000", "174858.014000", "174858.017000", "174858.020000", "174858.022000", "174858.025000", "174858.028000", "174858.031000", "174858.034000", "174858.036000", "174858.039000", "174858.048000", "174858.050000", "174858.053000", "174858.056000", "174858.060000", "174858.063000", "174858.066000", "174858.069000", "174858.072000", "174858.074000", "174858.077000", "174858.080000", "174858.083000", "174858.086000", "174858.089000", "174858.091000", "174858.094000", "174858.097000", "174858.101000", "174858.104000", "174917.974000", "174917.977000", "174917.980000", "174917.982000", "174917.985000", "174917.988000", "174917.991000", "174917.994000", "174917.997000", "174918.000000", "174918.003000", "174918.006000", "174918.009000", "174918.012000", "174918.015000", "174918.017000", "174918.020000", "174918.023000", "174918.026000", "174918.029000", "174937.973000", "174937.976000", "174937.978000", "174937.981000", "174937.984000", "174937.987000", "174937.990000", "174937.993000", "174937.995000", "174937.998000", "174938.002000", "174938.005000", "174938.008000", "174938.011000", "174938.014000", "174938.017000", "174938.019000", "174938.022000", "174938.025000", "174938.028000", "174938.031000", "174957.973000", "174957.976000", "174957.979000", "174957.981000", "174957.984000", "174957.987000", "174957.990000", "174957.993000", "174957.996000", "174958.000000", "174958.003000", "174958.005000", "174958.008000", "174958.011000", "174958.014000", "174958.017000", "174958.019000", "174958.022000", "174958.042000", "174958.045000", "175037.974000", "175037.977000", "175037.980000", "175037.982000", "175037.985000", "175037.988000", "175037.991000", "175037.994000", "175037.997000", "175038.001000", "175038.003000", "175038.006000", "175038.010000", "175038.014000", "175038.017000", "175038.020000", "175038.022000", "175038.025000", "175038.028000", "175038.031000", "175038.034000", "175038.037000", "175038.039000", "175038.042000", "175038.045000", "175038.048000", "175038.051000", "175038.054000", "175038.056000", "175038.059000", "175106.398000", "175106.401000", "175106.404000", "175106.407000", "175106.410000", "175106.413000", "175106.416000", "175106.419000", "175106.421000", "175106.424000", "175106.427000", "175106.430000", "175106.433000", "175106.436000", "175106.439000", "175106.442000", "175106.445000", "175106.448000", "175106.451000", "175106.453000"],
      "InstanceCreationTime": ["174858.005000", "174858.008000", "174858.011000", "174858.014000", "174858.017000", "174858.020000", "174858.022000", "174858.025000", "174858.028000", "174858.031000", "174858.034000", "174858.036000", "174858.039000", "174858.048000", "174858.050000", "174858.053000", "174858.056000", "174858.060000", "174858.063000", "174858.066000", "174858.069000", "174858.072000", "174858.074000", "174858.077000", "174858.080000", "174858.083000", "174858.086000", "174858.089000", "174858.091000", "174858.094000", "174858.097000", "174858.101000", "174858.104000", "174917.974000", "174917.977000", "174917.980000", "174917.982000", "174917.985000", "174917.988000", "174917.991000", "174917.994000", "174917.997000", "174918.000000", "174918.003000", "174918.006000", "174918.009000", "174918.012000", "174918.015000", "174918.017000", "174918.020000", "174918.023000", "174918.026000", "174918.029000", "174937.973000", "174937.976000", "174937.978000", "174937.981000", "174937.984000", "174937.987000", "174937.990000", "174937.993000", "174937.995000", "174937.998000", "174938.002000", "174938.005000", "174938.008000", "174938.011000", "174938.014000", "174938.017000", "174938.019000", "174938.022000", "174938.025000", "174938.028000", "174938.031000", "174957.973000", "174957.976000", "174957.979000", "174957.981000", "174957.984000", "174957.987000", "174957.990000", "174957.993000", "174957.996000", "174958.000000", "174958.003000", "174958.005000", "174958.008000", "174958.011000", "174958.014000", "174958.017000", "174958.019000", "174958.022000", "174958.042000", "174958.045000", "175037.974000", "175037.977000", "175037.980000", "175037.982000", "175037.985000", "175037.988000", "175037.991000", "175037.994000", "175037.997000", "175038.001000", "175038.003000", "175038.006000", "175038.010000", "175038.014000", "175038.017000", "175038.020000", "175038.022000", "175038.025000", "175038.028000", "175038.031000", "175038.034000", "175038.037000", "175038.039000", "175038.042000", "175038.045000", "175038.048000", "175038.051000", "175038.054000", "175038.056000", "175038.059000", "175106.398000", "175106.401000", "175106.404000", "175106.407000", "175106.410000", "175106.413000", "175106.416000", "175106.419000", "175106.421000", "175106.424000", "175106.427000", "175106.430000", "175106.433000", "175106.436000", "175106.439000", "175106.442000", "175106.445000", "175106.448000", "175106.451000", "175106.453000"],
      "InstanceNumber": [1, 2, 3, 4, 5, 6, 7, 8, 9, 10, 11, 12, 13, 14, 15, 16, 17, 18, 19, 20, 21, 22, 23, 24, 25, 26, 27, 28, 29, 30, 31, 32, 33, 34, 35, 36, 37, 38, 39, 40, 41, 42, 43, 44, 45, 46, 47, 48, 49, 50, 51, 52, 53, 54, 55, 56, 57, 58, 59, 60, 61, 62, 63, 64, 65, 66, 67, 68, 69, 70, 71, 72, 73, 74, 75, 76, 77, 78, 79, 80, 81, 82, 83, 84, 85, 86, 87, 88, 89, 90, 91, 92, 93, 94, 95, 96, 97, 98, 99, 100, 101, 102, 103, 104, 105, 106, 107, 108, 109, 110, 111, 112, 113, 114, 115, 116, 117, 118, 119, 120, 121, 122, 123, 124, 125, 126, 127, 128, 129, 130, 131, 132, 133, 134, 135, 136, 137, 138, 139, 140, 141, 142, 143, 144],
      "LargestImagePixelValue": [57777, 56425, 55984, 54718, 54220, 52930, 53515, 52799, 53456, 53098, 53361, 52608, 53262, 52931, 53075, 52838, 53455, 52952, 53363, 53357, 53001, 52764, 53086, 53273, 52886, 52970, 53277, 53417, 52702, 53498, 53557, 52728, 52810, 53206, 53820, 53099, 53681, 54305, 54190, 53790, 53069, 53399, 53658, 53520, 53380, 53740, 53966, 53142, 52814, 52866, 53176, 52907, 53643, 53607, 54306, 53046, 53088, 52652, 53570, 54497, 53854, 54316, 54198, 55050, 54291, 52856, 53478, 53616, 53223, 53875, 53473, 53192, 53414, 52605, 54046, 53010, 56978, 53832, 54698, 53940, 53626, 52317, 52762, 53061, 52648, 52970, 53072, 53450, 53579, 53916, 53456, 54587, 53463, 55283, 53640, 54608, 53729, 53887, 54123, 53370, 53264, 53781, 54200, 54216, 53825, 54130, 53485, 53564, 54027, 54406, 54453, 54615, 54958, 54962, 53913, 54661, 53950, 54329, 55053, 55700, 54338, 54221, 54361, 53965, 54351, 53801, 54346, 54686, 54028, 53653, 53922, 53633, 54467, 54105, 53629, 54152, 53699, 53141, 53776, 54231, 53571, 54368, 53654, 54343],
      "WindowCenter": [10603.0, 10548.0, 10523.0, 10492.0, 10501.0, 10528.0, 10561.0, 10539.0, 10534.0, 10521.0, 10511.0, 10489.0, 10465.0, 10431.0, 10414.0, 10398.0, 10418.0, 10421.0, 10435.0, 10437.0, 10438.0, 10445.0, 10461.0, 10469.0, 10487.0, 10507.0, 10519.0, 10519.0, 10505.0, 10495.0, 10506.0, 10506.0, 10484.0, 10456.0, 10442.0, 10448.0, 10470.0, 10495.0, 10498.0, 10479.0, 10451.0, 10445.0, 10450.0, 10453.0, 10462.0, 10494.0, 10519.0, 10487.0, 10460.0, 10449.0, 10478.0, 10504.0, 10519.0, 10506.0, 10494.0, 10466.0, 10460.0, 10458.0, 10479.0, 10508.0, 10505.0, 10505.0, 10474.0, 10482.0, 10484.0, 10484.0, 10476.0, 10461.0, 10448.0, 10466.0, 10491.0, 10498.0, 10523.0, 10531.0, 10548.0, 10525.0, 10518.0, 10471.0, 10484.0, 10485.0, 10495.0, 10464.0, 10428.0, 10413.0, 10412.0, 10442.0, 10478.0, 10491.0, 10482.0, 10480.0, 10505.0, 10537.0, 10519.0, 10515.0, 10482.0, 10478.0, 10464.0, 10462.0, 10470.0, 10471.0, 10480.0, 10480.0, 10494.0, 10500.0, 10500.0, 10527.0, 10538.0, 10533.0, 10540.0, 10537.0, 10554.0, 10570.0, 10554.0, 10530.0, 10474.0, 10467.0, 10452.0, 10463.0, 10504.0, 10541.0, 10547.0, 10513.0, 10470.0, 10413.0, 10389.0, 10412.0, 10459.0, 10482.0, 10461.0, 10444.0, 10449.0, 10451.0, 10473.0, 10491.0, 10494.0, 10507.0, 10523.0, 10522.0, 10533.0, 10555.0, 10537.0, 10526.0, 10479.0, 10461.0],
      "WindowWidth": [22978.0, 22814.0, 22729.0, 22638.0, 22662.0, 22716.0, 22792.0, 22743.0, 22725.0, 22700.0, 22675.0, 22629.0, 22574.0, 22493.0, 22446.0, 22414.0, 22460.0, 22471.0, 22499.0, 22505.0, 22507.0, 22524.0, 22557.0, 22570.0, 22613.0, 22662.0, 22688.0, 22693.0, 22664.0, 22638.0, 22656.0, 22654.0, 22605.0, 22537.0, 22504.0, 22523.0, 22572.0, 22630.0, 22637.0, 22592.0, 22529.0, 22514.0, 22525.0, 22532.0, 22555.0, 22627.0, 22682.0, 22618.0, 22554.0, 22523.0, 22590.0, 22651.0, 22685.0, 22655.0, 22628.0, 22571.0, 22557.0, 22548.0, 22592.0, 22656.0, 22650.0, 22653.0, 22575.0, 22588.0, 22602.0, 22611.0, 22591.0, 22552.0, 22528.0, 22566.0, 22623.0, 22640.0, 22697.0, 22721.0, 22754.0, 22704.0, 22671.0, 22569.0, 22602.0, 22608.0, 22630.0, 22567.0, 22482.0, 22446.0, 22445.0, 22513.0, 22596.0, 22627.0, 22605.0, 22595.0, 22655.0, 22728.0, 22687.0, 22669.0, 22597.0, 22589.0, 22560.0, 22559.0, 22577.0, 22578.0, 22602.0, 22601.0, 22631.0, 22644.0, 22645.0, 22708.0, 22738.0, 22726.0, 22740.0, 22735.0, 22778.0, 22813.0, 22772.0, 22713.0, 22583.0, 22567.0, 22535.0, 22555.0, 22655.0, 22737.0, 22749.0, 22675.0, 22575.0, 22444.0, 22384.0, 22439.0, 22544.0, 22601.0, 22554.0, 22513.0, 22526.0, 22530.0, 22577.0, 22620.0, 22629.0, 22658.0, 22701.0, 22695.0, 22728.0, 22777.0, 22737.0, 22707.0, 22600.0, 22556.0]
    },
    "slices": {}
  }
}