{
  "AcquisitionMatrixPE": 104,
  "AcquisitionNumber": 1,
  "AcquisitionTime": "18:17:44.017500",
  "BandwidthPerPixelPhaseEncode": 17.17,
  "BaseResolution": 104,
  "BodyPartExamined": "BRAIN",
  "CoilString": "HC1-7;NC1_2",
  "ConsistencyInfo": "N4_VE11C_LATEST_20160120",
  "ConversionSoftware": "dcm2niix",
  "ConversionSoftwareVersion": "v1.0.20190720  (JP2:OpenJPEG) GCC7.3.0",
  "DerivedVendorReportedEchoSpacing": 0.000560011,
  "DeviceSerialNumber": "167006",
  "DwellTime": 2.1e-06,
  "EchoTime": 0.037,
  "EchoTrainLength": 104,
  "EffectiveEchoSpacing": 0.000560011,
  "FlipAngle": 52,
  "ImageComments": "Unaliased_MB4_PE3_LB",
  "ImageOrientationPatientDICOM": [0.999048, -0.0404892, -0.0162302, 0.0298256, 0.905558, -0.423173],
  "ImageType": [
    "ORIGINAL",
    "PRIMARY",
    "M",
    "MB",
    "ND",
    "MOSAIC"
],
  "ImagingFrequency": 123.259,
  "InPlanePhaseEncodingDirectionDICOM": "COL",
  "InstitutionAddress": "Chemin_Queen-Mary_4565_Montreal_District_CA_H3W_1W5",
  "InstitutionName": "IUGM",
  "InstitutionalDepartmentName": "Department",
  "MRAcquisitionType": "2D",
  "MagneticFieldStrength": 3,
  "Manufacturer": "Siemens",
  "ManufacturersModelName": "Prisma_fit",
  "Modality": "MR",
  "MultibandAccelerationFactor": 4,
  "PartialFourier": 1,
  "PatientPosition": "HFS",
  "PercentPhaseFOV": 100,
  "PhaseEncodingDirection": "j",
  "PhaseEncodingSteps": 104,
  "PhaseResolution": 1,
  "PixelBandwidth": 2290,
  "ProcedureStepDescription": "hcptrt_generic",
  "ProtocolName": "func_task-language_run-2",
  "PulseSequenceDetails": "%CustomerSeq%_cmrr_mbep2d_bold",
  "ReceiveCoilActiveElements": "HC1-7;NC1,2",
  "ReceiveCoilName": "HeadNeck_64",
  "ReconMatrixPE": 104,
  "RepetitionTime": 1.49,
  "SAR": 0.0324721,
  "ScanOptions": "FS",
  "ScanningSequence": "EP",
  "SequenceName": "epfid2d1_104",
  "SequenceVariant": "SK_SS",
  "SeriesDescription": "func_task-language_run-2",
  "SeriesNumber": 27,
  "ShimSetting": [612, -7252, -8872, 333, 32, -392, 57, 23],
  "SliceThickness": 2,
  "SliceTiming": [0, 0.785, 0.1, 0.8825, 0.1975, 0.98, 0.295, 1.08, 0.3925, 1.1775, 0.49, 1.275, 0.59, 1.3725, 0.6875, 0, 0.785, 0.1, 0.8825, 0.1975, 0.98, 0.295, 1.08, 0.3925, 1.1775, 0.49, 1.275, 0.59, 1.3725, 0.6875, 0, 0.785, 0.1, 0.8825, 0.1975, 0.98, 0.295, 1.08, 0.3925, 1.1775, 0.49, 1.275, 0.59, 1.3725, 0.6875, 0, 0.785, 0.1, 0.8825, 0.1975, 0.98, 0.295, 1.08, 0.3925, 1.1775, 0.49, 1.275, 0.59, 1.3725, 0.6875],
  "SoftwareVersions": "syngo_MR_E11",
  "SpacingBetweenSlices": 2,
  "StationName": "MRC35049",
  "TaskName": "language",
  "TotalReadoutTime": 0.0576811,
  "TxRefAmp": 231.144,
  "WipMemBlock": "b448da91-906e-4b37-a816-bbc9594351e6||Sequence: R016 ve11c/master r/e634e98; Dec 19 2017 11:00:25 by eja",
  "dcmmeta_affine": [
    [-1.9980963468551636, 0.05965118110179901, -0.06366259604692459, 102.72966766357422],
    [0.08097849041223526, 1.811116099357605, -0.8445715308189392, -61.827392578125],
    [-0.03246033191680908, 0.8463453054428101, 1.8118072748184204, -72.94894409179688],
    [0.0, 0.0, 0.0, 1.0]
],
  "dcmmeta_reorient_transform": [
    [0.0, -1.0, 0.0, 103.0],
    [1.0, 0.0, 0.0, 0.0],
    [0.0, 0.0, 1.0, 0.0],
    [0.0, 0.0, 0.0, 1.0]
],
  "dcmmeta_shape": [104, 104, 60, 159],
  "dcmmeta_slice_dim": 2,
  "dcmmeta_version": 0.6,
  "global": {
    "const": {
      "AcquisitionMatrix": [104, 0, 0, 104],
      "AngioFlag": "N",
      "BitsAllocated": 16,
      "BitsStored": 16,
      "BodyPartExamined": "BRAIN",
      "Columns": 832,
      "EchoNumbers": 1,
      "EchoTime": 37.0,
      "EchoTrainLength": 104,
      "FlipAngle": 52.0,
      "HighBit": 15,
      "ImageOrientationPatient": [0.9990481482964, -0.0404892466148, -0.0162301661761, 0.02982558962974, 0.90555803079794, -0.4231726445088],
      "ImagePositionPatient": [-857.89382078317, -754.48763661299, 334.10986998093],
      "ImageType": [
        "ORIGINAL",
        "PRIMARY",
        "M",
        "MB",
        "ND",
        "MOSAIC"
],
      "ImagedNucleus": "1H",
      "ImagingFrequency": 123.258621,
      "InPlanePhaseEncodingDirection": "COL",
      "MRAcquisitionType": "2D",
      "MagneticFieldStrength": 3.0,
      "Manufacturer": "SIEMENS",
      "ManufacturerModelName": "Prisma_fit",
      "Modality": "MR",
      "NumberOfAverages": 1.0,
      "NumberOfPhaseEncodingSteps": 104,
      "PercentPhaseFieldOfView": 100.0,
      "PercentSampling": 100.0,
      "PerformedProcedureStepStartTime": "172858.910000",
      "PhotometricInterpretation": "MONOCHROME2",
      "PixelBandwidth": 2290.0,
      "PixelRepresentation": 0,
      "PixelSpacing": [2.0, 2.0],
      "ProtocolName": "func_task-language_run-2",
      "RepetitionTime": 1490.0,
      "Rows": 832,
      "SAR": 0.03247208157337,
      "SamplesPerPixel": 1,
      "ScanOptions": "FS",
      "ScanningSequence": "EP",
      "SequenceName": "epfid2d1_104",
      "SequenceVariant": [
        "SK",
        "SS"
],
      "SeriesDescription": "func_task-language_run-2",
      "SeriesNumber": 27,
      "SeriesTime": "181917.267000",
      "SliceLocation": -43.24590527568,
      "SliceThickness": 2.0,
      "SmallestImagePixelValue": 0,
      "SoftwareVersions": "syngo MR E11",
      "SpacingBetweenSlices": 1.9999999375892,
      "SpecificCharacterSet": "ISO_IR 100",
      "StudyID": "1",
      "StudyTime": "172858.858000",
      "TransmitCoilName": "Body",
      "VariableFlipAngleFlag": "N",
      "WindowCenterWidthExplanation": "Algo1",
      "dBdt": 0.0},
    "slices": {}
  },
  "time": {
    "samples": {
      "AcquisitionNumber": [1, 2, 3, 4, 5, 6, 7, 8, 9, 10, 11, 12, 13, 14, 15, 16, 17, 18, 19, 20, 21, 22, 23, 24, 25, 26, 27, 28, 29, 30, 31, 32, 33, 34, 35, 36, 37, 38, 39, 40, 41, 42, 43, 44, 45, 46, 47, 48, 49, 50, 51, 52, 53, 54, 55, 56, 57, 58, 59, 60, 61, 62, 63, 64, 65, 66, 67, 68, 69, 70, 71, 72, 73, 74, 75, 76, 77, 78, 79, 80, 81, 82, 83, 84, 85, 86, 87, 88, 89, 90, 91, 92, 93, 94, 95, 96, 97, 98, 99, 100, 101, 102, 103, 104, 105, 106, 107, 108, 109, 110, 111, 112, 113, 114, 115, 116, 117, 118, 119, 120, 121, 122, 123, 124, 125, 126, 127, 128, 129, 130, 131, 132, 133, 134, 135, 136, 137, 138, 139, 140, 141, 142, 143, 144, 145, 146, 147, 148, 149, 150, 151, 152, 153, 154, 155, 156, 157, 158, 159],
      "AcquisitionTime": ["181744.017500", "181745.507500", "181746.997500", "181748.487500", "181749.977500", "181751.467500", "181752.957500", "181754.447500", "181755.937500", "181757.427500", "181758.917500", "181800.407500", "181801.897500", "181803.387500", "181804.877500", "181806.367500", "181807.857500", "181809.347500", "181810.837500", "181812.327500", "181813.817500", "181815.307500", "181816.797500", "181818.287500", "181819.777500", "181821.267500", "181822.757500", "181824.247500", "181825.737500", "181827.227500", "181828.717500", "181830.207500", "181831.697500", "181833.187500", "181834.677500", "181836.167500", "181837.657500", "181839.147500", "181840.637500", "181842.127500", "181843.617500", "181845.107500", "181846.597500", "181848.087500", "181849.577500", "181851.067500", "181852.557500", "181854.047500", "181855.537500", "181857.027500", "181858.517500", "181900.007500", "181901.497500", "181902.987500", "181904.477500", "181905.967500", "181907.457500", "181908.947500", "181910.437500", "181911.927500", "181913.417500", "181914.907500", "181916.397500", "181917.887500", "181919.377500", "181920.867500", "181922.357500", "181923.847500", "181925.337500", "181926.827500", "181928.317500", "181929.807500", "181931.297500", "181932.787500", "181934.277500", "181935.767500", "181937.257500", "181938.747500", "181940.237500", "181941.727500", "181943.217500", "181944.707500", "181946.197500", "181947.687500", "181949.177500", "181950.667500", "181952.157500", "181953.647500", "181955.137500", "181956.627500", "181958.117500", "181959.607500", "182001.097500", "182002.587500", "182004.077500", "182005.567500", "182007.057500", "182008.547500", "182010.037500", "182011.527500", "182013.017500", "182014.507500", "182015.997500", "182017.487500", "182018.977500", "182020.467500", "182021.957500", "182023.447500", "182024.937500", "182026.427500", "182027.917500", "182029.407500", "182030.897500", "182032.387500", "182033.877500", "182035.367500", "182036.857500", "182038.347500", "182039.837500", "182041.327500", "182042.817500", "182044.307500", "182045.797500", "182047.287500", "182048.777500", "182050.267500", "182051.757500", "182053.247500", "182054.737500", "182056.227500", "182057.717500", "182059.207500", "182100.697500", "182102.187500", "182103.677500", "182105.167500", "182106.657500", "182108.147500", "182109.637500", "182111.127500", "182112.617500", "182114.107500", "182115.597500", "182117.087500", "182118.577500", "182120.067500", "182121.557500", "182123.047500", "182124.537500", "182126.027500", "182127.517500", "182129.007500", "182130.497500", "182131.987500", "182133.477500", "182134.967500", "182136.457500", "182137.947500", "182139.437500"],
      "ContentTime": ["181917.270000", "181917.273000", "181917.276000", "181917.279000", "181917.282000", "181917.285000", "181917.288000", "181917.291000", "181917.294000", "181917.297000", "181917.299000", "181917.302000", "181917.305000", "181917.308000", "181917.311000", "181917.314000", "181917.317000", "181917.320000", "181917.322000", "181917.325000", "181917.328000", "181917.331000", "181917.334000", "181917.337000", "181917.340000", "181917.342000", "181917.345000", "181917.348000", "181917.359000", "181917.362000", "181917.365000", "181917.368000", "181917.371000", "181917.374000", "181917.378000", "181917.381000", "181917.384000", "181917.387000", "181917.390000", "181937.237000", "181937.240000", "181937.243000", "181937.246000", "181937.248000", "181937.251000", "181937.254000", "181937.269000", "181937.272000", "181937.275000", "181937.278000", "181937.281000", "181937.284000", "181937.287000", "181937.290000", "181937.293000", "181937.296000", "181937.299000", "181937.302000", "181937.305000", "181957.237000", "181957.240000", "181957.243000", "181957.245000", "181957.248000", "181957.251000", "181957.254000", "181957.257000", "181957.260000", "181957.262000", "181957.265000", "181957.268000", "181957.271000", "181957.274000", "181957.277000", "181957.280000", "181957.282000", "181957.285000", "181957.288000", "181957.291000", "181957.294000", "182017.237000", "182017.240000", "182017.243000", "182017.245000", "182017.248000", "182017.251000", "182017.254000", "182017.257000", "182017.260000", "182017.263000", "182017.265000", "182017.268000", "182017.271000", "182017.274000", "182017.277000", "182017.281000", "182017.283000", "182017.286000", "182017.289000", "182017.292000", "182057.238000", "182057.241000", "182057.244000", "182057.247000", "182057.250000", "182057.252000", "182057.255000", "182057.258000", "182057.261000", "182057.264000", "182057.267000", "182057.269000", "182057.272000", "182057.275000", "182057.278000", "182057.281000", "182057.284000", "182057.286000", "182057.289000", "182057.292000", "182057.295000", "182057.298000", "182057.301000", "182057.304000", "182057.306000", "182057.309000", "182057.322000", "182057.325000", "182057.328000", "182137.237000", "182137.240000", "182137.243000", "182137.246000", "182137.249000", "182137.252000", "182137.254000", "182137.257000", "182137.260000", "182137.263000", "182137.266000", "182137.269000", "182137.272000", "182137.275000", "182137.277000", "182137.280000", "182137.283000", "182137.286000", "182137.289000", "182137.292000", "182137.295000", "182137.298000", "182137.300000", "182137.303000", "182137.306000", "182137.309000", "182137.312000", "182141.213000", "182141.216000", "182141.219000"],
      "InstanceCreationTime": ["181917.270000", "181917.273000", "181917.276000", "181917.279000", "181917.282000", "181917.285000", "181917.288000", "181917.291000", "181917.294000", "181917.297000", "181917.299000", "181917.302000", "181917.305000", "181917.308000", "181917.311000", "181917.314000", "181917.317000", "181917.320000", "181917.322000", "181917.325000", "181917.328000", "181917.331000", "181917.334000", "181917.337000", "181917.340000", "181917.342000", "181917.345000", "181917.348000", "181917.359000", "181917.362000", "181917.365000", "181917.368000", "181917.371000", "181917.374000", "181917.378000", "181917.381000", "181917.384000", "181917.387000", "181917.390000", "181937.237000", "181937.240000", "181937.243000", "181937.246000", "181937.248000", "181937.251000", "181937.254000", "181937.269000", "181937.272000", "181937.275000", "181937.278000", "181937.281000", "181937.284000", "181937.287000", "181937.290000", "181937.293000", "181937.296000", "181937.299000", "181937.302000", "181937.305000", "181957.237000", "181957.240000", "181957.243000", "181957.245000", "181957.248000", "181957.251000", "181957.254000", "181957.257000", "181957.260000", "181957.262000", "181957.265000", "181957.268000", "181957.271000", "181957.274000", "181957.277000", "181957.280000", "181957.282000", "181957.285000", "181957.288000", "181957.291000", "181957.294000", "182017.237000", "182017.240000", "182017.243000", "182017.245000", "182017.248000", "182017.251000", "182017.254000", "182017.257000", "182017.260000", "182017.263000", "182017.265000", "182017.268000", "182017.271000", "182017.274000", "182017.277000", "182017.281000", "182017.283000", "182017.286000", "182017.289000", "182017.292000", "182057.238000", "182057.241000", "182057.244000", "182057.247000", "182057.250000", "182057.252000", "182057.255000", "182057.258000", "182057.261000", "182057.264000", "182057.267000", "182057.269000", "182057.272000", "182057.275000", "182057.278000", "182057.281000", "182057.284000", "182057.286000", "182057.289000", "182057.292000", "182057.295000", "182057.298000", "182057.301000", "182057.304000", "182057.306000", "182057.309000", "182057.322000", "182057.325000", "182057.328000", "182137.237000", "182137.240000", "182137.243000", "182137.246000", "182137.249000", "182137.252000", "182137.254000", "182137.257000", "182137.260000", "182137.263000", "182137.266000", "182137.269000", "182137.272000", "182137.275000", "182137.277000", "182137.280000", "182137.283000", "182137.286000", "182137.289000", "182137.292000", "182137.295000", "182137.298000", "182137.300000", "182137.303000", "182137.306000", "182137.309000", "182137.312000", "182141.213000", "182141.216000", "182141.219000"],
      "InstanceNumber": [1, 2, 3, 4, 5, 6, 7, 8, 9, 10, 11, 12, 13, 14, 15, 16, 17, 18, 19, 20, 21, 22, 23, 24, 25, 26, 27, 28, 29, 30, 31, 32, 33, 34, 35, 36, 37, 38, 39, 40, 41, 42, 43, 44, 45, 46, 47, 48, 49, 50, 51, 52, 53, 54, 55, 56, 57, 58, 59, 60, 61, 62, 63, 64, 65, 66, 67, 68, 69, 70, 71, 72, 73, 74, 75, 76, 77, 78, 79, 80, 81, 82, 83, 84, 85, 86, 87, 88, 89, 90, 91, 92, 93, 94, 95, 96, 97, 98, 99, 100, 101, 102, 103, 104, 105, 106, 107, 108, 109, 110, 111, 112, 113, 114, 115, 116, 117, 118, 119, 120, 121, 122, 123, 124, 125, 126, 127, 128, 129, 130, 131, 132, 133, 134, 135, 136, 137, 138, 139, 140, 141, 142, 143, 144, 145, 146, 147, 148, 149, 150, 151, 152, 153, 154, 155, 156, 157, 158, 159],
      "LargestImagePixelValue": [57497, 55616, 54424, 53376, 52730, 52773, 52683, 52512, 52823, 52786, 52784, 52731, 52859, 52719, 52751, 52923, 52814, 53303, 52820, 52578, 52771, 52830, 52403, 52687, 52425, 53346, 52614, 52682, 52727, 52864, 52978, 52388, 53074, 52683, 53556, 53700, 53596, 53333, 52998, 53154, 52862, 53050, 53055, 53170, 53133, 52789, 53103, 52997, 52889, 53044, 53207, 52937, 53094, 52241, 52644, 53058, 53031, 52874, 53037, 53425, 53274, 53398, 53043, 52839, 53593, 52766, 53022, 52727, 52781, 53324, 52975, 53057, 53245, 52656, 52546, 53079, 53107, 52887, 53038, 52544, 53200, 52863, 52887, 53646, 53535, 53007, 53030, 52624, 53021, 53224, 52994, 52762, 53295, 52553, 52519, 52941, 52736, 53328, 53042, 52706, 53107, 52738, 52985, 52971, 52700, 52576, 53236, 53246, 52988, 53343, 52744, 52674, 52725, 52526, 52607, 52597, 53222, 52854, 52607, 53557, 53104, 52989, 52973, 53169, 53278, 53039, 53255, 53504, 53662, 53526, 53021, 53534, 53231, 53082, 53342, 53121, 52800, 52735, 52593, 52982, 53134, 53365, 53370, 52673, 52832, 52686, 53442, 52817, 53204, 52959, 53076, 53593, 53528, 53052, 53572, 52955, 53147, 53040, 52411],
      "WindowCenter": [10448.0, 10414.0, 10421.0, 10435.0, 10404.0, 10394.0, 10384.0, 10377.0, 10367.0, 10350.0, 10324.0, 10296.0, 10281.0, 10279.0, 10272.0, 10278.0, 10294.0, 10328.0, 10324.0, 10322.0, 10341.0, 10376.0, 10379.0, 10380.0, 10362.0, 10374.0, 10403.0, 10408.0, 10398.0, 10356.0, 10337.0, 10328.0, 10332.0, 10350.0, 10366.0, 10372.0, 10389.0, 10410.0, 10421.0, 10405.0, 10383.0, 10362.0, 10350.0, 10357.0, 10360.0, 10338.0, 10318.0, 10329.0, 10337.0, 10354.0, 10383.0, 10395.0, 10374.0, 10340.0, 10333.0, 10341.0, 10377.0, 10389.0, 10363.0, 10353.0, 10359.0, 10375.0, 10362.0, 10336.0, 10331.0, 10324.0, 10347.0, 10359.0, 10368.0, 10399.0, 10404.0, 10372.0, 10387.0, 10406.0, 10419.0, 10407.0, 10366.0, 10337.0, 10313.0, 10294.0, 10287.0, 10271.0, 10268.0, 10297.0, 10324.0, 10347.0, 10376.0, 10355.0, 10344.0, 10351.0, 10352.0, 10382.0, 10426.0, 10414.0, 10379.0, 10363.0, 10327.0, 10329.0, 10354.0, 10374.0, 10370.0, 10351.0, 10348.0, 10357.0, 10359.0, 10344.0, 10349.0, 10342.0, 10360.0, 10400.0, 10403.0, 10393.0, 10359.0, 10332.0, 10319.0, 10301.0, 10335.0, 10366.0, 10370.0, 10377.0, 10361.0, 10366.0, 10374.0, 10376.0, 10391.0, 10411.0, 10397.0, 10368.0, 10367.0, 10386.0, 10412.0, 10417.0, 10413.0, 10383.0, 10342.0, 10297.0, 10252.0, 10239.0, 10247.0, 10261.0, 10262.0, 10254.0, 10255.0, 10244.0, 10259.0, 10309.0, 10365.0, 10365.0, 10348.0, 10346.0, 10350.0, 10361.0, 10373.0, 10365.0, 10372.0, 10363.0, 10353.0, 10370.0, 10397.0],
      "WindowWidth": [22590.0, 22473.0, 22469.0, 22491.0, 22406.0, 22376.0, 22353.0, 22337.0, 22314.0, 22277.0, 22216.0, 22150.0, 22113.0, 22108.0, 22093.0, 22104.0, 22143.0, 22216.0, 22211.0, 22204.0, 22248.0, 22331.0, 22339.0, 22338.0, 22296.0, 22323.0, 22393.0, 22409.0, 22381.0, 22286.0, 22240.0, 22224.0, 22231.0, 22274.0, 22308.0, 22317.0, 22354.0, 22405.0, 22435.0, 22397.0, 22350.0, 22299.0, 22272.0, 22285.0, 22294.0, 22246.0, 22195.0, 22218.0, 22238.0, 22277.0, 22345.0, 22373.0, 22329.0, 22254.0, 22232.0, 22249.0, 22332.0, 22361.0, 22298.0, 22278.0, 22292.0, 22327.0, 22303.0, 22241.0, 22229.0, 22214.0, 22265.0, 22296.0, 22314.0, 22383.0, 22397.0, 22323.0, 22362.0, 22406.0, 22433.0, 22404.0, 22311.0, 22243.0, 22188.0, 22146.0, 22125.0, 22090.0, 22081.0, 22147.0, 22207.0, 22263.0, 22331.0, 22284.0, 22257.0, 22272.0, 22275.0, 22342.0, 22444.0, 22427.0, 22341.0, 22300.0, 22219.0, 22220.0, 22279.0, 22324.0, 22317.0, 22272.0, 22262.0, 22284.0, 22291.0, 22257.0, 22269.0, 22254.0, 22295.0, 22387.0, 22398.0, 22374.0, 22297.0, 22236.0, 22207.0, 22165.0, 22238.0, 22313.0, 22322.0, 22335.0, 22300.0, 22307.0, 22326.0, 22329.0, 22363.0, 22413.0, 22383.0, 22311.0, 22308.0, 22354.0, 22415.0, 22423.0, 22412.0, 22344.0, 22245.0, 22143.0, 22047.0, 22016.0, 22035.0, 22062.0, 22064.0, 22045.0, 22050.0, 22028.0, 22059.0, 22172.0, 22298.0, 22302.0, 22265.0, 22255.0, 22265.0, 22289.0, 22319.0, 22303.0, 22315.0, 22298.0, 22277.0, 22315.0, 22376.0]
    },
    "slices": {}
  }
}