{
  "AcquisitionMatrixPE": 104,
  "AcquisitionNumber": 1,
  "AcquisitionTime": "18:26:38.655000",
  "BandwidthPerPixelPhaseEncode": 17.17,
  "BaseResolution": 104,
  "BodyPartExamined": "BRAIN",
  "CoilString": "HC1-7;NC1_2",
  "ConsistencyInfo": "N4_VE11C_LATEST_20160120",
  "ConversionSoftware": "dcm2niix",
  "ConversionSoftwareVersion": "v1.0.20190720  (JP2:OpenJPEG) GCC7.3.0",
  "DerivedVendorReportedEchoSpacing": 0.000560011,
  "DeviceSerialNumber": "167006",
  "DwellTime": 2.1e-06,
  "EchoTime": 0.037,
  "EchoTrainLength": 104,
  "EffectiveEchoSpacing": 0.000560011,
  "FlipAngle": 52,
  "ImageComments": "Unaliased_MB4_PE3_LB",
  "ImageOrientationPatientDICOM": [0.999048, -0.0404892, -0.0162302, 0.0298256, 0.905558, -0.423173],
  "ImageType": [
    "ORIGINAL",
    "PRIMARY",
    "M",
    "MB",
    "ND",
    "MOSAIC"
],
  "ImagingFrequency": 123.259,
  "InPlanePhaseEncodingDirectionDICOM": "COL",
  "InstitutionAddress": "Chemin_Queen-Mary_4565_Montreal_District_CA_H3W_1W5",
  "InstitutionName": "IUGM",
  "InstitutionalDepartmentName": "Department",
  "MRAcquisitionType": "2D",
  "MagneticFieldStrength": 3,
  "Manufacturer": "Siemens",
  "ManufacturersModelName": "Prisma_fit",
  "Modality": "MR",
  "MultibandAccelerationFactor": 4,
  "PartialFourier": 1,
  "PatientPosition": "HFS",
  "PercentPhaseFOV": 100,
  "PhaseEncodingDirection": "j",
  "PhaseEncodingSteps": 104,
  "PhaseResolution": 1,
  "PixelBandwidth": 2290,
  "ProcedureStepDescription": "hcptrt_generic",
  "ProtocolName": "func_task-motor_run-2",
  "PulseSequenceDetails": "%CustomerSeq%_cmrr_mbep2d_bold",
  "ReceiveCoilActiveElements": "HC1-7;NC1,2",
  "ReceiveCoilName": "HeadNeck_64",
  "ReconMatrixPE": 104,
  "RepetitionTime": 1.49,
  "SAR": 0.0324322,
  "ScanOptions": "FS",
  "ScanningSequence": "EP",
  "SequenceName": "epfid2d1_104",
  "SequenceVariant": "SK_SS",
  "SeriesDescription": "func_task-motor_run-2",
  "SeriesNumber": 31,
  "ShimSetting": [612, -7252, -8872, 333, 32, -392, 57, 23],
  "SliceThickness": 2,
  "SliceTiming": [0, 0.785, 0.0975, 0.8825, 0.1975, 0.98, 0.295, 1.0775, 0.3925, 1.1775, 0.49, 1.275, 0.5875, 1.3725, 0.6875, 0, 0.785, 0.0975, 0.8825, 0.1975, 0.98, 0.295, 1.0775, 0.3925, 1.1775, 0.49, 1.275, 0.5875, 1.3725, 0.6875, 0, 0.785, 0.0975, 0.8825, 0.1975, 0.98, 0.295, 1.0775, 0.3925, 1.1775, 0.49, 1.275, 0.5875, 1.3725, 0.6875, 0, 0.785, 0.0975, 0.8825, 0.1975, 0.98, 0.295, 1.0775, 0.3925, 1.1775, 0.49, 1.275, 0.5875, 1.3725, 0.6875],
  "SoftwareVersions": "syngo_MR_E11",
  "SpacingBetweenSlices": 2,
  "StationName": "MRC35049",
  "TaskName": "motor",
  "TotalReadoutTime": 0.0576811,
  "TxRefAmp": 231.144,
  "WipMemBlock": "7b35f081-9b0b-4caa-bdcc-ea74ac7e79aa||Sequence: R016 ve11c/master r/e634e98; Dec 19 2017 11:00:25 by eja",
  "dcmmeta_affine": [
    [-1.9980963468551636, 0.05965118110179901, -0.06366259604692459, 102.72966766357422],
    [0.08097849041223526, 1.811116099357605, -0.8445715308189392, -61.827392578125],
    [-0.03246033191680908, 0.8463453054428101, 1.8118072748184204, -72.94894409179688],
    [0.0, 0.0, 0.0, 1.0]
],
  "dcmmeta_reorient_transform": [
    [0.0, -1.0, 0.0, 103.0],
    [1.0, 0.0, 0.0, 0.0],
    [0.0, 0.0, 1.0, 0.0],
    [0.0, 0.0, 0.0, 1.0]
],
  "dcmmeta_shape": [104, 104, 60, 144],
  "dcmmeta_slice_dim": 2,
  "dcmmeta_version": 0.6,
  "global": {
    "const": {
      "AcquisitionMatrix": [104, 0, 0, 104],
      "AngioFlag": "N",
      "BitsAllocated": 16,
      "BitsStored": 16,
      "BodyPartExamined": "BRAIN",
      "Columns": 832,
      "EchoNumbers": 1,
      "EchoTime": 37.0,
      "EchoTrainLength": 104,
      "FlipAngle": 52.0,
      "HighBit": 15,
      "ImageOrientationPatient": [0.9990481482964, -0.0404892466148, -0.0162301661761, 0.02982558962974, 0.90555803079794, -0.4231726445088],
      "ImagePositionPatient": [-857.89382078317, -754.48763661299, 334.10986998093],
      "ImageType": [
        "ORIGINAL",
        "PRIMARY",
        "M",
        "MB",
        "ND",
        "MOSAIC"
],
      "ImagedNucleus": "1H",
      "ImagingFrequency": 123.258624,
      "InPlanePhaseEncodingDirection": "COL",
      "MRAcquisitionType": "2D",
      "MagneticFieldStrength": 3.0,
      "Manufacturer": "SIEMENS",
      "ManufacturerModelName": "Prisma_fit",
      "Modality": "MR",
      "NumberOfAverages": 1.0,
      "NumberOfPhaseEncodingSteps": 104,
      "PercentPhaseFieldOfView": 100.0,
      "PercentSampling": 100.0,
      "PerformedProcedureStepStartTime": "172858.910000",
      "PhotometricInterpretation": "MONOCHROME2",
      "PixelBandwidth": 2290.0,
      "PixelRepresentation": 0,
      "PixelSpacing": [2.0, 2.0],
      "ProtocolName": "func_task-motor_run-2",
      "RepetitionTime": 1490.0,
      "Rows": 832,
      "SAR": 0.03243222720432,
      "SamplesPerPixel": 1,
      "ScanOptions": "FS",
      "ScanningSequence": "EP",
      "SequenceName": "epfid2d1_104",
      "SequenceVariant": [
        "SK",
        "SS"
],
      "SeriesDescription": "func_task-motor_run-2",
      "SeriesNumber": 31,
      "SeriesTime": "182754.606000",
      "SliceLocation": -43.24590527568,
      "SliceThickness": 2.0,
      "SmallestImagePixelValue": 0,
      "SoftwareVersions": "syngo MR E11",
      "SpacingBetweenSlices": 1.9999999375892,
      "SpecificCharacterSet": "ISO_IR 100",
      "StudyID": "1",
      "StudyTime": "172858.858000",
      "TransmitCoilName": "Body",
      "VariableFlipAngleFlag": "N",
      "WindowCenterWidthExplanation": "Algo1",
      "dBdt": 0.0},
    "slices": {}
  },
  "time": {
    "samples": {
      "AcquisitionNumber": [1, 2, 3, 4, 5, 6, 7, 8, 9, 10, 11, 12, 13, 14, 15, 16, 17, 18, 19, 20, 21, 22, 23, 24, 25, 26, 27, 28, 29, 30, 31, 32, 33, 34, 35, 36, 37, 38, 39, 40, 41, 42, 43, 44, 45, 46, 47, 48, 49, 50, 51, 52, 53, 54, 55, 56, 57, 58, 59, 60, 61, 62, 63, 64, 65, 66, 67, 68, 69, 70, 71, 72, 73, 74, 75, 76, 77, 78, 79, 80, 81, 82, 83, 84, 85, 86, 87, 88, 89, 90, 91, 92, 93, 94, 95, 96, 97, 98, 99, 100, 101, 102, 103, 104, 105, 106, 107, 108, 109, 110, 111, 112, 113, 114, 115, 116, 117, 118, 119, 120, 121, 122, 123, 124, 125, 126, 127, 128, 129, 130, 131, 132, 133, 134, 135, 136, 137, 138, 139, 140, 141, 142, 143, 144],
      "AcquisitionTime": ["182638.655000", "182640.145000", "182641.635000", "182643.125000", "182644.615000", "182646.105000", "182647.595000", "182649.085000", "182650.575000", "182652.065000", "182653.555000", "182655.045000", "182656.535000", "182658.025000", "182659.515000", "182701.005000", "182702.495000", "182703.985000", "182705.475000", "182706.965000", "182708.455000", "182709.945000", "182711.435000", "182712.925000", "182714.415000", "182715.905000", "182717.395000", "182718.885000", "182720.375000", "182721.865000", "182723.355000", "182724.845000", "182726.335000", "182727.825000", "182729.315000", "182730.805000", "182732.295000", "182733.785000", "182735.275000", "182736.765000", "182738.255000", "182739.745000", "182741.235000", "182742.725000", "182744.215000", "182745.705000", "182747.195000", "182748.685000", "182750.175000", "182751.665000", "182753.155000", "182754.645000", "182756.135000", "182757.625000", "182759.115000", "182800.605000", "182802.095000", "182803.585000", "182805.075000", "182806.565000", "182808.055000", "182809.545000", "182811.035000", "182812.525000", "182814.015000", "182815.505000", "182816.995000", "182818.485000", "182819.975000", "182821.465000", "182822.955000", "182824.445000", "182825.935000", "182827.425000", "182828.915000", "182830.405000", "182831.895000", "182833.385000", "182834.875000", "182836.365000", "182837.855000", "182839.345000", "182840.835000", "182842.325000", "182843.815000", "182845.305000", "182846.795000", "182848.285000", "182849.775000", "182851.265000", "182852.755000", "182854.245000", "182855.735000", "182857.225000", "182858.715000", "182900.205000", "182901.695000", "182903.185000", "182904.675000", "182906.165000", "182907.655000", "182909.145000", "182910.635000", "182912.125000", "182913.615000", "182915.105000", "182916.595000", "182918.085000", "182919.575000", "182921.065000", "182922.555000", "182924.045000", "182925.535000", "182927.025000", "182928.515000", "182930.005000", "182931.495000", "182932.985000", "182934.475000", "182935.965000", "182937.455000", "182938.945000", "182940.435000", "182941.925000", "182943.415000", "182944.905000", "182946.395000", "182947.885000", "182949.375000", "182950.865000", "182952.355000", "182953.845000", "182955.335000", "182956.825000", "182958.315000", "182959.805000", "183001.295000", "183002.785000", "183004.275000", "183005.765000", "183007.255000", "183008.745000", "183010.235000", "183011.725000"],
      "ContentTime": ["182754.610000", "182754.634000", "182754.636000", "182754.639000", "182754.642000", "182754.645000", "182754.648000", "182754.651000", "182754.654000", "182754.657000", "182754.660000", "182754.663000", "182754.669000", "182754.672000", "182754.679000", "182754.682000", "182754.685000", "182754.688000", "182754.691000", "182754.693000", "182754.696000", "182754.699000", "182814.579000", "182814.582000", "182814.585000", "182814.588000", "182814.591000", "182814.594000", "182814.597000", "182814.600000", "182814.602000", "182814.605000", "182814.608000", "182814.611000", "182814.614000", "182814.621000", "182814.623000", "182814.626000", "182814.629000", "182814.632000", "182814.635000", "182814.638000", "182834.579000", "182834.582000", "182834.585000", "182834.588000", "182834.590000", "182834.593000", "182834.602000", "182834.605000", "182834.608000", "182834.611000", "182834.620000", "182834.623000", "182834.626000", "182834.629000", "182834.632000", "182834.635000", "182834.638000", "182834.640000", "182834.643000", "182834.646000", "182854.579000", "182854.582000", "182854.585000", "182854.588000", "182854.590000", "182854.593000", "182854.596000", "182854.599000", "182854.602000", "182854.605000", "182854.608000", "182854.610000", "182854.613000", "182854.616000", "182854.619000", "182854.622000", "182854.625000", "182854.627000", "182854.636000", "182854.639000", "182914.579000", "182914.582000", "182914.585000", "182914.588000", "182914.591000", "182914.593000", "182914.596000", "182914.599000", "182914.602000", "182914.605000", "182914.608000", "182914.610000", "182914.620000", "182914.623000", "182914.626000", "182914.629000", "182914.631000", "182914.634000", "182914.637000", "182914.640000", "182954.579000", "182954.582000", "182954.585000", "182954.588000", "182954.591000", "182954.593000", "182954.596000", "182954.599000", "182954.602000", "182954.605000", "182954.608000", "182954.610000", "182954.613000", "182954.616000", "182954.619000", "182954.622000", "182954.625000", "182954.628000", "182954.630000", "182954.633000", "182954.636000", "182954.639000", "182954.642000", "182954.644000", "182954.647000", "182954.650000", "182954.653000", "182954.656000", "182954.659000", "183013.869000", "183013.872000", "183013.875000", "183013.878000", "183013.881000", "183013.884000", "183013.886000", "183013.889000", "183013.892000", "183013.895000", "183013.898000", "183013.901000", "183013.903000"],
      "InstanceCreationTime": ["182754.610000", "182754.634000", "182754.636000", "182754.639000", "182754.642000", "182754.645000", "182754.648000", "182754.651000", "182754.654000", "182754.657000", "182754.660000", "182754.663000", "182754.669000", "182754.672000", "182754.679000", "182754.682000", "182754.685000", "182754.688000", "182754.691000", "182754.693000", "182754.696000", "182754.699000", "182814.579000", "182814.582000", "182814.585000", "182814.588000", "182814.591000", "182814.594000", "182814.597000", "182814.600000", "182814.602000", "182814.605000", "182814.608000", "182814.611000", "182814.614000", "182814.621000", "182814.623000", "182814.626000", "182814.629000", "182814.632000", "182814.635000", "182814.638000", "182834.579000", "182834.582000", "182834.585000", "182834.588000", "182834.590000", "182834.593000", "182834.602000", "182834.605000", "182834.608000", "182834.611000", "182834.620000", "182834.623000", "182834.626000", "182834.629000", "182834.632000", "182834.635000", "182834.638000", "182834.640000", "182834.643000", "182834.646000", "182854.579000", "182854.582000", "182854.585000", "182854.588000", "182854.590000", "182854.593000", "182854.596000", "182854.599000", "182854.602000", "182854.605000", "182854.608000", "182854.610000", "182854.613000", "182854.616000", "182854.619000", "182854.622000", "182854.625000", "182854.627000", "182854.636000", "182854.639000", "182914.579000", "182914.582000", "182914.585000", "182914.588000", "182914.591000", "182914.593000", "182914.596000", "182914.599000", "182914.602000", "182914.605000", "182914.608000", "182914.610000", "182914.620000", "182914.623000", "182914.626000", "182914.629000", "182914.631000", "182914.634000", "182914.637000", "182914.640000", "182954.579000", "182954.582000", "182954.585000", "182954.588000", "182954.591000", "182954.593000", "182954.596000", "182954.599000", "182954.602000", "182954.605000", "182954.608000", "182954.610000", "182954.613000", "182954.616000", "182954.619000", "182954.622000", "182954.625000", "182954.628000", "182954.630000", "182954.633000", "182954.636000", "182954.639000", "182954.642000", "182954.644000", "182954.647000", "182954.650000", "182954.653000", "182954.656000", "182954.659000", "183013.869000", "183013.872000", "183013.875000", "183013.878000", "183013.881000", "183013.884000", "183013.886000", "183013.889000", "183013.892000", "183013.895000", "183013.898000", "183013.901000", "183013.903000"],
      "InstanceNumber": [1, 2, 3, 4, 5, 6, 7, 8, 9, 10, 11, 12, 13, 14, 15, 16, 17, 18, 19, 20, 21, 22, 23, 24, 25, 26, 27, 28, 29, 30, 31, 32, 33, 34, 35, 36, 37, 38, 39, 40, 41, 42, 43, 44, 45, 46, 47, 48, 49, 50, 51, 52, 53, 54, 55, 56, 57, 58, 59, 60, 61, 62, 63, 64, 65, 66, 67, 68, 69, 70, 71, 72, 73, 74, 75, 76, 77, 78, 79, 80, 81, 82, 83, 84, 85, 86, 87, 88, 89, 90, 91, 92, 93, 94, 95, 96, 97, 98, 99, 100, 101, 102, 103, 104, 105, 106, 107, 108, 109, 110, 111, 112, 113, 114, 115, 116, 117, 118, 119, 120, 121, 122, 123, 124, 125, 126, 127, 128, 129, 130, 131, 132, 133, 134, 135, 136, 137, 138, 139, 140, 141, 142, 143, 144],
      "LargestImagePixelValue": [58584, 56135, 54059, 51531, 52165, 54313, 55332, 55492, 56331, 55921, 54776, 55212, 55935, 55777, 55775, 56271, 55430, 56340, 56282, 56479, 56235, 56132, 55697, 55916, 56132, 55555, 55896, 56026, 56650, 55727, 55719, 55764, 56279, 56558, 56532, 56886, 56293, 56943, 56967, 56373, 56366, 55834, 56382, 56551, 56524, 56867, 56070, 56726, 56455, 56277, 56966, 56272, 56178, 56557, 55889, 55060, 53775, 56902, 56460, 56588, 56806, 56261, 57669, 56293, 56463, 55870, 55200, 54466, 55599, 56578, 56703, 56786, 56563, 57056, 56173, 55349, 54100, 53613, 52663, 52110, 52307, 52227, 52429, 53011, 54646, 55530, 55531, 57115, 55614, 56068, 55720, 55236, 55185, 56084, 56165, 56997, 56591, 56294, 57099, 56726, 56569, 56260, 56466, 54931, 53369, 53449, 54393, 55399, 55240, 55696, 55138, 56169, 56612, 55981, 56541, 56573, 56920, 56540, 56946, 56552, 56819, 56464, 56486, 56919, 56271, 55536, 55798, 55416, 55338, 55718, 55504, 55747, 56008, 56442, 57062, 56526, 56451, 55693, 56375, 55077, 54405, 54934, 55006, 55016],
      "WindowCenter": [10504.0, 10462.0, 10413.0, 10368.0, 10352.0, 10351.0, 10389.0, 10444.0, 10471.0, 10461.0, 10439.0, 10411.0, 10380.0, 10353.0, 10333.0, 10334.0, 10339.0, 10367.0, 10379.0, 10381.0, 10372.0, 10358.0, 10357.0, 10363.0, 10364.0, 10371.0, 10395.0, 10404.0, 10405.0, 10395.0, 10393.0, 10397.0, 10409.0, 10424.0, 10408.0, 10403.0, 10403.0, 10413.0, 10422.0, 10407.0, 10392.0, 10377.0, 10379.0, 10409.0, 10422.0, 10423.0, 10386.0, 10388.0, 10397.0, 10406.0, 10406.0, 10384.0, 10372.0, 10384.0, 10376.0, 10376.0, 10362.0, 10389.0, 10411.0, 10451.0, 10464.0, 10435.0, 10405.0, 10379.0, 10363.0, 10359.0, 10347.0, 10349.0, 10383.0, 10424.0, 10443.0, 10438.0, 10420.0, 10402.0, 10386.0, 10362.0, 10349.0, 10342.0, 10362.0, 10383.0, 10396.0, 10390.0, 10381.0, 10392.0, 10433.0, 10465.0, 10457.0, 10443.0, 10418.0, 10407.0, 10400.0, 10387.0, 10376.0, 10369.0, 10342.0, 10326.0, 10305.0, 10312.0, 10361.0, 10394.0, 10391.0, 10365.0, 10345.0, 10338.0, 10331.0, 10346.0, 10372.0, 10391.0, 10418.0, 10418.0, 10396.0, 10379.0, 10369.0, 10372.0, 10384.0, 10386.0, 10393.0, 10377.0, 10368.0, 10358.0, 10358.0, 10368.0, 10378.0, 10377.0, 10343.0, 10327.0, 10340.0, 10366.0, 10393.0, 10410.0, 10405.0, 10411.0, 10418.0, 10455.0, 10483.0, 10473.0, 10442.0, 10416.0, 10391.0, 10366.0, 10349.0, 10359.0, 10387.0, 10424.0],
      "WindowWidth": [22721.0, 22592.0, 22459.0, 22351.0, 22304.0, 22281.0, 22363.0, 22493.0, 22553.0, 22532.0, 22483.0, 22417.0, 22342.0, 22279.0, 22233.0, 22230.0, 22245.0, 22307.0, 22334.0, 22339.0, 22320.0, 22288.0, 22287.0, 22299.0, 22302.0, 22314.0, 22367.0, 22387.0, 22392.0, 22376.0, 22365.0, 22373.0, 22403.0, 22435.0, 22399.0, 22388.0, 22387.0, 22414.0, 22433.0, 22399.0, 22366.0, 22335.0, 22334.0, 22401.0, 22435.0, 22435.0, 22350.0, 22354.0, 22376.0, 22397.0, 22394.0, 22348.0, 22317.0, 22343.0, 22331.0, 22332.0, 22304.0, 22354.0, 22413.0, 22503.0, 22532.0, 22466.0, 22394.0, 22336.0, 22301.0, 22292.0, 22268.0, 22277.0, 22347.0, 22438.0, 22479.0, 22470.0, 22429.0, 22387.0, 22354.0, 22302.0, 22277.0, 22264.0, 22309.0, 22362.0, 22393.0, 22378.0, 22356.0, 22378.0, 22465.0, 22539.0, 22519.0, 22487.0, 22432.0, 22402.0, 22386.0, 22349.0, 22332.0, 22309.0, 22251.0, 22211.0, 22164.0, 22174.0, 22287.0, 22364.0, 22359.0, 22298.0, 22251.0, 22240.0, 22233.0, 22266.0, 22317.0, 22364.0, 22427.0, 22425.0, 22376.0, 22332.0, 22308.0, 22319.0, 22340.0, 22343.0, 22360.0, 22323.0, 22304.0, 22280.0, 22281.0, 22305.0, 22329.0, 22325.0, 22251.0, 22214.0, 22244.0, 22307.0, 22370.0, 22409.0, 22400.0, 22414.0, 22427.0, 22506.0, 22572.0, 22551.0, 22483.0, 22422.0, 22364.0, 22310.0, 22274.0, 22292.0, 22359.0, 22444.0]
    },
    "slices": {}
  }
}