{
  "AcquisitionMatrixPE": 104,
  "AcquisitionNumber": 1,
  "AcquisitionTime": "17:41:22.957500",
  "BandwidthPerPixelPhaseEncode": 17.17,
  "BaseResolution": 104,
  "BodyPartExamined": "BRAIN",
  "CoilString": "HC1-7;NC1_2",
  "ConsistencyInfo": "N4_VE11C_LATEST_20160120",
  "ConversionSoftware": "dcm2niix",
  "ConversionSoftwareVersion": "v1.0.20190720  (JP2:OpenJPEG) GCC7.3.0",
  "DerivedVendorReportedEchoSpacing": 0.000560011,
  "DeviceSerialNumber": "167006",
  "DwellTime": 2.1e-06,
  "EchoTime": 0.037,
  "EchoTrainLength": 104,
  "EffectiveEchoSpacing": 0.000560011,
  "FlipAngle": 52,
  "ImageComments": "Unaliased_MB4_PE3_LB",
  "ImageOrientationPatientDICOM": [0.999053, -0.0403312, -0.016304, 0.0296512, 0.905565, -0.42317],
  "ImageType": [
    "ORIGINAL",
    "PRIMARY",
    "M",
    "MB",
    "ND",
    "MOSAIC"
],
  "ImagingFrequency": 123.259,
  "InPlanePhaseEncodingDirectionDICOM": "COL",
  "InstitutionAddress": "Chemin_Queen-Mary_4565_Montreal_District_CA_H3W_1W5",
  "InstitutionName": "IUGM",
  "InstitutionalDepartmentName": "Department",
  "MRAcquisitionType": "2D",
  "MagneticFieldStrength": 3,
  "Manufacturer": "Siemens",
  "ManufacturersModelName": "Prisma_fit",
  "Modality": "MR",
  "MultibandAccelerationFactor": 4,
  "PartialFourier": 1,
  "PatientPosition": "HFS",
  "PercentPhaseFOV": 100,
  "PhaseEncodingDirection": "j",
  "PhaseEncodingSteps": 104,
  "PhaseResolution": 1,
  "PixelBandwidth": 2290,
  "ProcedureStepDescription": "hcptrt_generic",
  "ProtocolName": "func_task-wm_run-1",
  "PulseSequenceDetails": "%CustomerSeq%_cmrr_mbep2d_bold",
  "ReceiveCoilActiveElements": "HC1-7;NC1,2",
  "ReceiveCoilName": "HeadNeck_64",
  "ReconMatrixPE": 104,
  "RepetitionTime": 1.49,
  "SAR": 0.0325546,
  "ScanOptions": "FS",
  "ScanningSequence": "EP",
  "SequenceName": "epfid2d1_104",
  "SequenceVariant": "SK_SS",
  "SeriesDescription": "func_task-wm_run-1",
  "SeriesNumber": 11,
  "ShimSetting": [612, -7252, -8872, 338, 23, -381, 54, 25],
  "SliceThickness": 2,
  "SliceTiming": [0, 0.7825, 0.0975, 0.88, 0.195, 0.98, 0.2925, 1.0775, 0.39, 1.175, 0.49, 1.2725, 0.5875, 1.37, 0.685, 0, 0.7825, 0.0975, 0.88, 0.195, 0.98, 0.2925, 1.0775, 0.39, 1.175, 0.49, 1.2725, 0.5875, 1.37, 0.685, 0, 0.7825, 0.0975, 0.88, 0.195, 0.98, 0.2925, 1.0775, 0.39, 1.175, 0.49, 1.2725, 0.5875, 1.37, 0.685, 0, 0.7825, 0.0975, 0.88, 0.195, 0.98, 0.2925, 1.0775, 0.39, 1.175, 0.49, 1.2725, 0.5875, 1.37, 0.685],
  "SoftwareVersions": "syngo_MR_E11",
  "SpacingBetweenSlices": 2,
  "StationName": "MRC35049",
  "TaskName": "wm",
  "TotalReadoutTime": 0.0576811,
  "TxRefAmp": 231.144,
  "WipMemBlock": "71232b57-f39f-487b-b86b-15d729ac3e69||Sequence: R016 ve11c/master r/e634e98; Dec 19 2017 11:00:25 by eja",
  "dcmmeta_affine": [
    [-1.9981067180633545, 0.0593024417757988, -0.06366252899169922, 102.74799346923828],
    [0.08066236227750778, 1.811130166053772, -0.8445715308189392, -61.81167221069336],
    [-0.03260798752307892, 0.8463396430015564, 1.8118072748184204, -72.94097137451172],
    [0.0, 0.0, 0.0, 1.0]
],
  "dcmmeta_reorient_transform": [
    [0.0, -1.0, 0.0, 103.0],
    [1.0, 0.0, 0.0, 0.0],
    [0.0, 0.0, 1.0, 0.0],
    [0.0, 0.0, 0.0, 1.0]
],
  "dcmmeta_shape": [104, 104, 60, 202],
  "dcmmeta_slice_dim": 2,
  "dcmmeta_version": 0.6,
  "global": {
    "const": {
      "AcquisitionMatrix": [104, 0, 0, 104],
      "AngioFlag": "N",
      "BitsAllocated": 16,
      "BitsStored": 16,
      "BodyPartExamined": "BRAIN",
      "Columns": 832,
      "EchoNumbers": 1,
      "EchoTime": 37.0,
      "EchoTrainLength": 104,
      "FlipAngle": 52.0,
      "HighBit": 15,
      "ImageOrientationPatient": [0.99905333972456, -0.0403311811801, -0.0163039936769, 0.02965122114002, 0.90556508208458, -0.423169808935],
      "ImagePositionPatient": [-857.75306546796, -754.62501372511, 334.16893526411],
      "ImageType": [
        "ORIGINAL",
        "PRIMARY",
        "M",
        "MB",
        "ND",
        "MOSAIC"
],
      "ImagedNucleus": "1H",
      "ImagingFrequency": 123.258605,
      "InPlanePhaseEncodingDirection": "COL",
      "MRAcquisitionType": "2D",
      "MagneticFieldStrength": 3.0,
      "Manufacturer": "SIEMENS",
      "ManufacturerModelName": "Prisma_fit",
      "Modality": "MR",
      "NumberOfAverages": 1.0,
      "NumberOfPhaseEncodingSteps": 104,
      "PercentPhaseFieldOfView": 100.0,
      "PercentSampling": 100.0,
      "PerformedProcedureStepStartTime": "172858.910000",
      "PhotometricInterpretation": "MONOCHROME2",
      "PixelBandwidth": 2290.0,
      "PixelRepresentation": 0,
      "PixelSpacing": [2.0, 2.0],
      "ProtocolName": "func_task-wm_run-1",
      "RepetitionTime": 1490.0,
      "Rows": 832,
      "SAR": 0.03255463744957,
      "SamplesPerPixel": 1,
      "ScanOptions": "FS",
      "ScanningSequence": "EP",
      "SequenceName": "epfid2d1_104",
      "SequenceVariant": [
        "SK",
        "SS"
],
      "SeriesDescription": "func_task-wm_run-1",
      "SeriesNumber": 11,
      "SeriesTime": "174257.265000",
      "SliceLocation": -43.245905349309,
      "SliceThickness": 2.0,
      "SmallestImagePixelValue": 0,
      "SoftwareVersions": "syngo MR E11",
      "SpacingBetweenSlices": 1.9999999375892,
      "SpecificCharacterSet": "ISO_IR 100",
      "StudyID": "1",
      "StudyTime": "172858.858000",
      "TransmitCoilName": "Body",
      "VariableFlipAngleFlag": "N",
      "WindowCenterWidthExplanation": "Algo1",
      "dBdt": 0.0},
    "slices": {}
  },
  "time": {
    "samples": {
      "AcquisitionNumber": [1, 2, 3, 4, 5, 6, 7, 8, 9, 10, 11, 12, 13, 14, 15, 16, 17, 18, 19, 20, 21, 22, 23, 24, 25, 26, 27, 28, 29, 30, 31, 32, 33, 34, 35, 36, 37, 38, 39, 40, 41, 42, 43, 44, 45, 46, 47, 48, 49, 50, 51, 52, 53, 54, 55, 56, 57, 58, 59, 60, 61, 62, 63, 64, 65, 66, 67, 68, 69, 70, 71, 72, 73, 74, 75, 76, 77, 78, 79, 80, 81, 82, 83, 84, 85, 86, 87, 88, 89, 90, 91, 92, 93, 94, 95, 96, 97, 98, 99, 100, 101, 102, 103, 104, 105, 106, 107, 108, 109, 110, 111, 112, 113, 114, 115, 116, 117, 118, 119, 120, 121, 122, 123, 124, 125, 126, 127, 128, 129, 130, 131, 132, 133, 134, 135, 136, 137, 138, 139, 140, 141, 142, 143, 144, 145, 146, 147, 148, 149, 150, 151, 152, 153, 154, 155, 156, 157, 158, 159, 160, 161, 162, 163, 164, 165, 166, 167, 168, 169, 170, 171, 172, 173, 174, 175, 176, 177, 178, 179, 180, 181, 182, 183, 184, 185, 186, 187, 188, 189, 190, 191, 192, 193, 194, 195, 196, 197, 198, 199, 200, 201, 202],
      "AcquisitionTime": ["174122.957500", "174124.447500", "174125.937500", "174127.427500", "174128.917500", "174130.407500", "174131.897500", "174133.387500", "174134.877500", "174136.367500", "174137.857500", "174139.347500", "174140.837500", "174142.327500", "174143.817500", "174145.307500", "174146.797500", "174148.287500", "174149.777500", "174151.267500", "174152.757500", "174154.247500", "174155.737500", "174157.227500", "174158.717500", "174200.207500", "174201.697500", "174203.187500", "174204.677500", "174206.167500", "174207.657500", "174209.147500", "174210.637500", "174212.127500", "174213.617500", "174215.107500", "174216.597500", "174218.087500", "174219.577500", "174221.067500", "174222.557500", "174224.047500", "174225.537500", "174227.027500", "174228.517500", "174230.007500", "174231.497500", "174232.987500", "174234.477500", "174235.967500", "174237.457500", "174238.947500", "174240.437500", "174241.927500", "174243.417500", "174244.907500", "174246.397500", "174247.887500", "174249.377500", "174250.867500", "174252.357500", "174253.847500", "174255.337500", "174256.827500", "174258.317500", "174259.807500", "174301.297500", "174302.787500", "174304.277500", "174305.767500", "174307.257500", "174308.747500", "174310.237500", "174311.727500", "174313.217500", "174314.707500", "174316.197500", "174317.687500", "174319.177500", "174320.667500", "174322.157500", "174323.647500", "174325.137500", "174326.627500", "174328.117500", "174329.607500", "174331.097500", "174332.587500", "174334.077500", "174335.567500", "174337.057500", "174338.547500", "174340.037500", "174341.527500", "174343.017500", "174344.507500", "174345.997500", "174347.487500", "174348.977500", "174350.467500", "174351.957500", "174353.447500", "174354.937500", "174356.427500", "174357.917500", "174359.407500", "174400.897500", "174402.387500", "174403.877500", "174405.367500", "174406.857500", "174408.347500", "174409.837500", "174411.327500", "174412.817500", "174414.307500", "174415.797500", "174417.287500", "174418.777500", "174420.267500", "174421.757500", "174423.247500", "174424.737500", "174426.227500", "174427.717500", "174429.207500", "174430.697500", "174432.187500", "174433.677500", "174435.167500", "174436.657500", "174438.147500", "174439.637500", "174441.127500", "174442.617500", "174444.107500", "174445.597500", "174447.087500", "174448.577500", "174450.067500", "174451.557500", "174453.047500", "174454.537500", "174456.027500", "174457.517500", "174459.007500", "174500.497500", "174501.987500", "174503.477500", "174504.967500", "174506.457500", "174507.947500", "174509.437500", "174510.927500", "174512.417500", "174513.907500", "174515.397500", "174516.887500", "174518.377500", "174519.867500", "174521.357500", "174522.847500", "174524.337500", "174525.827500", "174527.317500", "174528.807500", "174530.297500", "174531.787500", "174533.277500", "174534.767500", "174536.257500", "174537.747500", "174539.237500", "174540.727500", "174542.217500", "174543.707500", "174545.197500", "174546.687500", "174548.177500", "174549.667500", "174551.157500", "174552.647500", "174554.137500", "174555.627500", "174557.117500", "174558.607500", "174600.097500", "174601.587500", "174603.077500", "174604.567500", "174606.057500", "174607.547500", "174609.037500", "174610.527500", "174612.017500", "174613.507500", "174614.997500", "174616.487500", "174617.977500", "174619.467500", "174620.957500", "174622.447500"],
      "ContentTime": ["174257.268000", "174257.272000", "174257.275000", "174257.278000", "174257.281000", "174257.284000", "174257.287000", "174257.290000", "174257.292000", "174257.295000", "174257.298000", "174257.301000", "174257.304000", "174257.308000", "174257.311000", "174257.313000", "174257.323000", "174257.325000", "174257.328000", "174257.331000", "174257.334000", "174257.337000", "174257.340000", "174257.343000", "174257.346000", "174257.349000", "174257.351000", "174257.354000", "174257.357000", "174257.360000", "174257.363000", "174257.366000", "174257.369000", "174257.371000", "174257.374000", "174257.377000", "174257.380000", "174257.383000", "174257.386000", "174317.238000", "174317.241000", "174317.244000", "174317.247000", "174317.250000", "174317.252000", "174317.255000", "174317.258000", "174317.261000", "174317.264000", "174317.266000", "174317.276000", "174317.278000", "174317.281000", "174317.284000", "174317.287000", "174317.290000", "174317.293000", "174317.295000", "174317.298000", "174337.238000", "174337.241000", "174337.244000", "174337.246000", "174337.249000", "174337.252000", "174337.255000", "174337.258000", "174337.261000", "174337.263000", "174337.266000", "174337.269000", "174337.272000", "174337.274000", "174337.277000", "174337.280000", "174337.283000", "174337.286000", "174337.289000", "174337.291000", "174337.294000", "174357.238000", "174357.241000", "174357.244000", "174357.247000", "174357.249000", "174357.252000", "174357.255000", "174357.258000", "174357.261000", "174357.264000", "174357.266000", "174357.269000", "174357.272000", "174357.275000", "174357.278000", "174357.281000", "174357.284000", "174357.286000", "174357.289000", "174357.292000", "174417.237000", "174417.240000", "174417.243000", "174417.246000", "174417.248000", "174417.251000", "174417.265000", "174417.268000", "174417.270000", "174417.279000", "174417.282000", "174417.285000", "174417.288000", "174417.291000", "174417.293000", "174417.296000", "174457.237000", "174457.240000", "174457.243000", "174457.246000", "174457.248000", "174457.257000", "174457.260000", "174457.263000", "174457.266000", "174457.269000", "174457.272000", "174457.274000", "174457.277000", "174457.280000", "174457.283000", "174457.286000", "174457.289000", "174457.292000", "174457.295000", "174457.297000", "174457.300000", "174457.303000", "174457.306000", "174457.309000", "174457.311000", "174457.314000", "174457.317000", "174537.238000", "174537.241000", "174537.244000", "174537.247000", "174537.250000", "174537.252000", "174537.255000", "174537.258000", "174537.261000", "174537.264000", "174537.266000", "174537.269000", "174537.272000", "174537.275000", "174537.278000", "174537.281000", "174537.284000", "174537.287000", "174537.289000", "174537.292000", "174537.295000", "174537.298000", "174537.301000", "174537.304000", "174537.307000", "174537.310000", "174537.312000", "174617.238000", "174617.241000", "174617.244000", "174617.247000", "174617.250000", "174617.253000", "174617.256000", "174617.259000", "174617.261000", "174617.264000", "174617.267000", "174617.270000", "174617.273000", "174617.276000", "174617.279000", "174617.282000", "174617.284000", "174617.287000", "174617.290000", "174617.293000", "174617.296000", "174617.299000", "174617.302000", "174617.305000", "174617.308000", "174617.310000", "174617.313000", "174624.591000", "174624.594000", "174624.597000", "174624.600000", "174624.603000"],
      "InstanceCreationTime": ["174257.268000", "174257.272000", "174257.275000", "174257.278000", "174257.281000", "174257.284000", "174257.287000", "174257.290000", "174257.292000", "174257.295000", "174257.298000", "174257.301000", "174257.304000", "174257.308000", "174257.311000", "174257.313000", "174257.323000", "174257.325000", "174257.328000", "174257.331000", "174257.334000", "174257.337000", "174257.340000", "174257.343000", "174257.346000", "174257.349000", "174257.351000", "174257.354000", "174257.357000", "174257.360000", "174257.363000", "174257.366000", "174257.369000", "174257.371000", "174257.374000", "174257.377000", "174257.380000", "174257.383000", "174257.386000", "174317.238000", "174317.241000", "174317.244000", "174317.247000", "174317.250000", "174317.252000", "174317.255000", "174317.258000", "174317.261000", "174317.264000", "174317.266000", "174317.276000", "174317.278000", "174317.281000", "174317.284000", "174317.287000", "174317.290000", "174317.293000", "174317.295000", "174317.298000", "174337.238000", "174337.241000", "174337.244000", "174337.246000", "174337.249000", "174337.252000", "174337.255000", "174337.258000", "174337.261000", "174337.263000", "174337.266000", "174337.269000", "174337.272000", "174337.274000", "174337.277000", "174337.280000", "174337.283000", "174337.286000", "174337.289000", "174337.291000", "174337.294000", "174357.238000", "174357.241000", "174357.244000", "174357.247000", "174357.249000", "174357.252000", "174357.255000", "174357.258000", "174357.261000", "174357.264000", "174357.266000", "174357.269000", "174357.272000", "174357.275000", "174357.278000", "174357.281000", "174357.284000", "174357.286000", "174357.289000", "174357.292000", "174417.237000", "174417.240000", "174417.243000", "174417.246000", "174417.248000", "174417.251000", "174417.265000", "174417.268000", "174417.270000", "174417.279000", "174417.282000", "174417.285000", "174417.288000", "174417.291000", "174417.293000", "174417.296000", "174457.237000", "174457.240000", "174457.243000", "174457.246000", "174457.248000", "174457.257000", "174457.260000", "174457.263000", "174457.266000", "174457.269000", "174457.272000", "174457.274000", "174457.277000", "174457.280000", "174457.283000", "174457.286000", "174457.289000", "174457.292000", "174457.295000", "174457.297000", "174457.300000", "174457.303000", "174457.306000", "174457.309000", "174457.311000", "174457.314000", "174457.317000", "174537.238000", "174537.241000", "174537.244000", "174537.247000", "174537.250000", "174537.252000", "174537.255000", "174537.258000", "174537.261000", "174537.264000", "174537.266000", "174537.269000", "174537.272000", "174537.275000", "174537.278000", "174537.281000", "174537.284000", "174537.287000", "174537.289000", "174537.292000", "174537.295000", "174537.298000", "174537.301000", "174537.304000", "174537.307000", "174537.310000", "174537.312000", "174617.238000", "174617.241000", "174617.244000", "174617.247000", "174617.250000", "174617.253000", "174617.256000", "174617.259000", "174617.261000", "174617.264000", "174617.267000", "174617.270000", "174617.273000", "174617.276000", "174617.279000", "174617.282000", "174617.284000", "174617.287000", "174617.290000", "174617.293000", "174617.296000", "174617.299000", "174617.302000", "174617.305000", "174617.308000", "174617.310000", "174617.313000", "174624.591000", "174624.594000", "174624.597000", "174624.600000", "174624.603000"],
      "InstanceNumber": [1, 2, 3, 4, 5, 6, 7, 8, 9, 10, 11, 12, 13, 14, 15, 16, 17, 18, 19, 20, 21, 22, 23, 24, 25, 26, 27, 28, 29, 30, 31, 32, 33, 34, 35, 36, 37, 38, 39, 40, 41, 42, 43, 44, 45, 46, 47, 48, 49, 50, 51, 52, 53, 54, 55, 56, 57, 58, 59, 60, 61, 62, 63, 64, 65, 66, 67, 68, 69, 70, 71, 72, 73, 74, 75, 76, 77, 78, 79, 80, 81, 82, 83, 84, 85, 86, 87, 88, 89, 90, 91, 92, 93, 94, 95, 96, 97, 98, 99, 100, 101, 102, 103, 104, 105, 106, 107, 108, 109, 110, 111, 112, 113, 114, 115, 116, 117, 118, 119, 120, 121, 122, 123, 124, 125, 126, 127, 128, 129, 130, 131, 132, 133, 134, 135, 136, 137, 138, 139, 140, 141, 142, 143, 144, 145, 146, 147, 148, 149, 150, 151, 152, 153, 154, 155, 156, 157, 158, 159, 160, 161, 162, 163, 164, 165, 166, 167, 168, 169, 170, 171, 172, 173, 174, 175, 176, 177, 178, 179, 180, 181, 182, 183, 184, 185, 186, 187, 188, 189, 190, 191, 192, 193, 194, 195, 196, 197, 198, 199, 200, 201, 202],
      "LargestImagePixelValue": [59400, 57803, 56049, 55772, 55333, 55563, 55152, 55698, 54524, 55200, 55023, 54952, 54826, 54313, 54488, 54025, 54036, 53868, 54455, 53772, 54532, 53979, 54726, 54348, 54765, 54062, 54847, 54128, 54749, 54379, 54749, 54252, 54510, 54309, 54775, 54100, 54698, 53738, 54455, 55811, 54646, 54811, 54269, 54569, 54200, 54465, 54138, 54362, 54282, 54822, 54823, 54559, 54888, 55677, 54615, 54221, 54030, 53879, 53515, 54039, 53846, 54545, 54590, 54885, 54634, 54917, 54121, 55103, 54971, 53959, 54540, 54272, 54149, 53942, 54431, 54251, 54745, 54324, 54681, 54473, 55000, 54617, 54754, 53978, 54701, 54901, 54174, 54555, 54375, 54624, 54165, 54607, 54575, 54925, 54487, 54607, 54041, 54392, 54373, 54417, 53854, 54080, 54461, 53652, 54891, 53967, 54427, 53837, 54228, 53815, 54323, 53777, 54097, 53898, 54420, 54272, 54721, 54220, 54579, 54371, 54194, 54445, 54280, 54237, 53763, 53699, 53805, 53311, 53369, 53157, 53530, 53504, 53703, 53317, 53474, 53589, 54241, 53952, 53628, 53835, 54105, 53648, 54068, 53668, 54119, 54334, 53991, 53896, 53836, 53963, 54188, 54386, 55051, 54695, 54157, 54642, 53997, 53346, 54233, 53993, 54233, 54071, 53531, 53413, 54083, 54408, 54808, 55095, 54484, 53762, 54083, 53595, 53568, 53930, 53393, 54041, 53699, 54018, 53130, 53807, 54115, 53987, 54088, 53363, 53442, 54119, 54161, 53484, 53795, 54156, 54109, 53513, 53846, 54355, 53923, 53766, 53806, 53783, 54152, 54286, 53778, 53641],
      "WindowCenter": [10666.0, 10617.0, 10576.0, 10529.0, 10523.0, 10529.0, 10526.0, 10532.0, 10520.0, 10531.0, 10536.0, 10554.0, 10563.0, 10560.0, 10561.0, 10548.0, 10539.0, 10538.0, 10537.0, 10539.0, 10538.0, 10552.0, 10545.0, 10532.0, 10539.0, 10531.0, 10544.0, 10543.0, 10544.0, 10553.0, 10561.0, 10568.0, 10555.0, 10554.0, 10555.0, 10553.0, 10554.0, 10540.0, 10534.0, 10555.0, 10545.0, 10532.0, 10495.0, 10482.0, 10466.0, 10474.0, 10471.0, 10469.0, 10482.0, 10514.0, 10541.0, 10533.0, 10532.0, 10554.0, 10549.0, 10531.0, 10515.0, 10498.0, 10482.0, 10484.0, 10487.0, 10509.0, 10532.0, 10526.0, 10520.0, 10517.0, 10507.0, 10526.0, 10539.0, 10535.0, 10531.0, 10532.0, 10527.0, 10528.0, 10518.0, 10502.0, 10506.0, 10506.0, 10502.0, 10503.0, 10519.0, 10530.0, 10531.0, 10532.0, 10533.0, 10536.0, 10516.0, 10505.0, 10484.0, 10479.0, 10479.0, 10522.0, 10544.0, 10541.0, 10528.0, 10520.0, 10495.0, 10491.0, 10500.0, 10516.0, 10528.0, 10527.0, 10537.0, 10558.0, 10590.0, 10577.0, 10553.0, 10546.0, 10537.0, 10527.0, 10511.0, 10493.0, 10484.0, 10465.0, 10476.0, 10487.0, 10495.0, 10483.0, 10484.0, 10481.0, 10491.0, 10506.0, 10512.0, 10524.0, 10544.0, 10545.0, 10539.0, 10524.0, 10515.0, 10513.0, 10518.0, 10520.0, 10519.0, 10524.0, 10512.0, 10507.0, 10518.0, 10507.0, 10508.0, 10534.0, 10544.0, 10543.0, 10539.0, 10521.0, 10512.0, 10517.0, 10497.0, 10480.0, 10480.0, 10491.0, 10478.0, 10473.0, 10478.0, 10482.0, 10475.0, 10484.0, 10484.0, 10475.0, 10472.0, 10463.0, 10466.0, 10474.0, 10462.0, 10444.0, 10436.0, 10443.0, 10465.0, 10485.0, 10494.0, 10518.0, 10546.0, 10540.0, 10538.0, 10531.0, 10515.0, 10520.0, 10520.0, 10507.0, 10469.0, 10452.0, 10467.0, 10476.0, 10477.0, 10446.0, 10425.0, 10428.0, 10454.0, 10465.0, 10464.0, 10478.0, 10505.0, 10519.0, 10499.0, 10479.0, 10469.0, 10460.0, 10482.0, 10516.0, 10537.0, 10543.0, 10533.0, 10507.0],
      "WindowWidth": [23144.0, 22987.0, 22871.0, 22740.0, 22715.0, 22723.0, 22716.0, 22724.0, 22701.0, 22724.0, 22734.0, 22779.0, 22800.0, 22792.0, 22795.0, 22768.0, 22744.0, 22745.0, 22740.0, 22748.0, 22744.0, 22776.0, 22760.0, 22732.0, 22740.0, 22726.0, 22758.0, 22749.0, 22753.0, 22775.0, 22792.0, 22812.0, 22784.0, 22778.0, 22784.0, 22777.0, 22783.0, 22748.0, 22728.0, 22772.0, 22754.0, 22717.0, 22638.0, 22607.0, 22571.0, 22591.0, 22592.0, 22586.0, 22615.0, 22683.0, 22747.0, 22732.0, 22724.0, 22774.0, 22767.0, 22718.0, 22685.0, 22646.0, 22609.0, 22615.0, 22619.0, 22671.0, 22721.0, 22708.0, 22696.0, 22689.0, 22659.0, 22700.0, 22738.0, 22734.0, 22717.0, 22721.0, 22711.0, 22719.0, 22692.0, 22650.0, 22658.0, 22660.0, 22647.0, 22650.0, 22691.0, 22720.0, 22714.0, 22717.0, 22715.0, 22721.0, 22677.0, 22653.0, 22609.0, 22598.0, 22595.0, 22689.0, 22741.0, 22742.0, 22712.0, 22699.0, 22641.0, 22626.0, 22653.0, 22689.0, 22719.0, 22715.0, 22730.0, 22781.0, 22853.0, 22825.0, 22770.0, 22755.0, 22734.0, 22708.0, 22673.0, 22630.0, 22620.0, 22565.0, 22586.0, 22614.0, 22629.0, 22609.0, 22606.0, 22604.0, 22628.0, 22661.0, 22670.0, 22700.0, 22749.0, 22750.0, 22737.0, 22705.0, 22682.0, 22679.0, 22690.0, 22697.0, 22695.0, 22728.0, 22680.0, 22670.0, 22693.0, 22663.0, 22663.0, 22724.0, 22748.0, 22745.0, 22742.0, 22695.0, 22671.0, 22682.0, 22637.0, 22595.0, 22597.0, 22614.0, 22583.0, 22566.0, 22578.0, 22592.0, 22575.0, 22595.0, 22601.0, 22580.0, 22573.0, 22547.0, 22557.0, 22577.0, 22551.0, 22508.0, 22486.0, 22504.0, 22560.0, 22608.0, 22623.0, 22681.0, 22748.0, 22734.0, 22729.0, 22717.0, 22679.0, 22689.0, 22688.0, 22662.0, 22575.0, 22528.0, 22570.0, 22585.0, 22590.0, 22516.0, 22462.0, 22470.0, 22537.0, 22561.0, 22555.0, 22584.0, 22650.0, 22686.0, 22641.0, 22597.0, 22575.0, 22551.0, 22601.0, 22693.0, 22737.0, 22747.0, 22729.0, 22668.0]
    },
    "slices": {}
  }
}