{
  "AcquisitionMatrixPE": 104,
  "AcquisitionNumber": 1,
  "AcquisitionTime": "17:55:20.897500",
  "BandwidthPerPixelPhaseEncode": 17.17,
  "BaseResolution": 104,
  "BodyPartExamined": "BRAIN",
  "CoilString": "HC1-7;NC1_2",
  "ConsistencyInfo": "N4_VE11C_LATEST_20160120",
  "ConversionSoftware": "dcm2niix",
  "ConversionSoftwareVersion": "v1.0.20190720  (JP2:OpenJPEG) GCC7.3.0",
  "DerivedVendorReportedEchoSpacing": 0.000560011,
  "DeviceSerialNumber": "167006",
  "DwellTime": 2.1e-06,
  "EchoTime": 0.037,
  "EchoTrainLength": 104,
  "EffectiveEchoSpacing": 0.000560011,
  "FlipAngle": 52,
  "ImageComments": "Unaliased_MB4_PE3_LB",
  "ImageOrientationPatientDICOM": [0.999048, -0.0404892, -0.0162302, 0.0298256, 0.905558, -0.423173],
  "ImageType": [
    "ORIGINAL",
    "PRIMARY",
    "M",
    "MB",
    "ND",
    "MOSAIC"
],
  "ImagingFrequency": 123.259,
  "InPlanePhaseEncodingDirectionDICOM": "COL",
  "InstitutionAddress": "Chemin_Queen-Mary_4565_Montreal_District_CA_H3W_1W5",
  "InstitutionName": "IUGM",
  "InstitutionalDepartmentName": "Department",
  "MRAcquisitionType": "2D",
  "MagneticFieldStrength": 3,
  "Manufacturer": "Siemens",
  "ManufacturersModelName": "Prisma_fit",
  "Modality": "MR",
  "MultibandAccelerationFactor": 4,
  "PartialFourier": 1,
  "PatientPosition": "HFS",
  "PercentPhaseFOV": 100,
  "PhaseEncodingDirection": "j",
  "PhaseEncodingSteps": 104,
  "PhaseResolution": 1,
  "PixelBandwidth": 2290,
  "ProcedureStepDescription": "hcptrt_generic",
  "ProtocolName": "func_task-language_run-1",
  "PulseSequenceDetails": "%CustomerSeq%_cmrr_mbep2d_bold",
  "ReceiveCoilActiveElements": "HC1-7;NC1,2",
  "ReceiveCoilName": "HeadNeck_64",
  "ReconMatrixPE": 104,
  "RepetitionTime": 1.49,
  "SAR": 0.0324721,
  "ScanOptions": "FS",
  "ScanningSequence": "EP",
  "SequenceName": "epfid2d1_104",
  "SequenceVariant": "SK_SS",
  "SeriesDescription": "func_task-language_run-1",
  "SeriesNumber": 17,
  "ShimSetting": [612, -7252, -8872, 333, 32, -392, 57, 23],
  "SliceThickness": 2,
  "SliceTiming": [0, 0.785, 0.0975, 0.8825, 0.1975, 0.98, 0.295, 1.0775, 0.3925, 1.1775, 0.49, 1.275, 0.5875, 1.3725, 0.6875, 0, 0.785, 0.0975, 0.8825, 0.1975, 0.98, 0.295, 1.0775, 0.3925, 1.1775, 0.49, 1.275, 0.5875, 1.3725, 0.6875, 0, 0.785, 0.0975, 0.8825, 0.1975, 0.98, 0.295, 1.0775, 0.3925, 1.1775, 0.49, 1.275, 0.5875, 1.3725, 0.6875, 0, 0.785, 0.0975, 0.8825, 0.1975, 0.98, 0.295, 1.0775, 0.3925, 1.1775, 0.49, 1.275, 0.5875, 1.3725, 0.6875],
  "SoftwareVersions": "syngo_MR_E11",
  "SpacingBetweenSlices": 2,
  "StationName": "MRC35049",
  "TaskName": "language",
  "TotalReadoutTime": 0.0576811,
  "TxRefAmp": 231.144,
  "WipMemBlock": "327b3da3-f133-4909-9de4-10a719a3c6d7||Sequence: R016 ve11c/master r/e634e98; Dec 19 2017 11:00:25 by eja",
  "dcmmeta_affine": [
    [-1.9980963468551636, 0.05965118110179901, -0.06366259604692459, 102.72966766357422],
    [0.08097849041223526, 1.811116099357605, -0.8445715308189392, -61.827392578125],
    [-0.03246033191680908, 0.8463453054428101, 1.8118072748184204, -72.94894409179688],
    [0.0, 0.0, 0.0, 1.0]
],
  "dcmmeta_reorient_transform": [
    [0.0, -1.0, 0.0, 103.0],
    [1.0, 0.0, 0.0, 0.0],
    [0.0, 0.0, 1.0, 0.0],
    [0.0, 0.0, 0.0, 1.0]
],
  "dcmmeta_shape": [104, 104, 60, 159],
  "dcmmeta_slice_dim": 2,
  "dcmmeta_version": 0.6,
  "global": {
    "const": {
      "AcquisitionMatrix": [104, 0, 0, 104],
      "AngioFlag": "N",
      "BitsAllocated": 16,
      "BitsStored": 16,
      "BodyPartExamined": "BRAIN",
      "Columns": 832,
      "EchoNumbers": 1,
      "EchoTime": 37.0,
      "EchoTrainLength": 104,
      "FlipAngle": 52.0,
      "HighBit": 15,
      "ImageOrientationPatient": [0.9990481482964, -0.0404892466148, -0.0162301661761, 0.02982558962974, 0.90555803079794, -0.4231726445088],
      "ImagePositionPatient": [-857.89382078317, -754.48763661299, 334.10986998093],
      "ImageType": [
        "ORIGINAL",
        "PRIMARY",
        "M",
        "MB",
        "ND",
        "MOSAIC"
],
      "ImagedNucleus": "1H",
      "ImagingFrequency": 123.258617,
      "InPlanePhaseEncodingDirection": "COL",
      "MRAcquisitionType": "2D",
      "MagneticFieldStrength": 3.0,
      "Manufacturer": "SIEMENS",
      "ManufacturerModelName": "Prisma_fit",
      "Modality": "MR",
      "NumberOfAverages": 1.0,
      "NumberOfPhaseEncodingSteps": 104,
      "PercentPhaseFieldOfView": 100.0,
      "PercentSampling": 100.0,
      "PerformedProcedureStepStartTime": "172858.910000",
      "PhotometricInterpretation": "MONOCHROME2",
      "PixelBandwidth": 2290.0,
      "PixelRepresentation": 0,
      "PixelSpacing": [2.0, 2.0],
      "ProtocolName": "func_task-language_run-1",
      "RepetitionTime": 1490.0,
      "Rows": 832,
      "SAR": 0.03247208157337,
      "SamplesPerPixel": 1,
      "ScanOptions": "FS",
      "ScanningSequence": "EP",
      "SequenceName": "epfid2d1_104",
      "SequenceVariant": [
        "SK",
        "SS"
],
      "SeriesDescription": "func_task-language_run-1",
      "SeriesNumber": 17,
      "SeriesTime": "175637.270000",
      "SliceLocation": -43.24590527568,
      "SliceThickness": 2.0,
      "SmallestImagePixelValue": 0,
      "SoftwareVersions": "syngo MR E11",
      "SpacingBetweenSlices": 1.9999999375892,
      "SpecificCharacterSet": "ISO_IR 100",
      "StudyID": "1",
      "StudyTime": "172858.858000",
      "TransmitCoilName": "Body",
      "VariableFlipAngleFlag": "N",
      "WindowCenterWidthExplanation": "Algo1",
      "dBdt": 0.0},
    "slices": {}
  },
  "time": {
    "samples": {
      "AcquisitionNumber": [1, 2, 3, 4, 5, 6, 7, 8, 9, 10, 11, 12, 13, 14, 15, 16, 17, 18, 19, 20, 21, 22, 23, 24, 25, 26, 27, 28, 29, 30, 31, 32, 33, 34, 35, 36, 37, 38, 39, 40, 41, 42, 43, 44, 45, 46, 47, 48, 49, 50, 51, 52, 53, 54, 55, 56, 57, 58, 59, 60, 61, 62, 63, 64, 65, 66, 67, 68, 69, 70, 71, 72, 73, 74, 75, 76, 77, 78, 79, 80, 81, 82, 83, 84, 85, 86, 87, 88, 89, 90, 91, 92, 93, 94, 95, 96, 97, 98, 99, 100, 101, 102, 103, 104, 105, 106, 107, 108, 109, 110, 111, 112, 113, 114, 115, 116, 117, 118, 119, 120, 121, 122, 123, 124, 125, 126, 127, 128, 129, 130, 131, 132, 133, 134, 135, 136, 137, 138, 139, 140, 141, 142, 143, 144, 145, 146, 147, 148, 149, 150, 151, 152, 153, 154, 155, 156, 157, 158, 159],
      "AcquisitionTime": ["175520.897500", "175522.387500", "175523.877500", "175525.367500", "175526.857500", "175528.347500", "175529.837500", "175531.327500", "175532.817500", "175534.307500", "175535.797500", "175537.287500", "175538.777500", "175540.267500", "175541.757500", "175543.247500", "175544.737500", "175546.227500", "175547.717500", "175549.207500", "175550.697500", "175552.187500", "175553.677500", "175555.167500", "175556.657500", "175558.147500", "175559.637500", "175601.127500", "175602.617500", "175604.107500", "175605.597500", "175607.087500", "175608.577500", "175610.067500", "175611.557500", "175613.047500", "175614.537500", "175616.027500", "175617.517500", "175619.007500", "175620.497500", "175621.987500", "175623.477500", "175624.967500", "175626.457500", "175627.947500", "175629.437500", "175630.927500", "175632.417500", "175633.907500", "175635.397500", "175636.887500", "175638.377500", "175639.867500", "175641.357500", "175642.847500", "175644.337500", "175645.827500", "175647.317500", "175648.807500", "175650.297500", "175651.787500", "175653.277500", "175654.767500", "175656.257500", "175657.747500", "175659.237500", "175700.727500", "175702.217500", "175703.707500", "175705.197500", "175706.687500", "175708.177500", "175709.667500", "175711.157500", "175712.647500", "175714.137500", "175715.627500", "175717.117500", "175718.607500", "175720.097500", "175721.587500", "175723.077500", "175724.567500", "175726.057500", "175727.547500", "175729.037500", "175730.527500", "175732.017500", "175733.507500", "175734.997500", "175736.487500", "175737.977500", "175739.467500", "175740.957500", "175742.447500", "175743.937500", "175745.427500", "175746.917500", "175748.407500", "175749.897500", "175751.387500", "175752.877500", "175754.367500", "175755.857500", "175757.347500", "175758.837500", "175800.327500", "175801.817500", "175803.307500", "175804.797500", "175806.287500", "175807.777500", "175809.267500", "175810.757500", "175812.247500", "175813.737500", "175815.227500", "175816.717500", "175818.207500", "175819.697500", "175821.187500", "175822.677500", "175824.167500", "175825.657500", "175827.147500", "175828.637500", "175830.127500", "175831.617500", "175833.107500", "175834.597500", "175836.087500", "175837.577500", "175839.067500", "175840.557500", "175842.047500", "175843.537500", "175845.027500", "175846.517500", "175848.007500", "175849.497500", "175850.987500", "175852.477500", "175853.967500", "175855.457500", "175856.947500", "175858.437500", "175859.927500", "175901.417500", "175902.907500", "175904.397500", "175905.887500", "175907.377500", "175908.867500", "175910.357500", "175911.847500", "175913.337500", "175914.827500", "175916.317500"],
      "ContentTime": ["175637.273000", "175637.276000", "175637.279000", "175637.282000", "175637.298000", "175637.300000", "175637.303000", "175637.306000", "175637.309000", "175637.312000", "175637.321000", "175637.324000", "175637.327000", "175637.330000", "175637.333000", "175637.335000", "175637.338000", "175637.341000", "175637.344000", "175637.347000", "175637.350000", "175637.352000", "175637.355000", "175637.358000", "175657.237000", "175657.240000", "175657.243000", "175657.246000", "175657.248000", "175657.251000", "175657.254000", "175657.257000", "175657.260000", "175657.263000", "175657.265000", "175657.268000", "175657.271000", "175657.274000", "175657.277000", "175657.280000", "175657.282000", "175657.285000", "175657.288000", "175657.291000", "175717.238000", "175717.241000", "175717.244000", "175717.251000", "175717.254000", "175717.257000", "175717.260000", "175717.263000", "175717.266000", "175717.269000", "175717.272000", "175717.275000", "175717.277000", "175717.280000", "175717.283000", "175717.286000", "175717.289000", "175717.296000", "175717.299000", "175717.302000", "175737.238000", "175737.241000", "175737.244000", "175737.246000", "175737.249000", "175737.252000", "175737.255000", "175737.258000", "175737.260000", "175737.263000", "175737.266000", "175737.270000", "175737.273000", "175737.276000", "175737.279000", "175737.282000", "175737.285000", "175737.288000", "175737.290000", "175737.293000", "175737.296000", "175817.237000", "175817.240000", "175817.243000", "175817.246000", "175817.255000", "175817.258000", "175817.261000", "175817.264000", "175817.267000", "175817.270000", "175817.273000", "175817.276000", "175817.279000", "175817.299000", "175817.302000", "175817.308000", "175817.311000", "175817.314000", "175817.317000", "175817.320000", "175817.323000", "175817.325000", "175817.328000", "175817.331000", "175817.334000", "175817.337000", "175817.339000", "175817.342000", "175817.345000", "175817.348000", "175817.351000", "175817.353000", "175817.356000", "175857.237000", "175857.240000", "175857.243000", "175857.246000", "175857.249000", "175857.252000", "175857.254000", "175857.257000", "175857.260000", "175857.263000", "175857.266000", "175857.269000", "175857.272000", "175857.275000", "175857.278000", "175857.281000", "175857.284000", "175857.287000", "175857.289000", "175857.292000", "175857.295000", "175857.298000", "175857.301000", "175857.304000", "175857.307000", "175857.310000", "175857.312000", "175918.081000", "175918.084000", "175918.087000", "175918.090000", "175918.092000", "175918.095000", "175918.098000", "175918.101000", "175918.104000", "175918.107000", "175918.110000", "175918.113000", "175918.115000", "175918.118000"],
      "InstanceCreationTime": ["175637.273000", "175637.276000", "175637.279000", "175637.282000", "175637.298000", "175637.300000", "175637.303000", "175637.306000", "175637.309000", "175637.312000", "175637.321000", "175637.324000", "175637.327000", "175637.330000", "175637.333000", "175637.335000", "175637.338000", "175637.341000", "175637.344000", "175637.347000", "175637.350000", "175637.352000", "175637.355000", "175637.358000", "175657.237000", "175657.240000", "175657.243000", "175657.246000", "175657.248000", "175657.251000", "175657.254000", "175657.257000", "175657.260000", "175657.263000", "175657.265000", "175657.268000", "175657.271000", "175657.274000", "175657.277000", "175657.280000", "175657.282000", "175657.285000", "175657.288000", "175657.291000", "175717.238000", "175717.241000", "175717.244000", "175717.251000", "175717.254000", "175717.257000", "175717.260000", "175717.263000", "175717.266000", "175717.269000", "175717.272000", "175717.275000", "175717.277000", "175717.280000", "175717.283000", "175717.286000", "175717.289000", "175717.296000", "175717.299000", "175717.302000", "175737.238000", "175737.241000", "175737.244000", "175737.246000", "175737.249000", "175737.252000", "175737.255000", "175737.258000", "175737.260000", "175737.263000", "175737.266000", "175737.270000", "175737.273000", "175737.276000", "175737.279000", "175737.282000", "175737.285000", "175737.288000", "175737.290000", "175737.293000", "175737.296000", "175817.237000", "175817.240000", "175817.243000", "175817.246000", "175817.255000", "175817.258000", "175817.261000", "175817.264000", "175817.267000", "175817.270000", "175817.273000", "175817.276000", "175817.279000", "175817.299000", "175817.302000", "175817.308000", "175817.311000", "175817.314000", "175817.317000", "175817.320000", "175817.323000", "175817.325000", "175817.328000", "175817.331000", "175817.334000", "175817.337000", "175817.339000", "175817.342000", "175817.345000", "175817.348000", "175817.351000", "175817.353000", "175817.356000", "175857.237000", "175857.240000", "175857.243000", "175857.246000", "175857.249000", "175857.252000", "175857.254000", "175857.257000", "175857.260000", "175857.263000", "175857.266000", "175857.269000", "175857.272000", "175857.275000", "175857.278000", "175857.281000", "175857.284000", "175857.287000", "175857.289000", "175857.292000", "175857.295000", "175857.298000", "175857.301000", "175857.304000", "175857.307000", "175857.310000", "175857.312000", "175918.081000", "175918.084000", "175918.087000", "175918.090000", "175918.092000", "175918.095000", "175918.098000", "175918.101000", "175918.104000", "175918.107000", "175918.110000", "175918.113000", "175918.115000", "175918.118000"],
      "InstanceNumber": [1, 2, 3, 4, 5, 6, 7, 8, 9, 10, 11, 12, 13, 14, 15, 16, 17, 18, 19, 20, 21, 22, 23, 24, 25, 26, 27, 28, 29, 30, 31, 32, 33, 34, 35, 36, 37, 38, 39, 40, 41, 42, 43, 44, 45, 46, 47, 48, 49, 50, 51, 52, 53, 54, 55, 56, 57, 58, 59, 60, 61, 62, 63, 64, 65, 66, 67, 68, 69, 70, 71, 72, 73, 74, 75, 76, 77, 78, 79, 80, 81, 82, 83, 84, 85, 86, 87, 88, 89, 90, 91, 92, 93, 94, 95, 96, 97, 98, 99, 100, 101, 102, 103, 104, 105, 106, 107, 108, 109, 110, 111, 112, 113, 114, 115, 116, 117, 118, 119, 120, 121, 122, 123, 124, 125, 126, 127, 128, 129, 130, 131, 132, 133, 134, 135, 136, 137, 138, 139, 140, 141, 142, 143, 144, 145, 146, 147, 148, 149, 150, 151, 152, 153, 154, 155, 156, 157, 158, 159],
      "LargestImagePixelValue": [57331, 55555, 55129, 53792, 54449, 53694, 53590, 52346, 52831, 53126, 53410, 53868, 54282, 55035, 55167, 55469, 55529, 55631, 55911, 55518, 55302, 55246, 55700, 55924, 55572, 55636, 55137, 54496, 54174, 53913, 54635, 55439, 55437, 54898, 55505, 55478, 55377, 55792, 55433, 55776, 55256, 55549, 55026, 55547, 55728, 55234, 54670, 53618, 53309, 52902, 53319, 53401, 52800, 52716, 53114, 53243, 53262, 53243, 53916, 53952, 53466, 53214, 53011, 52503, 52644, 52051, 52423, 53035, 53326, 53377, 53339, 52420, 52848, 53160, 52992, 52611, 52867, 52759, 52100, 52322, 52865, 52549, 52662, 52766, 52564, 52617, 52265, 52210, 51910, 51993, 52144, 52236, 52480, 53019, 52351, 52362, 51864, 51654, 52264, 51946, 52143, 52375, 52209, 53139, 53189, 52720, 52913, 52830, 52616, 52604, 53266, 52503, 53069, 52934, 52248, 52374, 53275, 53011, 53419, 52477, 53073, 52957, 52973, 53324, 52946, 53116, 52782, 52677, 53457, 52982, 52655, 53418, 53147, 53239, 53820, 53147, 53521, 53546, 52978, 53085, 53519, 53054, 53247, 53247, 53242, 53504, 53531, 53539, 52660, 52896, 52614, 52473, 52322, 51906, 52396, 52873, 52920, 53065, 52868],
      "WindowCenter": [10498.0, 10434.0, 10402.0, 10383.0, 10402.0, 10421.0, 10432.0, 10453.0, 10479.0, 10488.0, 10475.0, 10464.0, 10461.0, 10458.0, 10451.0, 10454.0, 10445.0, 10436.0, 10428.0, 10420.0, 10418.0, 10413.0, 10425.0, 10423.0, 10418.0, 10417.0, 10411.0, 10399.0, 10410.0, 10421.0, 10436.0, 10464.0, 10488.0, 10471.0, 10461.0, 10459.0, 10443.0, 10437.0, 10421.0, 10417.0, 10412.0, 10419.0, 10413.0, 10411.0, 10428.0, 10446.0, 10427.0, 10405.0, 10398.0, 10408.0, 10421.0, 10437.0, 10451.0, 10456.0, 10452.0, 10457.0, 10476.0, 10472.0, 10460.0, 10440.0, 10412.0, 10399.0, 10390.0, 10389.0, 10398.0, 10402.0, 10417.0, 10433.0, 10463.0, 10475.0, 10465.0, 10425.0, 10412.0, 10415.0, 10432.0, 10431.0, 10415.0, 10409.0, 10393.0, 10424.0, 10444.0, 10439.0, 10432.0, 10427.0, 10449.0, 10440.0, 10417.0, 10386.0, 10370.0, 10384.0, 10399.0, 10433.0, 10464.0, 10471.0, 10426.0, 10412.0, 10430.0, 10451.0, 10463.0, 10435.0, 10414.0, 10430.0, 10447.0, 10446.0, 10412.0, 10388.0, 10386.0, 10411.0, 10399.0, 10386.0, 10397.0, 10400.0, 10429.0, 10451.0, 10470.0, 10491.0, 10480.0, 10429.0, 10417.0, 10401.0, 10416.0, 10427.0, 10431.0, 10457.0, 10478.0, 10454.0, 10424.0, 10408.0, 10404.0, 10407.0, 10420.0, 10461.0, 10478.0, 10450.0, 10441.0, 10427.0, 10430.0, 10473.0, 10470.0, 10452.0, 10448.0, 10436.0, 10432.0, 10458.0, 10493.0, 10455.0, 10435.0, 10432.0, 10429.0, 10427.0, 10420.0, 10405.0, 10396.0, 10388.0, 10385.0, 10384.0, 10384.0, 10395.0, 10393.0],
      "WindowWidth": [22722.0, 22537.0, 22443.0, 22386.0, 22421.0, 22462.0, 22480.0, 22529.0, 22586.0, 22607.0, 22570.0, 22543.0, 22537.0, 22529.0, 22512.0, 22516.0, 22495.0, 22471.0, 22454.0, 22437.0, 22430.0, 22420.0, 22447.0, 22441.0, 22435.0, 22430.0, 22419.0, 22395.0, 22422.0, 22448.0, 22481.0, 22541.0, 22596.0, 22561.0, 22533.0, 22527.0, 22492.0, 22474.0, 22440.0, 22429.0, 22419.0, 22434.0, 22425.0, 22417.0, 22461.0, 22501.0, 22462.0, 22415.0, 22402.0, 22429.0, 22455.0, 22491.0, 22525.0, 22538.0, 22526.0, 22537.0, 22581.0, 22573.0, 22542.0, 22495.0, 22432.0, 22405.0, 22383.0, 22389.0, 22406.0, 22416.0, 22450.0, 22484.0, 22552.0, 22581.0, 22559.0, 22470.0, 22438.0, 22443.0, 22481.0, 22484.0, 22447.0, 22427.0, 22391.0, 22460.0, 22509.0, 22498.0, 22478.0, 22473.0, 22521.0, 22504.0, 22452.0, 22382.0, 22346.0, 22378.0, 22407.0, 22486.0, 22557.0, 22572.0, 22474.0, 22438.0, 22484.0, 22532.0, 22556.0, 22497.0, 22443.0, 22482.0, 22518.0, 22511.0, 22436.0, 22382.0, 22380.0, 22434.0, 22413.0, 22378.0, 22399.0, 22408.0, 22471.0, 22523.0, 22571.0, 22621.0, 22596.0, 22475.0, 22450.0, 22415.0, 22449.0, 22476.0, 22479.0, 22539.0, 22590.0, 22532.0, 22467.0, 22426.0, 22413.0, 22425.0, 22453.0, 22543.0, 22586.0, 22524.0, 22502.0, 22474.0, 22479.0, 22576.0, 22575.0, 22529.0, 22518.0, 22493.0, 22479.0, 22539.0, 22623.0, 22534.0, 22488.0, 22478.0, 22476.0, 22465.0, 22451.0, 22418.0, 22398.0, 22381.0, 22372.0, 22374.0, 22370.0, 22392.0, 22392.0]
    },
    "slices": {}
  }
}