{
  "AcquisitionMatrixPE": 104,
  "AcquisitionNumber": 1,
  "AcquisitionTime": "09:46:28.790000",
  "BandwidthPerPixelPhaseEncode": 17.17,
  "BaseResolution": 104,
  "BodyPartExamined": "BRAIN",
  "CoilString": "HC1-7;NC1_2",
  "ConsistencyInfo": "N4_VE11C_LATEST_20160120",
  "ConversionSoftware": "dcm2niix",
  "ConversionSoftwareVersion": "v1.0.20200427",
  "DerivedVendorReportedEchoSpacing": 0.000560011,
  "DeviceSerialNumber": "167006",
  "DwellTime": 2.1e-06,
  "EchoTime": 0.037,
  "EchoTrainLength": 104,
  "EffectiveEchoSpacing": 0.000560011,
  "FlipAngle": 52,
  "ImageComments": "Unaliased_MB4_PE3_LB",
  "ImageOrientationPatientDICOM": [0.997271, -0.0136706, -0.0725554, -0.000696173, 0.980924, -0.19439],
  "ImageType": [
    "ORIGINAL",
    "PRIMARY",
    "M",
    "MB",
    "ND",
    "MOSAIC"
],
  "ImagingFrequency": 123.259,
  "InPlanePhaseEncodingDirectionDICOM": "COL",
  "InstitutionAddress": "Chemin_Queen-Mary_4565_Montreal_District_CA_H3W_1W5",
  "InstitutionName": "IUGM",
  "InstitutionalDepartmentName": "Department",
  "MRAcquisitionType": "2D",
  "MagneticFieldStrength": 3,
  "Manufacturer": "Siemens",
  "ManufacturersModelName": "Prisma_fit",
  "Modality": "MR",
  "MultibandAccelerationFactor": 4,
  "PartialFourier": 1,
  "PatientPosition": "HFS",
  "PercentPhaseFOV": 100,
  "PercentSampling": 100,
  "PhaseEncodingDirection": "j",
  "PhaseEncodingSteps": 104,
  "PhaseResolution": 1,
  "PixelBandwidth": 2290,
  "ProcedureStepDescription": "hcptrt_generic",
  "ProtocolName": "func_task-social_run-1",
  "PulseSequenceDetails": "%CustomerSeq%_cmrr_mbep2d_bold",
  "ReceiveCoilActiveElements": "HC1-7;NC1,2",
  "ReceiveCoilName": "HeadNeck_64",
  "ReconMatrixPE": 104,
  "RepetitionTime": 1.49,
  "SAR": 0.0283317,
  "ScanOptions": "FS",
  "ScanningSequence": "EP",
  "SequenceName": "epfid2d1_104",
  "SequenceVariant": "SK_SS",
  "SeriesDescription": "func_task-social_run-1",
  "SeriesNumber": 13,
  "ShimSetting": [592, -7254, -8850, 596, -82, -327, 28, 74],
  "SliceThickness": 2,
  "SliceTiming": [0, 0.7825, 0.0975, 0.8825, 0.195, 0.98, 0.2925, 1.0775, 0.3925, 1.175, 0.49, 1.2725, 0.5875, 1.3725, 0.685, 0, 0.7825, 0.0975, 0.8825, 0.195, 0.98, 0.2925, 1.0775, 0.3925, 1.175, 0.49, 1.2725, 0.5875, 1.3725, 0.685, 0, 0.7825, 0.0975, 0.8825, 0.195, 0.98, 0.2925, 1.0775, 0.3925, 1.175, 0.49, 1.2725, 0.5875, 1.3725, 0.685, 0, 0.7825, 0.0975, 0.8825, 0.195, 0.98, 0.2925, 1.0775, 0.3925, 1.175, 0.49, 1.2725, 0.5875, 1.3725, 0.685],
  "SoftwareVersions": "syngo_MR_E11",
  "SpacingBetweenSlices": 2,
  "StationName": "MRC35049",
  "TaskName": "social",
  "TotalReadoutTime": 0.0576811,
  "TxRefAmp": 213.954,
  "WipMemBlock": "10eab014-465c-4c58-bf56-b11a4cbbacdc||Sequence: R016 ve11c/master r/e634e98; Dec 19 2017 11:00:25 by eja",
  "dcmmeta_affine": [
    [-1.9945414066314697, -0.001392345642670989, -0.14765749871730804, 106.0771713256836],
    [0.027341123670339584, 1.9618481397628784, -0.3878202736377716, -76.58866119384766],
    [-0.14511078596115112, 0.3887803554534912, 1.9564745426177979, -46.718135833740234],
    [0.0, 0.0, 0.0, 1.0]
],
  "dcmmeta_reorient_transform": [
    [0.0, -1.0, 0.0, 103.0],
    [1.0, 0.0, 0.0, 0.0],
    [0.0, 0.0, 1.0, 0.0],
    [0.0, 0.0, 0.0, 1.0]
],
  "dcmmeta_shape": [104, 104, 60, 139],
  "dcmmeta_slice_dim": 2,
  "dcmmeta_version": 0.6,
  "global": {
    "const": {
      "AcquisitionMatrix": [104, 0, 0, 104],
      "AngioFlag": "N",
      "BitsAllocated": 16,
      "BitsStored": 16,
      "BodyPartExamined": "BRAIN",
      "Columns": 832,
      "EchoNumbers": 1,
      "EchoTime": 37.0,
      "EchoTrainLength": 104,
      "FlipAngle": 52.0,
      "HighBit": 15,
      "ImageOrientationPatient": [0.99727069095489, -0.0136705614304, -0.0725553906511, -0.0006961728264, 0.98092404140789, -0.1943901755013],
      "ImagePositionPatient": [-831.44000762783, -829.64222444283, 187.66261103262],
      "ImageType": [
        "ORIGINAL",
        "PRIMARY",
        "M",
        "MB",
        "ND",
        "MOSAIC"
],
      "ImagedNucleus": "1H",
      "ImagingFrequency": 123.25907,
      "InPlanePhaseEncodingDirection": "COL",
      "MRAcquisitionType": "2D",
      "MagneticFieldStrength": 3.0,
      "Manufacturer": "SIEMENS",
      "ManufacturerModelName": "Prisma_fit",
      "Modality": "MR",
      "NumberOfAverages": 1.0,
      "NumberOfPhaseEncodingSteps": 104,
      "PercentPhaseFieldOfView": 100.0,
      "PercentSampling": 100.0,
      "PerformedProcedureStepStartTime": "090649.503000",
      "PhotometricInterpretation": "MONOCHROME2",
      "PixelBandwidth": 2290.0,
      "PixelRepresentation": 0,
      "PixelSpacing": [2.0, 2.0],
      "ProtocolName": "func_task-social_run-1",
      "RepetitionTime": 1490.0,
      "Rows": 832,
      "SAR": 0.0283317278073,
      "SamplesPerPixel": 1,
      "ScanOptions": "FS",
      "ScanningSequence": "EP",
      "SequenceName": "epfid2d1_104",
      "SequenceVariant": [
        "SK",
        "SS"
],
      "SeriesDescription": "func_task-social_run-1",
      "SeriesNumber": 13,
      "SeriesTime": "094742.312000",
      "SliceLocation": -38.681650617763,
      "SliceThickness": 2.0,
      "SmallestImagePixelValue": 0,
      "SoftwareVersions": "syngo MR E11",
      "SpacingBetweenSlices": 1.9999999392691,
      "SpecificCharacterSet": "ISO_IR 100",
      "StudyID": "1",
      "StudyTime": "090649.373000",
      "TransmitCoilName": "Body",
      "VariableFlipAngleFlag": "N",
      "WindowCenterWidthExplanation": "Algo1",
      "dBdt": 0.0},
    "slices": {}
  },
  "time": {
    "samples": {
      "AcquisitionNumber": [1, 2, 3, 4, 5, 6, 7, 8, 9, 10, 11, 12, 13, 14, 15, 16, 17, 18, 19, 20, 21, 22, 23, 24, 25, 26, 27, 28, 29, 30, 31, 32, 33, 34, 35, 36, 37, 38, 39, 40, 41, 42, 43, 44, 45, 46, 47, 48, 49, 50, 51, 52, 53, 54, 55, 56, 57, 58, 59, 60, 61, 62, 63, 64, 65, 66, 67, 68, 69, 70, 71, 72, 73, 74, 75, 76, 77, 78, 79, 80, 81, 82, 83, 84, 85, 86, 87, 88, 89, 90, 91, 92, 93, 94, 95, 96, 97, 98, 99, 100, 101, 102, 103, 104, 105, 106, 107, 108, 109, 110, 111, 112, 113, 114, 115, 116, 117, 118, 119, 120, 121, 122, 123, 124, 125, 126, 127, 128, 129, 130, 131, 132, 133, 134, 135, 136, 137, 138, 139],
      "AcquisitionTime": ["094628.790000", "094630.280000", "094631.770000", "094633.260000", "094634.750000", "094636.240000", "094637.730000", "094639.220000", "094640.710000", "094642.200000", "094643.690000", "094645.180000", "094646.670000", "094648.160000", "094649.650000", "094651.140000", "094652.630000", "094654.120000", "094655.610000", "094657.100000", "094658.590000", "094700.080000", "094701.570000", "094703.060000", "094704.550000", "094706.040000", "094707.530000", "094709.020000", "094710.510000", "094712.000000", "094713.490000", "094714.980000", "094716.470000", "094717.960000", "094719.450000", "094720.940000", "094722.430000", "094723.920000", "094725.410000", "094726.900000", "094728.390000", "094729.880000", "094731.370000", "094732.860000", "094734.350000", "094735.840000", "094737.330000", "094738.820000", "094740.310000", "094741.800000", "094743.290000", "094744.780000", "094746.270000", "094747.760000", "094749.250000", "094750.740000", "094752.230000", "094753.720000", "094755.210000", "094756.700000", "094758.190000", "094759.680000", "094801.170000", "094802.660000", "094804.150000", "094805.640000", "094807.130000", "094808.620000", "094810.110000", "094811.600000", "094813.090000", "094814.580000", "094816.070000", "094817.560000", "094819.050000", "094820.540000", "094822.030000", "094823.520000", "094825.010000", "094826.500000", "094827.990000", "094829.480000", "094830.970000", "094832.460000", "094833.950000", "094835.440000", "094836.930000", "094838.420000", "094839.910000", "094841.400000", "094842.890000", "094844.380000", "094845.870000", "094847.360000", "094848.850000", "094850.340000", "094851.830000", "094853.320000", "094854.810000", "094856.300000", "094857.790000", "094859.280000", "094900.770000", "094902.260000", "094903.750000", "094905.240000", "094906.730000", "094908.220000", "094909.710000", "094911.200000", "094912.690000", "094914.180000", "094915.670000", "094917.160000", "094918.650000", "094920.140000", "094921.630000", "094923.120000", "094924.610000", "094926.100000", "094927.590000", "094929.080000", "094930.570000", "094932.060000", "094933.550000", "094935.040000", "094936.530000", "094938.020000", "094939.510000", "094941.000000", "094942.490000", "094943.980000", "094945.470000", "094946.960000", "094948.450000", "094949.940000", "094951.430000", "094952.920000", "094954.410000"],
      "ContentTime": ["094742.315000", "094742.320000", "094742.323000", "094742.326000", "094742.329000", "094742.332000", "094742.334000", "094742.337000", "094742.340000", "094742.343000", "094742.346000", "094742.349000", "094742.352000", "094742.355000", "094742.357000", "094742.360000", "094742.363000", "094742.366000", "094742.369000", "094742.372000", "094802.279000", "094802.282000", "094802.285000", "094802.288000", "094802.291000", "094802.293000", "094802.296000", "094802.299000", "094802.302000", "094802.305000", "094802.308000", "094802.311000", "094802.314000", "094802.316000", "094802.319000", "094802.322000", "094802.325000", "094802.328000", "094802.331000", "094802.334000", "094822.279000", "094822.282000", "094822.285000", "094822.288000", "094822.291000", "094822.294000", "094822.297000", "094822.300000", "094822.303000", "094822.311000", "094822.314000", "094822.317000", "094822.320000", "094822.322000", "094822.325000", "094822.328000", "094822.331000", "094822.334000", "094822.337000", "094822.340000", "094842.278000", "094842.281000", "094842.284000", "094842.287000", "094842.290000", "094842.292000", "094842.295000", "094842.298000", "094842.301000", "094842.304000", "094842.307000", "094842.310000", "094842.312000", "094842.315000", "094842.318000", "094842.321000", "094842.324000", "094842.327000", "094842.330000", "094842.333000", "094902.278000", "094902.281000", "094902.284000", "094902.287000", "094902.290000", "094902.293000", "094902.296000", "094902.299000", "094902.302000", "094902.305000", "094902.308000", "094902.310000", "094902.313000", "094902.316000", "094902.319000", "094902.322000", "094902.325000", "094902.328000", "094902.330000", "094902.333000", "094942.278000", "094942.281000", "094942.284000", "094942.287000", "094942.290000", "094942.293000", "094942.295000", "094942.298000", "094942.301000", "094942.304000", "094942.307000", "094942.310000", "094942.313000", "094942.316000", "094942.319000", "094942.322000", "094942.325000", "094942.328000", "094942.331000", "094942.333000", "094942.336000", "094942.339000", "094942.342000", "094942.345000", "094942.348000", "094942.351000", "094942.354000", "094942.356000", "094942.359000", "094956.339000", "094956.342000", "094956.345000", "094956.347000", "094956.354000", "094956.357000", "094956.360000", "094956.363000", "094956.366000", "094956.369000"],
      "InstanceCreationTime": ["094742.315000", "094742.320000", "094742.323000", "094742.326000", "094742.329000", "094742.332000", "094742.334000", "094742.337000", "094742.340000", "094742.343000", "094742.346000", "094742.349000", "094742.352000", "094742.355000", "094742.357000", "094742.360000", "094742.363000", "094742.366000", "094742.369000", "094742.372000", "094802.279000", "094802.282000", "094802.285000", "094802.288000", "094802.291000", "094802.293000", "094802.296000", "094802.299000", "094802.302000", "094802.305000", "094802.308000", "094802.311000", "094802.314000", "094802.316000", "094802.319000", "094802.322000", "094802.325000", "094802.328000", "094802.331000", "094802.334000", "094822.279000", "094822.282000", "094822.285000", "094822.288000", "094822.291000", "094822.294000", "094822.297000", "094822.300000", "094822.303000", "094822.311000", "094822.314000", "094822.317000", "094822.320000", "094822.322000", "094822.325000", "094822.328000", "094822.331000", "094822.334000", "094822.337000", "094822.340000", "094842.278000", "094842.281000", "094842.284000", "094842.287000", "094842.290000", "094842.292000", "094842.295000", "094842.298000", "094842.301000", "094842.304000", "094842.307000", "094842.310000", "094842.312000", "094842.315000", "094842.318000", "094842.321000", "094842.324000", "094842.327000", "094842.330000", "094842.333000", "094902.278000", "094902.281000", "094902.284000", "094902.287000", "094902.290000", "094902.293000", "094902.296000", "094902.299000", "094902.302000", "094902.305000", "094902.308000", "094902.310000", "094902.313000", "094902.316000", "094902.319000", "094902.322000", "094902.325000", "094902.328000", "094902.330000", "094902.333000", "094942.278000", "094942.281000", "094942.284000", "094942.287000", "094942.290000", "094942.293000", "094942.295000", "094942.298000", "094942.301000", "094942.304000", "094942.307000", "094942.310000", "094942.313000", "094942.316000", "094942.319000", "094942.322000", "094942.325000", "094942.328000", "094942.331000", "094942.333000", "094942.336000", "094942.339000", "094942.342000", "094942.345000", "094942.348000", "094942.351000", "094942.354000", "094942.356000", "094942.359000", "094956.339000", "094956.342000", "094956.345000", "094956.347000", "094956.354000", "094956.357000", "094956.360000", "094956.363000", "094956.366000", "094956.369000"],
      "InstanceNumber": [1, 2, 3, 4, 5, 6, 7, 8, 9, 10, 11, 12, 13, 14, 15, 16, 17, 18, 19, 20, 21, 22, 23, 24, 25, 26, 27, 28, 29, 30, 31, 32, 33, 34, 35, 36, 37, 38, 39, 40, 41, 42, 43, 44, 45, 46, 47, 48, 49, 50, 51, 52, 53, 54, 55, 56, 57, 58, 59, 60, 61, 62, 63, 64, 65, 66, 67, 68, 69, 70, 71, 72, 73, 74, 75, 76, 77, 78, 79, 80, 81, 82, 83, 84, 85, 86, 87, 88, 89, 90, 91, 92, 93, 94, 95, 96, 97, 98, 99, 100, 101, 102, 103, 104, 105, 106, 107, 108, 109, 110, 111, 112, 113, 114, 115, 116, 117, 118, 119, 120, 121, 122, 123, 124, 125, 126, 127, 128, 129, 130, 131, 132, 133, 134, 135, 136, 137, 138, 139],
      "LargestImagePixelValue": [45108, 44336, 43230, 43418, 43300, 43264, 42407, 43246, 42829, 43130, 42662, 42761, 42703, 42852, 42882, 42329, 43002, 42202, 43023, 42919, 42961, 42711, 42876, 42460, 42875, 42656, 42266, 43135, 42973, 43114, 42491, 42643, 42691, 42474, 42982, 42599, 42612, 42488, 42612, 42647, 42504, 42531, 42106, 42585, 42550, 42648, 42507, 42493, 42711, 42553, 42512, 42489, 42900, 42313, 43041, 42418, 42828, 42426, 43029, 42510, 43185, 42528, 42927, 42936, 42568, 42659, 42571, 42887, 43054, 43032, 42643, 42608, 43405, 44385, 43262, 42592, 43276, 43428, 43260, 43479, 42878, 43682, 43100, 43954, 43082, 43509, 43032, 43617, 42844, 43462, 43109, 43116, 43186, 43402, 43175, 43041, 43431, 42899, 43317, 43114, 43033, 43093, 44747, 43879, 43581, 42488, 43217, 42644, 43125, 43381, 43691, 43651, 43463, 44008, 44338, 43758, 43562, 43641, 43638, 42962, 43688, 43432, 43651, 43608, 45105, 45333, 45419, 45092, 45737, 45183, 45445, 45253, 45345, 45349, 45140, 45460, 45349, 45141, 44107],
      "WindowCenter": [10058.0, 10032.0, 10006.0, 10002.0, 9998.0, 9992.0, 9987.0, 9990.0, 9993.0, 10000.0, 9992.0, 9990.0, 9984.0, 9981.0, 9982.0, 9976.0, 9980.0, 9974.0, 9989.0, 9987.0, 9988.0, 9984.0, 9989.0, 9990.0, 9981.0, 9975.0, 9965.0, 9971.0, 9972.0, 9979.0, 9978.0, 9973.0, 9973.0, 9973.0, 9973.0, 9974.0, 9982.0, 9981.0, 9982.0, 9991.0, 9984.0, 9982.0, 9977.0, 9975.0, 9980.0, 9973.0, 9978.0, 9982.0, 9975.0, 9981.0, 9982.0, 9975.0, 9979.0, 9975.0, 9986.0, 9976.0, 9964.0, 9965.0, 9969.0, 9972.0, 9977.0, 9973.0, 9969.0, 9978.0, 9966.0, 9964.0, 9964.0, 9971.0, 9977.0, 9979.0, 9981.0, 9982.0, 10032.0, 10054.0, 10014.0, 9970.0, 9960.0, 9959.0, 9957.0, 9958.0, 9957.0, 9964.0, 9966.0, 9979.0, 9983.0, 9984.0, 9986.0, 9990.0, 9977.0, 9973.0, 9981.0, 9972.0, 9974.0, 9989.0, 9978.0, 9987.0, 9985.0, 9978.0, 9976.0, 9975.0, 9969.0, 9970.0, 9978.0, 9982.0, 9974.0, 9962.0, 9952.0, 9939.0, 9927.0, 9924.0, 9936.0, 9945.0, 9956.0, 9971.0, 9979.0, 9981.0, 9986.0, 9985.0, 9995.0, 9996.0, 10002.0, 10003.0, 9998.0, 10003.0, 10021.0, 10035.0, 10035.0, 10038.0, 10032.0, 10032.0, 10023.0, 10025.0, 10033.0, 10026.0, 10023.0, 10031.0, 10031.0, 10029.0, 10021.0],
      "WindowWidth": [21541.0, 21453.0, 21382.0, 21358.0, 21343.0, 21329.0, 21320.0, 21322.0, 21328.0, 21341.0, 21324.0, 21319.0, 21310.0, 21301.0, 21305.0, 21292.0, 21295.0, 21285.0, 21318.0, 21314.0, 21317.0, 21310.0, 21317.0, 21321.0, 21302.0, 21291.0, 21269.0, 21276.0, 21278.0, 21294.0, 21293.0, 21282.0, 21282.0, 21281.0, 21281.0, 21286.0, 21305.0, 21303.0, 21304.0, 21325.0, 21310.0, 21303.0, 21297.0, 21289.0, 21297.0, 21283.0, 21293.0, 21305.0, 21290.0, 21303.0, 21304.0, 21290.0, 21297.0, 21290.0, 21309.0, 21291.0, 21264.0, 21264.0, 21270.0, 21281.0, 21287.0, 21283.0, 21274.0, 21293.0, 21269.0, 21262.0, 21265.0, 21279.0, 21289.0, 21296.0, 21302.0, 21303.0, 21422.0, 21474.0, 21376.0, 21267.0, 21245.0, 21243.0, 21240.0, 21244.0, 21245.0, 21256.0, 21265.0, 21289.0, 21302.0, 21304.0, 21311.0, 21316.0, 21290.0, 21280.0, 21293.0, 21275.0, 21281.0, 21313.0, 21292.0, 21312.0, 21306.0, 21290.0, 21282.0, 21281.0, 21270.0, 21275.0, 21286.0, 21297.0, 21281.0, 21259.0, 21234.0, 21207.0, 21178.0, 21168.0, 21191.0, 21214.0, 21242.0, 21273.0, 21294.0, 21298.0, 21312.0, 21308.0, 21330.0, 21336.0, 21347.0, 21350.0, 21340.0, 21351.0, 21385.0, 21415.0, 21417.0, 21425.0, 21412.0, 21414.0, 21397.0, 21400.0, 21418.0, 21398.0, 21394.0, 21408.0, 21411.0, 21407.0, 21394.0]
    },
    "slices": {}
  }
}