{
  "AcquisitionMatrixPE": 104,
  "AcquisitionNumber": 1,
  "AcquisitionTime": "09:55:36.065000",
  "BandwidthPerPixelPhaseEncode": 17.17,
  "BaseResolution": 104,
  "BodyPartExamined": "BRAIN",
  "CoilString": "HC1-7;NC1_2",
  "ConsistencyInfo": "N4_VE11C_LATEST_20160120",
  "ConversionSoftware": "dcm2niix",
  "ConversionSoftwareVersion": "v1.0.20200427",
  "DerivedVendorReportedEchoSpacing": 0.000560011,
  "DeviceSerialNumber": "167006",
  "DwellTime": 2.1e-06,
  "EchoTime": 0.037,
  "EchoTrainLength": 104,
  "EffectiveEchoSpacing": 0.000560011,
  "FlipAngle": 52,
  "ImageComments": "Unaliased_MB4_PE3_LB",
  "ImageOrientationPatientDICOM": [0.997271, -0.0134993, -0.0725893, -0.000870295, 0.980926, -0.194378],
  "ImageType": [
    "ORIGINAL",
    "PRIMARY",
    "M",
    "MB",
    "ND",
    "MOSAIC"
],
  "ImagingFrequency": 123.259,
  "InPlanePhaseEncodingDirectionDICOM": "COL",
  "InstitutionAddress": "Chemin_Queen-Mary_4565_Montreal_District_CA_H3W_1W5",
  "InstitutionName": "IUGM",
  "InstitutionalDepartmentName": "Department",
  "MRAcquisitionType": "2D",
  "MagneticFieldStrength": 3,
  "Manufacturer": "Siemens",
  "ManufacturersModelName": "Prisma_fit",
  "Modality": "MR",
  "MultibandAccelerationFactor": 4,
  "PartialFourier": 1,
  "PatientPosition": "HFS",
  "PercentPhaseFOV": 100,
  "PercentSampling": 100,
  "PhaseEncodingDirection": "j",
  "PhaseEncodingSteps": 104,
  "PhaseResolution": 1,
  "PixelBandwidth": 2290,
  "ProcedureStepDescription": "hcptrt_generic",
  "ProtocolName": "func_task-wm_run-1",
  "PulseSequenceDetails": "%CustomerSeq%_cmrr_mbep2d_bold",
  "ReceiveCoilActiveElements": "HC1-7;NC1,2",
  "ReceiveCoilName": "HeadNeck_64",
  "ReconMatrixPE": 104,
  "RepetitionTime": 1.49,
  "SAR": 0.0284519,
  "ScanOptions": "FS",
  "ScanningSequence": "EP",
  "SequenceName": "epfid2d1_104",
  "SequenceVariant": "SK_SS",
  "SeriesDescription": "func_task-wm_run-1",
  "SeriesNumber": 17,
  "ShimSetting": [592, -7254, -8850, 596, -82, -327, 28, 74],
  "SliceThickness": 2,
  "SliceTiming": [0, 0.7825, 0.0975, 0.88, 0.195, 0.98, 0.2925, 1.0775, 0.39, 1.175, 0.49, 1.2725, 0.5875, 1.37, 0.685, 0, 0.7825, 0.0975, 0.88, 0.195, 0.98, 0.2925, 1.0775, 0.39, 1.175, 0.49, 1.2725, 0.5875, 1.37, 0.685, 0, 0.7825, 0.0975, 0.88, 0.195, 0.98, 0.2925, 1.0775, 0.39, 1.175, 0.49, 1.2725, 0.5875, 1.37, 0.685, 0, 0.7825, 0.0975, 0.88, 0.195, 0.98, 0.2925, 1.0775, 0.39, 1.175, 0.49, 1.2725, 0.5875, 1.37, 0.685],
  "SoftwareVersions": "syngo_MR_E11",
  "SpacingBetweenSlices": 2,
  "StationName": "MRC35049",
  "TaskName": "wm",
  "TotalReadoutTime": 0.0576811,
  "TxRefAmp": 213.954,
  "WipMemBlock": "592d531c-517e-435d-bbe8-8b4b21f66207||Sequence: R016 ve11c/master r/e634e98; Dec 19 2017 11:00:25 by eja",
  "dcmmeta_affine": [
    [-1.9945411682128906, -0.0017405897378921509, -0.14765748381614685, 106.09491729736328],
    [0.02699858695268631, 1.961852788925171, -0.3878202736377716, -76.57109069824219],
    [-0.1451786607503891, 0.38875502347946167, 1.9564745426177979, -46.71331787109375],
    [0.0, 0.0, 0.0, 1.0]
],
  "dcmmeta_reorient_transform": [
    [0.0, -1.0, 0.0, 103.0],
    [1.0, 0.0, 0.0, 0.0],
    [0.0, 0.0, 1.0, 0.0],
    [0.0, 0.0, 0.0, 1.0]
],
  "dcmmeta_shape": [104, 104, 60, 202],
  "dcmmeta_slice_dim": 2,
  "dcmmeta_version": 0.6,
  "global": {
    "const": {
      "AcquisitionMatrix": [104, 0, 0, 104],
      "AngioFlag": "N",
      "BitsAllocated": 16,
      "BitsStored": 16,
      "BodyPartExamined": "BRAIN",
      "Columns": 832,
      "EchoNumbers": 1,
      "EchoTime": 37.0,
      "EchoTrainLength": 104,
      "FlipAngle": 52.0,
      "HighBit": 15,
      "ImageOrientationPatient": [0.99727055435349, -0.0134992938832, -0.0725893276187, -0.0008702948813, 0.98092641058895, -0.1943775182368],
      "ImagePositionPatient": [-831.29502442581, -829.78669020076, 187.68031574572],
      "ImageType": [
        "ORIGINAL",
        "PRIMARY",
        "M",
        "MB",
        "ND",
        "MOSAIC"
],
      "ImagedNucleus": "1H",
      "ImagingFrequency": 123.259069,
      "InPlanePhaseEncodingDirection": "COL",
      "MRAcquisitionType": "2D",
      "MagneticFieldStrength": 3.0,
      "Manufacturer": "SIEMENS",
      "ManufacturerModelName": "Prisma_fit",
      "Modality": "MR",
      "NumberOfAverages": 1.0,
      "NumberOfPhaseEncodingSteps": 104,
      "PercentPhaseFieldOfView": 100.0,
      "PercentSampling": 100.0,
      "PerformedProcedureStepStartTime": "090649.503000",
      "PhotometricInterpretation": "MONOCHROME2",
      "PixelBandwidth": 2290.0,
      "PixelRepresentation": 0,
      "PixelSpacing": [2.0, 2.0],
      "ProtocolName": "func_task-wm_run-1",
      "RepetitionTime": 1490.0,
      "Rows": 832,
      "SAR": 0.02845191738392,
      "SamplesPerPixel": 1,
      "ScanOptions": "FS",
      "ScanningSequence": "EP",
      "SequenceName": "epfid2d1_104",
      "SequenceVariant": [
        "SK",
        "SS"
],
      "SeriesDescription": "func_task-wm_run-1",
      "SeriesNumber": 17,
      "SeriesTime": "095702.453000",
      "SliceLocation": -38.681650866873,
      "SliceThickness": 2.0,
      "SmallestImagePixelValue": 0,
      "SoftwareVersions": "syngo MR E11",
      "SpacingBetweenSlices": 1.9999999392691,
      "SpecificCharacterSet": "ISO_IR 100",
      "StudyID": "1",
      "StudyTime": "090649.373000",
      "TransmitCoilName": "Body",
      "VariableFlipAngleFlag": "N",
      "WindowCenterWidthExplanation": "Algo1",
      "dBdt": 0.0},
    "slices": {}
  },
  "time": {
    "samples": {
      "AcquisitionNumber": [1, 2, 3, 4, 5, 6, 7, 8, 9, 10, 11, 12, 13, 14, 15, 16, 17, 18, 19, 20, 21, 22, 23, 24, 25, 26, 27, 28, 29, 30, 31, 32, 33, 34, 35, 36, 37, 38, 39, 40, 41, 42, 43, 44, 45, 46, 47, 48, 49, 50, 51, 52, 53, 54, 55, 56, 57, 58, 59, 60, 61, 62, 63, 64, 65, 66, 67, 68, 69, 70, 71, 72, 73, 74, 75, 76, 77, 78, 79, 80, 81, 82, 83, 84, 85, 86, 87, 88, 89, 90, 91, 92, 93, 94, 95, 96, 97, 98, 99, 100, 101, 102, 103, 104, 105, 106, 107, 108, 109, 110, 111, 112, 113, 114, 115, 116, 117, 118, 119, 120, 121, 122, 123, 124, 125, 126, 127, 128, 129, 130, 131, 132, 133, 134, 135, 136, 137, 138, 139, 140, 141, 142, 143, 144, 145, 146, 147, 148, 149, 150, 151, 152, 153, 154, 155, 156, 157, 158, 159, 160, 161, 162, 163, 164, 165, 166, 167, 168, 169, 170, 171, 172, 173, 174, 175, 176, 177, 178, 179, 180, 181, 182, 183, 184, 185, 186, 187, 188, 189, 190, 191, 192, 193, 194, 195, 196, 197, 198, 199, 200, 201, 202],
      "AcquisitionTime": ["095536.065000", "095537.555000", "095539.045000", "095540.535000", "095542.025000", "095543.515000", "095545.005000", "095546.495000", "095547.985000", "095549.475000", "095550.965000", "095552.455000", "095553.945000", "095555.435000", "095556.925000", "095558.415000", "095559.905000", "095601.395000", "095602.885000", "095604.375000", "095605.865000", "095607.355000", "095608.845000", "095610.335000", "095611.825000", "095613.315000", "095614.805000", "095616.295000", "095617.785000", "095619.275000", "095620.765000", "095622.255000", "095623.745000", "095625.235000", "095626.725000", "095628.215000", "095629.705000", "095631.195000", "095632.685000", "095634.175000", "095635.665000", "095637.155000", "095638.645000", "095640.135000", "095641.625000", "095643.115000", "095644.605000", "095646.095000", "095647.585000", "095649.075000", "095650.565000", "095652.055000", "095653.545000", "095655.035000", "095656.525000", "095658.015000", "095659.505000", "095700.995000", "095702.485000", "095703.975000", "095705.465000", "095706.955000", "095708.445000", "095709.935000", "095711.425000", "095712.915000", "095714.405000", "095715.895000", "095717.385000", "095718.875000", "095720.365000", "095721.855000", "095723.345000", "095724.835000", "095726.325000", "095727.815000", "095729.305000", "095730.795000", "095732.285000", "095733.775000", "095735.265000", "095736.755000", "095738.245000", "095739.735000", "095741.225000", "095742.715000", "095744.205000", "095745.695000", "095747.185000", "095748.675000", "095750.165000", "095751.655000", "095753.145000", "095754.635000", "095756.125000", "095757.615000", "095759.105000", "095800.595000", "095802.085000", "095803.575000", "095805.065000", "095806.555000", "095808.045000", "095809.535000", "095811.025000", "095812.515000", "095814.005000", "095815.495000", "095816.985000", "095818.475000", "095819.965000", "095821.455000", "095822.945000", "095824.435000", "095825.925000", "095827.415000", "095828.905000", "095830.395000", "095831.885000", "095833.375000", "095834.865000", "095836.355000", "095837.845000", "095839.335000", "095840.825000", "095842.315000", "095843.805000", "095845.295000", "095846.785000", "095848.275000", "095849.765000", "095851.255000", "095852.745000", "095854.235000", "095855.725000", "095857.215000", "095858.705000", "095900.195000", "095901.685000", "095903.175000", "095904.665000", "095906.155000", "095907.645000", "095909.135000", "095910.625000", "095912.115000", "095913.605000", "095915.095000", "095916.585000", "095918.075000", "095919.565000", "095921.055000", "095922.545000", "095924.035000", "095925.525000", "095927.015000", "095928.505000", "095929.995000", "095931.485000", "095932.975000", "095934.465000", "095935.955000", "095937.445000", "095938.935000", "095940.425000", "095941.915000", "095943.405000", "095944.895000", "095946.385000", "095947.875000", "095949.365000", "095950.855000", "095952.345000", "095953.835000", "095955.325000", "095956.815000", "095958.305000", "095959.795000", "100001.285000", "100002.775000", "100004.265000", "100005.755000", "100007.245000", "100008.735000", "100010.225000", "100011.715000", "100013.205000", "100014.695000", "100016.185000", "100017.675000", "100019.165000", "100020.655000", "100022.145000", "100023.635000", "100025.125000", "100026.615000", "100028.105000", "100029.595000", "100031.085000", "100032.575000", "100034.065000", "100035.555000"],
      "ContentTime": ["095702.455000", "095702.461000", "095702.464000", "095702.467000", "095702.470000", "095702.473000", "095702.475000", "095702.478000", "095702.481000", "095702.484000", "095702.487000", "095702.490000", "095702.496000", "095702.499000", "095702.502000", "095702.505000", "095702.508000", "095702.510000", "095702.513000", "095702.516000", "095702.519000", "095702.522000", "095702.525000", "095702.528000", "095702.531000", "095702.533000", "095702.536000", "095702.539000", "095702.542000", "095702.545000", "095702.548000", "095722.421000", "095722.424000", "095722.426000", "095722.429000", "095722.432000", "095722.435000", "095722.438000", "095722.441000", "095722.444000", "095722.447000", "095722.454000", "095722.457000", "095722.460000", "095722.463000", "095722.465000", "095722.468000", "095722.471000", "095722.474000", "095722.477000", "095722.480000", "095742.421000", "095742.425000", "095742.428000", "095742.431000", "095742.434000", "095742.437000", "095742.440000", "095742.443000", "095742.446000", "095742.448000", "095742.451000", "095742.454000", "095742.457000", "095742.460000", "095742.463000", "095742.466000", "095742.469000", "095742.471000", "095742.474000", "095742.477000", "095802.420000", "095802.423000", "095802.426000", "095802.428000", "095802.431000", "095802.434000", "095802.437000", "095802.440000", "095802.443000", "095802.447000", "095802.450000", "095802.453000", "095802.455000", "095802.458000", "095802.461000", "095802.464000", "095802.467000", "095802.470000", "095802.473000", "095802.476000", "095802.478000", "095842.420000", "095842.423000", "095842.426000", "095842.428000", "095842.431000", "095842.434000", "095842.437000", "095842.440000", "095842.443000", "095842.446000", "095842.449000", "095842.459000", "095842.462000", "095842.464000", "095842.467000", "095842.470000", "095842.473000", "095842.476000", "095842.479000", "095842.482000", "095842.484000", "095842.487000", "095842.490000", "095842.493000", "095842.496000", "095842.499000", "095842.502000", "095842.505000", "095842.507000", "095842.510000", "095842.513000", "095842.516000", "095902.420000", "095902.423000", "095902.426000", "095902.429000", "095902.431000", "095902.434000", "095902.437000", "095902.440000", "095902.443000", "095902.446000", "095902.449000", "095902.452000", "095902.463000", "095942.421000", "095942.424000", "095942.427000", "095942.429000", "095942.432000", "095942.435000", "095942.438000", "095942.441000", "095942.444000", "095942.447000", "095942.450000", "095942.453000", "095942.456000", "095942.458000", "095942.461000", "095942.464000", "095942.467000", "095942.470000", "095942.473000", "095942.475000", "095942.478000", "095942.481000", "095942.484000", "095942.487000", "095942.490000", "095942.493000", "095942.495000", "100022.420000", "100022.423000", "100022.425000", "100022.428000", "100022.431000", "100022.434000", "100022.437000", "100022.440000", "100022.443000", "100022.446000", "100022.448000", "100022.451000", "100022.454000", "100022.457000", "100022.460000", "100022.463000", "100022.466000", "100022.469000", "100022.471000", "100022.474000", "100022.477000", "100022.480000", "100022.483000", "100022.486000", "100022.489000", "100022.492000", "100022.494000", "100038.043000", "100038.046000", "100038.049000", "100038.052000", "100038.055000", "100038.058000", "100038.061000", "100038.064000", "100038.066000", "100038.069000", "100038.072000"],
      "InstanceCreationTime": ["095702.455000", "095702.461000", "095702.464000", "095702.467000", "095702.470000", "095702.473000", "095702.475000", "095702.478000", "095702.481000", "095702.484000", "095702.487000", "095702.490000", "095702.496000", "095702.499000", "095702.502000", "095702.505000", "095702.508000", "095702.510000", "095702.513000", "095702.516000", "095702.519000", "095702.522000", "095702.525000", "095702.528000", "095702.531000", "095702.533000", "095702.536000", "095702.539000", "095702.542000", "095702.545000", "095702.548000", "095722.421000", "095722.424000", "095722.426000", "095722.429000", "095722.432000", "095722.435000", "095722.438000", "095722.441000", "095722.444000", "095722.447000", "095722.454000", "095722.457000", "095722.460000", "095722.463000", "095722.465000", "095722.468000", "095722.471000", "095722.474000", "095722.477000", "095722.480000", "095742.421000", "095742.425000", "095742.428000", "095742.431000", "095742.434000", "095742.437000", "095742.440000", "095742.443000", "095742.446000", "095742.448000", "095742.451000", "095742.454000", "095742.457000", "095742.460000", "095742.463000", "095742.466000", "095742.469000", "095742.471000", "095742.474000", "095742.477000", "095802.420000", "095802.423000", "095802.426000", "095802.428000", "095802.431000", "095802.434000", "095802.437000", "095802.440000", "095802.443000", "095802.447000", "095802.450000", "095802.453000", "095802.455000", "095802.458000", "095802.461000", "095802.464000", "095802.467000", "095802.470000", "095802.473000", "095802.476000", "095802.478000", "095842.420000", "095842.423000", "095842.426000", "095842.428000", "095842.431000", "095842.434000", "095842.437000", "095842.440000", "095842.443000", "095842.446000", "095842.449000", "095842.459000", "095842.462000", "095842.464000", "095842.467000", "095842.470000", "095842.473000", "095842.476000", "095842.479000", "095842.482000", "095842.484000", "095842.487000", "095842.490000", "095842.493000", "095842.496000", "095842.499000", "095842.502000", "095842.505000", "095842.507000", "095842.510000", "095842.513000", "095842.516000", "095902.420000", "095902.423000", "095902.426000", "095902.429000", "095902.431000", "095902.434000", "095902.437000", "095902.440000", "095902.443000", "095902.446000", "095902.449000", "095902.452000", "095902.463000", "095942.421000", "095942.424000", "095942.427000", "095942.429000", "095942.432000", "095942.435000", "095942.438000", "095942.441000", "095942.444000", "095942.447000", "095942.450000", "095942.453000", "095942.456000", "095942.458000", "095942.461000", "095942.464000", "095942.467000", "095942.470000", "095942.473000", "095942.475000", "095942.478000", "095942.481000", "095942.484000", "095942.487000", "095942.490000", "095942.493000", "095942.495000", "100022.420000", "100022.423000", "100022.425000", "100022.428000", "100022.431000", "100022.434000", "100022.437000", "100022.440000", "100022.443000", "100022.446000", "100022.448000", "100022.451000", "100022.454000", "100022.457000", "100022.460000", "100022.463000", "100022.466000", "100022.469000", "100022.471000", "100022.474000", "100022.477000", "100022.480000", "100022.483000", "100022.486000", "100022.489000", "100022.492000", "100022.494000", "100038.043000", "100038.046000", "100038.049000", "100038.052000", "100038.055000", "100038.058000", "100038.061000", "100038.064000", "100038.066000", "100038.069000", "100038.072000"],
      "InstanceNumber": [1, 2, 3, 4, 5, 6, 7, 8, 9, 10, 11, 12, 13, 14, 15, 16, 17, 18, 19, 20, 21, 22, 23, 24, 25, 26, 27, 28, 29, 30, 31, 32, 33, 34, 35, 36, 37, 38, 39, 40, 41, 42, 43, 44, 45, 46, 47, 48, 49, 50, 51, 52, 53, 54, 55, 56, 57, 58, 59, 60, 61, 62, 63, 64, 65, 66, 67, 68, 69, 70, 71, 72, 73, 74, 75, 76, 77, 78, 79, 80, 81, 82, 83, 84, 85, 86, 87, 88, 89, 90, 91, 92, 93, 94, 95, 96, 97, 98, 99, 100, 101, 102, 103, 104, 105, 106, 107, 108, 109, 110, 111, 112, 113, 114, 115, 116, 117, 118, 119, 120, 121, 122, 123, 124, 125, 126, 127, 128, 129, 130, 131, 132, 133, 134, 135, 136, 137, 138, 139, 140, 141, 142, 143, 144, 145, 146, 147, 148, 149, 150, 151, 152, 153, 154, 155, 156, 157, 158, 159, 160, 161, 162, 163, 164, 165, 166, 167, 168, 169, 170, 171, 172, 173, 174, 175, 176, 177, 178, 179, 180, 181, 182, 183, 184, 185, 186, 187, 188, 189, 190, 191, 192, 193, 194, 195, 196, 197, 198, 199, 200, 201, 202],
      "LargestImagePixelValue": [45272, 44226, 43624, 42885, 42899, 42496, 42704, 42811, 42545, 42587, 42584, 42946, 42613, 42665, 42260, 42712, 42400, 42653, 42628, 42256, 42726, 42783, 42342, 42719, 42810, 42678, 42628, 42154, 42848, 42853, 42693, 42774, 42449, 42286, 42556, 42438, 42587, 42563, 42465, 42683, 42517, 42366, 42168, 42521, 42702, 42721, 42521, 42493, 42461, 42338, 42494, 42113, 42282, 42452, 42874, 42508, 42717, 42412, 42447, 42119, 42606, 42017, 42427, 42482, 42478, 42333, 42362, 42200, 42329, 42546, 42271, 42214, 42185, 42400, 42416, 42201, 42288, 42498, 42582, 42321, 42332, 42463, 42434, 42338, 42324, 42376, 42345, 42311, 42797, 42566, 42344, 42427, 42514, 42458, 42397, 42545, 42281, 42759, 42129, 42544, 42294, 42402, 42687, 42269, 42566, 42247, 42409, 42226, 42369, 42265, 42199, 42533, 42171, 42346, 42291, 42464, 42610, 42402, 42623, 42419, 42274, 42167, 42727, 42551, 42508, 41968, 42361, 42055, 42129, 42109, 42566, 42510, 42191, 42101, 42368, 42020, 42080, 42100, 42050, 42188, 42038, 42122, 42125, 42973, 43279, 42229, 42661, 42670, 42593, 42685, 42404, 42142, 42647, 42250, 42792, 42368, 42442, 42599, 42337, 42523, 42197, 42421, 42152, 42061, 42632, 42530, 42409, 42458, 42543, 42090, 42512, 42647, 42467, 43056, 42274, 43054, 42119, 42414, 42391, 42233, 42243, 42434, 42493, 41777, 42333, 42540, 42709, 41696, 42060, 41925, 41565, 41954, 41932, 42141, 42102, 42218, 42035, 42182, 42136, 41968, 42285, 43073],
      "WindowCenter": [10074.0, 10036.0, 10021.0, 10007.0, 10008.0, 9996.0, 9995.0, 9996.0, 10010.0, 10011.0, 10012.0, 10019.0, 10014.0, 10011.0, 10013.0, 10009.0, 10003.0, 10001.0, 10002.0, 9996.0, 10008.0, 10011.0, 10011.0, 10003.0, 10000.0, 9999.0, 10000.0, 9995.0, 10017.0, 10016.0, 10010.0, 10011.0, 9999.0, 9995.0, 10001.0, 10002.0, 10004.0, 10008.0, 10009.0, 10000.0, 10001.0, 10002.0, 10001.0, 9996.0, 10010.0, 10003.0, 9991.0, 9984.0, 9983.0, 9983.0, 9982.0, 9981.0, 9984.0, 9993.0, 10002.0, 10002.0, 10002.0, 9999.0, 9998.0, 9977.0, 9973.0, 9958.0, 9961.0, 9963.0, 9969.0, 9972.0, 9981.0, 9976.0, 9974.0, 9980.0, 9982.0, 9976.0, 9983.0, 9983.0, 9992.0, 9993.0, 10001.0, 10008.0, 10002.0, 10000.0, 10000.0, 10002.0, 10000.0, 9993.0, 10000.0, 10001.0, 9993.0, 10001.0, 10000.0, 10008.0, 9994.0, 10001.0, 10002.0, 9999.0, 9992.0, 9983.0, 9981.0, 9989.0, 9993.0, 9993.0, 9996.0, 9994.0, 9995.0, 9991.0, 9993.0, 9994.0, 10010.0, 10004.0, 10001.0, 9988.0, 9983.0, 9985.0, 9983.0, 9981.0, 9977.0, 9981.0, 9981.0, 9981.0, 9978.0, 9983.0, 9978.0, 9986.0, 9999.0, 9994.0, 9993.0, 9979.0, 9970.0, 9961.0, 9950.0, 9940.0, 9953.0, 9956.0, 9965.0, 9974.0, 9974.0, 9969.0, 9968.0, 9967.0, 9976.0, 9971.0, 9968.0, 9957.0, 9964.0, 9972.0, 9995.0, 9993.0, 9985.0, 9969.0, 9956.0, 9940.0, 9937.0, 9935.0, 9935.0, 9938.0, 9949.0, 9946.0, 9945.0, 9953.0, 9963.0, 9966.0, 9973.0, 9974.0, 9974.0, 9968.0, 9983.0, 9982.0, 9991.0, 9992.0, 9994.0, 9993.0, 9993.0, 9991.0, 9992.0, 9989.0, 9984.0, 9995.0, 9982.0, 9977.0, 9966.0, 9974.0, 9967.0, 9972.0, 9964.0, 9959.0, 9959.0, 9963.0, 9964.0, 9957.0, 9950.0, 9934.0, 9917.0, 9912.0, 9912.0, 9908.0, 9909.0, 9919.0, 9922.0, 9935.0, 9943.0, 9963.0, 9967.0, 9976.0],
      "WindowWidth": [21582.0, 21470.0, 21418.0, 21378.0, 21371.0, 21344.0, 21340.0, 21339.0, 21369.0, 21374.0, 21372.0, 21388.0, 21380.0, 21372.0, 21377.0, 21368.0, 21354.0, 21350.0, 21351.0, 21341.0, 21365.0, 21371.0, 21373.0, 21355.0, 21346.0, 21341.0, 21346.0, 21339.0, 21384.0, 21382.0, 21370.0, 21371.0, 21344.0, 21337.0, 21348.0, 21353.0, 21357.0, 21366.0, 21367.0, 21345.0, 21348.0, 21353.0, 21348.0, 21338.0, 21368.0, 21350.0, 21325.0, 21310.0, 21311.0, 21306.0, 21307.0, 21302.0, 21313.0, 21333.0, 21352.0, 21353.0, 21352.0, 21339.0, 21337.0, 21294.0, 21284.0, 21249.0, 21251.0, 21259.0, 21273.0, 21283.0, 21301.0, 21292.0, 21287.0, 21298.0, 21303.0, 21293.0, 21306.0, 21306.0, 21329.0, 21330.0, 21349.0, 21364.0, 21351.0, 21346.0, 21344.0, 21347.0, 21346.0, 21333.0, 21346.0, 21348.0, 21331.0, 21347.0, 21345.0, 21362.0, 21334.0, 21348.0, 21351.0, 21342.0, 21328.0, 21311.0, 21304.0, 21321.0, 21332.0, 21332.0, 21340.0, 21334.0, 21330.0, 21321.0, 21326.0, 21334.0, 21369.0, 21355.0, 21346.0, 21318.0, 21304.0, 21309.0, 21306.0, 21304.0, 21292.0, 21298.0, 21298.0, 21300.0, 21295.0, 21305.0, 21296.0, 21312.0, 21339.0, 21332.0, 21328.0, 21297.0, 21275.0, 21257.0, 21230.0, 21208.0, 21235.0, 21242.0, 21266.0, 21285.0, 21286.0, 21276.0, 21272.0, 21271.0, 21291.0, 21276.0, 21270.0, 21247.0, 21263.0, 21282.0, 21331.0, 21328.0, 21312.0, 21275.0, 21243.0, 21207.0, 21195.0, 21192.0, 21191.0, 21200.0, 21221.0, 21221.0, 21219.0, 21236.0, 21259.0, 21266.0, 21282.0, 21285.0, 21285.0, 21271.0, 21303.0, 21301.0, 21324.0, 21325.0, 21328.0, 21325.0, 21327.0, 21321.0, 21324.0, 21316.0, 21307.0, 21325.0, 21299.0, 21288.0, 21263.0, 21280.0, 21266.0, 21275.0, 21257.0, 21251.0, 21250.0, 21254.0, 21261.0, 21243.0, 21229.0, 21196.0, 21160.0, 21144.0, 21138.0, 21130.0, 21135.0, 21156.0, 21166.0, 21197.0, 21214.0, 21260.0, 21268.0, 21285.0]
    },
    "slices": {}
  }
}