{
  "AcquisitionMatrixPE": 104,
  "AcquisitionNumber": 1,
  "AcquisitionTime": "09:51:44.340000",
  "BandwidthPerPixelPhaseEncode": 17.17,
  "BaseResolution": 104,
  "BodyPartExamined": "BRAIN",
  "CoilString": "HC1-7;NC1_2",
  "ConsistencyInfo": "N4_VE11C_LATEST_20160120",
  "ConversionSoftware": "dcm2niix",
  "ConversionSoftwareVersion": "v1.0.20200427",
  "DerivedVendorReportedEchoSpacing": 0.000560011,
  "DeviceSerialNumber": "167006",
  "DwellTime": 2.1e-06,
  "EchoTime": 0.037,
  "EchoTrainLength": 104,
  "EffectiveEchoSpacing": 0.000560011,
  "FlipAngle": 52,
  "ImageComments": "Unaliased_MB4_PE3_LB",
  "ImageOrientationPatientDICOM": [0.997271, -0.0136706, -0.0725554, -0.000696173, 0.980924, -0.19439],
  "ImageType": [
    "ORIGINAL",
    "PRIMARY",
    "M",
    "MB",
    "ND",
    "MOSAIC"
],
  "ImagingFrequency": 123.259,
  "InPlanePhaseEncodingDirectionDICOM": "COL",
  "InstitutionAddress": "Chemin_Queen-Mary_4565_Montreal_District_CA_H3W_1W5",
  "InstitutionName": "IUGM",
  "InstitutionalDepartmentName": "Department",
  "MRAcquisitionType": "2D",
  "MagneticFieldStrength": 3,
  "Manufacturer": "Siemens",
  "ManufacturersModelName": "Prisma_fit",
  "Modality": "MR",
  "MultibandAccelerationFactor": 4,
  "PartialFourier": 1,
  "PatientPosition": "HFS",
  "PercentPhaseFOV": 100,
  "PercentSampling": 100,
  "PhaseEncodingDirection": "j",
  "PhaseEncodingSteps": 104,
  "PhaseResolution": 1,
  "PixelBandwidth": 2290,
  "ProcedureStepDescription": "hcptrt_generic",
  "ProtocolName": "func_task-relational_run-1",
  "PulseSequenceDetails": "%CustomerSeq%_cmrr_mbep2d_bold",
  "ReceiveCoilActiveElements": "HC1-7;NC1,2",
  "ReceiveCoilName": "HeadNeck_64",
  "ReconMatrixPE": 104,
  "RepetitionTime": 1.49,
  "SAR": 0.0282684,
  "ScanOptions": "FS",
  "ScanningSequence": "EP",
  "SequenceName": "epfid2d1_104",
  "SequenceVariant": "SK_SS",
  "SeriesDescription": "func_task-relational_run-1",
  "SeriesNumber": 15,
  "ShimSetting": [592, -7254, -8850, 596, -82, -327, 28, 74],
  "SliceThickness": 2,
  "SliceTiming": [0, 0.7825, 0.0975, 0.88, 0.195, 0.98, 0.2925, 1.0775, 0.39, 1.175, 0.49, 1.2725, 0.5875, 1.37, 0.685, 0, 0.7825, 0.0975, 0.88, 0.195, 0.98, 0.2925, 1.0775, 0.39, 1.175, 0.49, 1.2725, 0.5875, 1.37, 0.685, 0, 0.7825, 0.0975, 0.88, 0.195, 0.98, 0.2925, 1.0775, 0.39, 1.175, 0.49, 1.2725, 0.5875, 1.37, 0.685, 0, 0.7825, 0.0975, 0.88, 0.195, 0.98, 0.2925, 1.0775, 0.39, 1.175, 0.49, 1.2725, 0.5875, 1.37, 0.685],
  "SoftwareVersions": "syngo_MR_E11",
  "SpacingBetweenSlices": 2,
  "StationName": "MRC35049",
  "TaskName": "relational",
  "TotalReadoutTime": 0.0576811,
  "TxRefAmp": 213.954,
  "WipMemBlock": "14a20a69-1de0-4f3d-b4d9-c1d2d7dffb36||Sequence: R016 ve11c/master r/e634e98; Dec 19 2017 11:00:25 by eja",
  "dcmmeta_affine": [
    [-1.9945414066314697, -0.001392345642670989, -0.14765749871730804, 106.0771713256836],
    [0.027341123670339584, 1.9618481397628784, -0.3878202736377716, -76.58866119384766],
    [-0.14511078596115112, 0.3887803554534912, 1.9564745426177979, -46.718135833740234],
    [0.0, 0.0, 0.0, 1.0]
],
  "dcmmeta_reorient_transform": [
    [0.0, -1.0, 0.0, 103.0],
    [1.0, 0.0, 0.0, 0.0],
    [0.0, 0.0, 1.0, 0.0],
    [0.0, 0.0, 0.0, 1.0]
],
  "dcmmeta_shape": [104, 104, 60, 119],
  "dcmmeta_slice_dim": 2,
  "dcmmeta_version": 0.6,
  "global": {
    "const": {
      "AcquisitionMatrix": [104, 0, 0, 104],
      "AngioFlag": "N",
      "BitsAllocated": 16,
      "BitsStored": 16,
      "BodyPartExamined": "BRAIN",
      "Columns": 832,
      "EchoNumbers": 1,
      "EchoTime": 37.0,
      "EchoTrainLength": 104,
      "FlipAngle": 52.0,
      "HighBit": 15,
      "ImageOrientationPatient": [0.99727069095489, -0.0136705614304, -0.0725553906511, -0.0006961728264, 0.98092404140789, -0.1943901755013],
      "ImagePositionPatient": [-831.44000762783, -829.64222444283, 187.66261103262],
      "ImageType": [
        "ORIGINAL",
        "PRIMARY",
        "M",
        "MB",
        "ND",
        "MOSAIC"
],
      "ImagedNucleus": "1H",
      "ImagingFrequency": 123.25907,
      "InPlanePhaseEncodingDirection": "COL",
      "MRAcquisitionType": "2D",
      "MagneticFieldStrength": 3.0,
      "Manufacturer": "SIEMENS",
      "ManufacturerModelName": "Prisma_fit",
      "Modality": "MR",
      "NumberOfAverages": 1.0,
      "NumberOfPhaseEncodingSteps": 104,
      "PercentPhaseFieldOfView": 100.0,
      "PercentSampling": 100.0,
      "PerformedProcedureStepStartTime": "090649.503000",
      "PhotometricInterpretation": "MONOCHROME2",
      "PixelBandwidth": 2290.0,
      "PixelRepresentation": 0,
      "PixelSpacing": [2.0, 2.0],
      "ProtocolName": "func_task-relational_run-1",
      "RepetitionTime": 1490.0,
      "Rows": 832,
      "SAR": 0.02826844163495,
      "SamplesPerPixel": 1,
      "ScanOptions": "FS",
      "ScanningSequence": "EP",
      "SequenceName": "epfid2d1_104",
      "SequenceVariant": [
        "SK",
        "SS"
],
      "SeriesDescription": "func_task-relational_run-1",
      "SeriesNumber": 15,
      "SeriesTime": "095259.474000",
      "SliceLocation": -38.681650617763,
      "SliceThickness": 2.0,
      "SmallestImagePixelValue": 0,
      "SoftwareVersions": "syngo MR E11",
      "SpacingBetweenSlices": 1.9999999392691,
      "SpecificCharacterSet": "ISO_IR 100",
      "StudyID": "1",
      "StudyTime": "090649.373000",
      "TransmitCoilName": "Body",
      "VariableFlipAngleFlag": "N",
      "WindowCenterWidthExplanation": "Algo1",
      "dBdt": 0.0},
    "slices": {}
  },
  "time": {
    "samples": {
      "AcquisitionNumber": [1, 2, 3, 4, 5, 6, 7, 8, 9, 10, 11, 12, 13, 14, 15, 16, 17, 18, 19, 20, 21, 22, 23, 24, 25, 26, 27, 28, 29, 30, 31, 32, 33, 34, 35, 36, 37, 38, 39, 40, 41, 42, 43, 44, 45, 46, 47, 48, 49, 50, 51, 52, 53, 54, 55, 56, 57, 58, 59, 60, 61, 62, 63, 64, 65, 66, 67, 68, 69, 70, 71, 72, 73, 74, 75, 76, 77, 78, 79, 80, 81, 82, 83, 84, 85, 86, 87, 88, 89, 90, 91, 92, 93, 94, 95, 96, 97, 98, 99, 100, 101, 102, 103, 104, 105, 106, 107, 108, 109, 110, 111, 112, 113, 114, 115, 116, 117, 118, 119],
      "AcquisitionTime": ["095144.340000", "095145.830000", "095147.320000", "095148.810000", "095150.300000", "095151.790000", "095153.280000", "095154.770000", "095156.260000", "095157.750000", "095159.240000", "095200.730000", "095202.220000", "095203.710000", "095205.200000", "095206.690000", "095208.180000", "095209.670000", "095211.160000", "095212.650000", "095214.140000", "095215.630000", "095217.120000", "095218.610000", "095220.100000", "095221.590000", "095223.080000", "095224.570000", "095226.060000", "095227.550000", "095229.040000", "095230.530000", "095232.020000", "095233.510000", "095235.000000", "095236.490000", "095237.980000", "095239.470000", "095240.960000", "095242.450000", "095243.940000", "095245.430000", "095246.920000", "095248.410000", "095249.900000", "095251.390000", "095252.880000", "095254.370000", "095255.860000", "095257.350000", "095258.840000", "095300.330000", "095301.820000", "095303.310000", "095304.800000", "095306.290000", "095307.780000", "095309.270000", "095310.760000", "095312.250000", "095313.740000", "095315.230000", "095316.720000", "095318.210000", "095319.700000", "095321.190000", "095322.680000", "095324.170000", "095325.660000", "095327.150000", "095328.640000", "095330.130000", "095331.620000", "095333.110000", "095334.600000", "095336.090000", "095337.580000", "095339.070000", "095340.560000", "095342.050000", "095343.540000", "095345.030000", "095346.520000", "095348.010000", "095349.500000", "095350.990000", "095352.480000", "095353.970000", "095355.460000", "095356.950000", "095358.440000", "095359.930000", "095401.420000", "095402.910000", "095404.400000", "095405.890000", "095407.380000", "095408.870000", "095410.360000", "095411.850000", "095413.340000", "095414.830000", "095416.320000", "095417.810000", "095419.300000", "095420.790000", "095422.280000", "095423.770000", "095425.260000", "095426.750000", "095428.240000", "095429.730000", "095431.220000", "095432.710000", "095434.200000", "095435.690000", "095437.180000", "095438.670000", "095440.160000"],
      "ContentTime": ["095259.477000", "095259.482000", "095259.484000", "095259.488000", "095259.491000", "095259.493000", "095259.496000", "095259.499000", "095259.515000", "095259.518000", "095259.521000", "095259.524000", "095259.527000", "095259.529000", "095259.532000", "095259.535000", "095259.538000", "095259.544000", "095259.547000", "095259.556000", "095319.445000", "095319.448000", "095319.451000", "095319.454000", "095319.457000", "095319.459000", "095319.463000", "095319.465000", "095319.468000", "095319.471000", "095319.474000", "095319.478000", "095319.480000", "095319.483000", "095319.486000", "095319.489000", "095319.492000", "095319.495000", "095319.498000", "095319.501000", "095319.503000", "095339.445000", "095339.448000", "095339.451000", "095339.454000", "095339.458000", "095339.461000", "095339.464000", "095339.466000", "095339.469000", "095339.472000", "095339.489000", "095339.492000", "095339.495000", "095339.501000", "095339.504000", "095339.507000", "095339.509000", "095339.512000", "095339.515000", "095339.518000", "095359.445000", "095359.448000", "095359.451000", "095359.454000", "095359.456000", "095359.459000", "095359.462000", "095359.465000", "095359.468000", "095359.471000", "095359.474000", "095359.476000", "095359.479000", "095359.482000", "095359.485000", "095359.488000", "095359.491000", "095359.494000", "095359.497000", "095359.499000", "095419.445000", "095419.448000", "095419.451000", "095419.454000", "095419.457000", "095419.460000", "095419.462000", "095419.465000", "095419.468000", "095419.471000", "095419.474000", "095419.478000", "095419.481000", "095419.484000", "095419.487000", "095419.490000", "095419.493000", "095419.496000", "095419.498000", "095419.501000", "095442.006000", "095442.009000", "095442.012000", "095442.015000", "095442.017000", "095442.020000", "095442.023000", "095442.026000", "095442.029000", "095442.032000", "095442.035000", "095442.038000", "095442.041000", "095442.044000", "095442.047000", "095442.050000", "095442.053000", "095442.056000"],
      "InstanceCreationTime": ["095259.477000", "095259.482000", "095259.484000", "095259.488000", "095259.491000", "095259.493000", "095259.496000", "095259.499000", "095259.515000", "095259.518000", "095259.521000", "095259.524000", "095259.527000", "095259.529000", "095259.532000", "095259.535000", "095259.538000", "095259.544000", "095259.547000", "095259.556000", "095319.445000", "095319.448000", "095319.451000", "095319.454000", "095319.457000", "095319.459000", "095319.463000", "095319.465000", "095319.468000", "095319.471000", "095319.474000", "095319.478000", "095319.480000", "095319.483000", "095319.486000", "095319.489000", "095319.492000", "095319.495000", "095319.498000", "095319.501000", "095319.503000", "095339.445000", "095339.448000", "095339.451000", "095339.454000", "095339.458000", "095339.461000", "095339.464000", "095339.466000", "095339.469000", "095339.472000", "095339.489000", "095339.492000", "095339.495000", "095339.501000", "095339.504000", "095339.507000", "095339.509000", "095339.512000", "095339.515000", "095339.518000", "095359.445000", "095359.448000", "095359.451000", "095359.454000", "095359.456000", "095359.459000", "095359.462000", "095359.465000", "095359.468000", "095359.471000", "095359.474000", "095359.476000", "095359.479000", "095359.482000", "095359.485000", "095359.488000", "095359.491000", "095359.494000", "095359.497000", "095359.499000", "095419.445000", "095419.448000", "095419.451000", "095419.454000", "095419.457000", "095419.460000", "095419.462000", "095419.465000", "095419.468000", "095419.471000", "095419.474000", "095419.478000", "095419.481000", "095419.484000", "095419.487000", "095419.490000", "095419.493000", "095419.496000", "095419.498000", "095419.501000", "095442.006000", "095442.009000", "095442.012000", "095442.015000", "095442.017000", "095442.020000", "095442.023000", "095442.026000", "095442.029000", "095442.032000", "095442.035000", "095442.038000", "095442.041000", "095442.044000", "095442.047000", "095442.050000", "095442.053000", "095442.056000"],
      "InstanceNumber": [1, 2, 3, 4, 5, 6, 7, 8, 9, 10, 11, 12, 13, 14, 15, 16, 17, 18, 19, 20, 21, 22, 23, 24, 25, 26, 27, 28, 29, 30, 31, 32, 33, 34, 35, 36, 37, 38, 39, 40, 41, 42, 43, 44, 45, 46, 47, 48, 49, 50, 51, 52, 53, 54, 55, 56, 57, 58, 59, 60, 61, 62, 63, 64, 65, 66, 67, 68, 69, 70, 71, 72, 73, 74, 75, 76, 77, 78, 79, 80, 81, 82, 83, 84, 85, 86, 87, 88, 89, 90, 91, 92, 93, 94, 95, 96, 97, 98, 99, 100, 101, 102, 103, 104, 105, 106, 107, 108, 109, 110, 111, 112, 113, 114, 115, 116, 117, 118, 119],
      "LargestImagePixelValue": [45553, 44462, 43880, 43316, 43311, 43159, 43044, 43065, 43222, 42772, 42873, 43103, 42656, 42820, 42715, 42853, 42615, 43057, 43043, 42702, 42835, 42836, 42979, 42890, 42678, 42356, 42765, 42476, 42936, 42312, 42783, 42638, 42667, 42847, 42809, 42790, 42645, 43020, 42520, 43136, 42786, 42484, 42449, 42560, 43022, 43164, 42731, 42630, 42741, 42118, 42806, 42286, 43060, 42832, 42873, 42626, 43057, 42740, 42816, 43114, 42794, 42765, 42698, 42647, 42809, 42735, 42749, 42955, 42506, 42917, 42995, 43156, 42577, 43134, 42887, 43158, 42565, 42631, 42995, 42654, 42608, 42331, 42818, 42622, 42829, 42269, 42560, 42720, 42459, 42479, 43118, 42826, 42987, 42671, 42760, 43003, 42400, 42784, 42405, 43370, 42548, 42807, 42497, 43041, 42784, 42588, 42768, 42912, 42947, 43037, 43075, 42756, 43024, 42578, 42687, 42570, 42612, 42709, 42914],
      "WindowCenter": [10080.0, 10041.0, 10015.0, 9997.0, 9992.0, 9999.0, 9998.0, 9999.0, 10000.0, 10014.0, 10015.0, 10022.0, 10009.0, 9999.0, 10003.0, 10002.0, 9994.0, 10005.0, 10001.0, 9992.0, 9999.0, 10000.0, 10014.0, 10017.0, 10010.0, 10001.0, 9999.0, 10002.0, 9999.0, 10000.0, 10001.0, 9992.0, 9990.0, 9983.0, 9982.0, 9982.0, 9982.0, 9991.0, 9993.0, 10005.0, 10000.0, 9993.0, 10001.0, 9999.0, 9998.0, 9999.0, 9997.0, 9997.0, 9999.0, 9989.0, 9995.0, 9992.0, 9994.0, 10003.0, 9990.0, 10001.0, 10001.0, 10002.0, 10009.0, 10013.0, 10003.0, 9999.0, 9992.0, 9993.0, 9998.0, 9998.0, 9998.0, 9990.0, 9992.0, 9989.0, 9989.0, 9991.0, 9989.0, 9989.0, 9991.0, 9989.0, 9991.0, 9993.0, 9999.0, 10001.0, 10008.0, 10001.0, 10005.0, 9999.0, 10008.0, 10002.0, 9993.0, 9982.0, 9987.0, 9985.0, 9995.0, 9998.0, 10007.0, 10014.0, 10015.0, 10018.0, 10003.0, 10004.0, 10001.0, 10005.0, 10007.0, 9998.0, 10007.0, 10005.0, 9993.0, 9985.0, 9985.0, 9979.0, 9981.0, 9981.0, 9995.0, 9990.0, 9990.0, 9989.0, 9993.0, 9985.0, 9985.0, 9983.0, 9996.0],
      "WindowWidth": [21593.0, 21477.0, 21401.0, 21353.0, 21335.0, 21346.0, 21340.0, 21343.0, 21347.0, 21374.0, 21378.0, 21394.0, 21367.0, 21346.0, 21356.0, 21352.0, 21336.0, 21356.0, 21350.0, 21329.0, 21344.0, 21347.0, 21377.0, 21387.0, 21372.0, 21351.0, 21345.0, 21351.0, 21343.0, 21349.0, 21349.0, 21330.0, 21324.0, 21312.0, 21306.0, 21311.0, 21310.0, 21330.0, 21339.0, 21356.0, 21351.0, 21335.0, 21351.0, 21344.0, 21343.0, 21345.0, 21341.0, 21339.0, 21343.0, 21324.0, 21333.0, 21329.0, 21332.0, 21349.0, 21323.0, 21350.0, 21349.0, 21352.0, 21368.0, 21373.0, 21357.0, 21344.0, 21330.0, 21330.0, 21341.0, 21344.0, 21344.0, 21325.0, 21330.0, 21322.0, 21322.0, 21327.0, 21324.0, 21322.0, 21328.0, 21321.0, 21327.0, 21334.0, 21342.0, 21348.0, 21364.0, 21350.0, 21355.0, 21345.0, 21364.0, 21352.0, 21329.0, 21306.0, 21313.0, 21315.0, 21333.0, 21342.0, 21362.0, 21377.0, 21380.0, 21386.0, 21355.0, 21356.0, 21351.0, 21354.0, 21363.0, 21344.0, 21363.0, 21356.0, 21333.0, 21315.0, 21313.0, 21299.0, 21306.0, 21307.0, 21334.0, 21326.0, 21322.0, 21323.0, 21331.0, 21316.0, 21317.0, 21313.0, 21337.0]
    },
    "slices": {}
  }
}