{
  "AcquisitionMatrixPE": 104,
  "AcquisitionNumber": 1,
  "AcquisitionTime": "10:07:11.762500",
  "BandwidthPerPixelPhaseEncode": 17.17,
  "BaseResolution": 104,
  "BodyPartExamined": "BRAIN",
  "CoilString": "HC1-7;NC1_2",
  "ConsistencyInfo": "N4_VE11C_LATEST_20160120",
  "ConversionSoftware": "dcm2niix",
  "ConversionSoftwareVersion": "v1.0.20200427",
  "DerivedVendorReportedEchoSpacing": 0.000560011,
  "DeviceSerialNumber": "167006",
  "DwellTime": 2.1e-06,
  "EchoTime": 0.037,
  "EchoTrainLength": 104,
  "EffectiveEchoSpacing": 0.000560011,
  "FlipAngle": 52,
  "ImageComments": "Unaliased_MB4_PE3_LB",
  "ImageOrientationPatientDICOM": [0.997271, -0.0134993, -0.0725893, -0.000870295, 0.980926, -0.194378],
  "ImageType": [
    "ORIGINAL",
    "PRIMARY",
    "M",
    "MB",
    "ND",
    "MOSAIC"
],
  "ImagingFrequency": 123.259,
  "InPlanePhaseEncodingDirectionDICOM": "COL",
  "InstitutionAddress": "Chemin_Queen-Mary_4565_Montreal_District_CA_H3W_1W5",
  "InstitutionName": "IUGM",
  "InstitutionalDepartmentName": "Department",
  "MRAcquisitionType": "2D",
  "MagneticFieldStrength": 3,
  "Manufacturer": "Siemens",
  "ManufacturersModelName": "Prisma_fit",
  "Modality": "MR",
  "MultibandAccelerationFactor": 4,
  "PartialFourier": 1,
  "PatientPosition": "HFS",
  "PercentPhaseFOV": 100,
  "PercentSampling": 100,
  "PhaseEncodingDirection": "j",
  "PhaseEncodingSteps": 104,
  "PhaseResolution": 1,
  "PixelBandwidth": 2290,
  "ProcedureStepDescription": "hcptrt_generic",
  "ProtocolName": "func_task-gambling_run-1",
  "PulseSequenceDetails": "%CustomerSeq%_cmrr_mbep2d_bold",
  "ReceiveCoilActiveElements": "HC1-7;NC1,2",
  "ReceiveCoilName": "HeadNeck_64",
  "ReconMatrixPE": 104,
  "RepetitionTime": 1.49,
  "SAR": 0.0283024,
  "ScanOptions": "FS",
  "ScanningSequence": "EP",
  "SequenceName": "epfid2d1_104",
  "SequenceVariant": "SK_SS",
  "SeriesDescription": "func_task-gambling_run-1",
  "SeriesNumber": 21,
  "ShimSetting": [592, -7254, -8850, 596, -82, -327, 28, 74],
  "SliceThickness": 2,
  "SliceTiming": [0, 0.785, 0.0975, 0.8825, 0.195, 0.98, 0.295, 1.0775, 0.3925, 1.175, 0.49, 1.275, 0.5875, 1.3725, 0.685, 0, 0.785, 0.0975, 0.8825, 0.195, 0.98, 0.295, 1.0775, 0.3925, 1.175, 0.49, 1.275, 0.5875, 1.3725, 0.685, 0, 0.785, 0.0975, 0.8825, 0.195, 0.98, 0.295, 1.0775, 0.3925, 1.175, 0.49, 1.275, 0.5875, 1.3725, 0.685, 0, 0.785, 0.0975, 0.8825, 0.195, 0.98, 0.295, 1.0775, 0.3925, 1.175, 0.49, 1.275, 0.5875, 1.3725, 0.685],
  "SoftwareVersions": "syngo_MR_E11",
  "SpacingBetweenSlices": 2,
  "StationName": "MRC35049",
  "TaskName": "gambling",
  "TotalReadoutTime": 0.0576811,
  "TxRefAmp": 213.954,
  "WipMemBlock": "f80c3354-bfcc-46ea-aa63-bac4492acf7f||Sequence: R016 ve11c/master r/e634e98; Dec 19 2017 11:00:25 by eja",
  "dcmmeta_affine": [
    [-1.9945411682128906, -0.0017405897378921509, -0.14765748381614685, 106.09491729736328],
    [0.02699858695268631, 1.961852788925171, -0.3878202736377716, -76.57109069824219],
    [-0.1451786607503891, 0.38875502347946167, 1.9564745426177979, -46.71331787109375],
    [0.0, 0.0, 0.0, 1.0]
],
  "dcmmeta_reorient_transform": [
    [0.0, -1.0, 0.0, 103.0],
    [1.0, 0.0, 0.0, 0.0],
    [0.0, 0.0, 1.0, 0.0],
    [0.0, 0.0, 0.0, 1.0]
],
  "dcmmeta_shape": [104, 104, 60, 129],
  "dcmmeta_slice_dim": 2,
  "dcmmeta_version": 0.6,
  "global": {
    "const": {
      "AcquisitionMatrix": [104, 0, 0, 104],
      "AngioFlag": "N",
      "BitsAllocated": 16,
      "BitsStored": 16,
      "BodyPartExamined": "BRAIN",
      "Columns": 832,
      "EchoNumbers": 1,
      "EchoTime": 37.0,
      "EchoTrainLength": 104,
      "FlipAngle": 52.0,
      "HighBit": 15,
      "ImageOrientationPatient": [0.99727055435349, -0.0134992938832, -0.0725893276187, -0.0008702948813, 0.98092641058895, -0.1943775182368],
      "ImagePositionPatient": [-831.29502442581, -829.78669020076, 187.68031574572],
      "ImageType": [
        "ORIGINAL",
        "PRIMARY",
        "M",
        "MB",
        "ND",
        "MOSAIC"
],
      "ImagedNucleus": "1H",
      "ImagingFrequency": 123.259069,
      "InPlanePhaseEncodingDirection": "COL",
      "MRAcquisitionType": "2D",
      "MagneticFieldStrength": 3.0,
      "Manufacturer": "SIEMENS",
      "ManufacturerModelName": "Prisma_fit",
      "Modality": "MR",
      "NumberOfAverages": 1.0,
      "NumberOfPhaseEncodingSteps": 104,
      "PercentPhaseFieldOfView": 100.0,
      "PercentSampling": 100.0,
      "PerformedProcedureStepStartTime": "090649.503000",
      "PhotometricInterpretation": "MONOCHROME2",
      "PixelBandwidth": 2290.0,
      "PixelRepresentation": 0,
      "PixelSpacing": [2.0, 2.0],
      "ProtocolName": "func_task-gambling_run-1",
      "RepetitionTime": 1490.0,
      "Rows": 832,
      "SAR": 0.02830240928716,
      "SamplesPerPixel": 1,
      "ScanOptions": "FS",
      "ScanningSequence": "EP",
      "SequenceName": "epfid2d1_104",
      "SequenceVariant": [
        "SK",
        "SS"
],
      "SeriesDescription": "func_task-gambling_run-1",
      "SeriesNumber": 21,
      "SeriesTime": "100839.512000",
      "SliceLocation": -38.681650866873,
      "SliceThickness": 2.0,
      "SmallestImagePixelValue": 0,
      "SoftwareVersions": "syngo MR E11",
      "SpacingBetweenSlices": 1.9999999392691,
      "SpecificCharacterSet": "ISO_IR 100",
      "StudyID": "1",
      "StudyTime": "090649.373000",
      "TransmitCoilName": "Body",
      "VariableFlipAngleFlag": "N",
      "WindowCenterWidthExplanation": "Algo1",
      "dBdt": 0.0},
    "slices": {}
  },
  "time": {
    "samples": {
      "AcquisitionNumber": [1, 2, 3, 4, 5, 6, 7, 8, 9, 10, 11, 12, 13, 14, 15, 16, 17, 18, 19, 20, 21, 22, 23, 24, 25, 26, 27, 28, 29, 30, 31, 32, 33, 34, 35, 36, 37, 38, 39, 40, 41, 42, 43, 44, 45, 46, 47, 48, 49, 50, 51, 52, 53, 54, 55, 56, 57, 58, 59, 60, 61, 62, 63, 64, 65, 66, 67, 68, 69, 70, 71, 72, 73, 74, 75, 76, 77, 78, 79, 80, 81, 82, 83, 84, 85, 86, 87, 88, 89, 90, 91, 92, 93, 94, 95, 96, 97, 98, 99, 100, 101, 102, 103, 104, 105, 106, 107, 108, 109, 110, 111, 112, 113, 114, 115, 116, 117, 118, 119, 120, 121, 122, 123, 124, 125, 126, 127, 128, 129],
      "AcquisitionTime": ["100711.762500", "100713.252500", "100714.742500", "100716.232500", "100717.722500", "100719.212500", "100720.702500", "100722.192500", "100723.682500", "100725.172500", "100726.662500", "100728.152500", "100729.642500", "100731.132500", "100732.622500", "100734.112500", "100735.602500", "100737.092500", "100738.582500", "100740.072500", "100741.562500", "100743.052500", "100744.542500", "100746.032500", "100747.522500", "100749.012500", "100750.502500", "100751.992500", "100753.482500", "100754.972500", "100756.462500", "100757.952500", "100759.442500", "100800.932500", "100802.422500", "100803.912500", "100805.402500", "100806.892500", "100808.382500", "100809.872500", "100811.362500", "100812.852500", "100814.342500", "100815.832500", "100817.322500", "100818.812500", "100820.302500", "100821.792500", "100823.282500", "100824.772500", "100826.262500", "100827.752500", "100829.242500", "100830.732500", "100832.222500", "100833.712500", "100835.202500", "100836.692500", "100838.182500", "100839.672500", "100841.162500", "100842.652500", "100844.142500", "100845.632500", "100847.122500", "100848.612500", "100850.102500", "100851.592500", "100853.082500", "100854.572500", "100856.062500", "100857.552500", "100859.042500", "100900.532500", "100902.022500", "100903.512500", "100905.002500", "100906.492500", "100907.982500", "100909.472500", "100910.962500", "100912.452500", "100913.942500", "100915.432500", "100916.922500", "100918.412500", "100919.902500", "100921.392500", "100922.882500", "100924.372500", "100925.862500", "100927.352500", "100928.842500", "100930.332500", "100931.822500", "100933.312500", "100934.802500", "100936.292500", "100937.782500", "100939.272500", "100940.762500", "100942.252500", "100943.742500", "100945.232500", "100946.722500", "100948.212500", "100949.702500", "100951.192500", "100952.682500", "100954.172500", "100955.662500", "100957.152500", "100958.642500", "101000.132500", "101001.622500", "101003.112500", "101004.602500", "101006.092500", "101007.582500", "101009.072500", "101010.562500", "101012.052500", "101013.542500", "101015.032500", "101016.522500", "101018.012500", "101019.502500", "101020.992500", "101022.482500"],
      "ContentTime": ["100839.514000", "100839.518000", "100839.531000", "100839.534000", "100839.537000", "100839.540000", "100839.543000", "100839.546000", "100839.548000", "100839.551000", "100839.554000", "100839.557000", "100839.560000", "100839.563000", "100839.566000", "100839.574000", "100839.577000", "100839.580000", "100839.583000", "100839.586000", "100839.589000", "100839.592000", "100839.595000", "100839.597000", "100839.600000", "100839.603000", "100839.610000", "100839.612000", "100839.615000", "100839.618000", "100839.622000", "100839.625000", "100839.628000", "100859.445000", "100859.458000", "100859.461000", "100859.464000", "100859.466000", "100859.469000", "100859.472000", "100859.475000", "100859.478000", "100859.481000", "100859.483000", "100859.486000", "100859.489000", "100859.492000", "100859.495000", "100859.498000", "100859.501000", "100859.503000", "100859.506000", "100859.509000", "100919.445000", "100919.455000", "100919.458000", "100919.461000", "100919.464000", "100919.467000", "100919.469000", "100919.472000", "100919.475000", "100919.478000", "100919.481000", "100919.484000", "100919.487000", "100919.490000", "100919.493000", "100919.495000", "100919.498000", "100919.501000", "100919.504000", "100919.507000", "100919.509000", "100939.445000", "100939.448000", "100939.451000", "100939.454000", "100939.457000", "100939.460000", "100939.462000", "100939.465000", "100939.468000", "100939.471000", "100939.474000", "100939.476000", "100939.479000", "100939.482000", "100939.485000", "100939.488000", "100939.491000", "100939.494000", "100939.497000", "100939.499000", "101019.445000", "101019.448000", "101019.451000", "101019.454000", "101019.457000", "101019.459000", "101019.462000", "101019.465000", "101019.468000", "101019.471000", "101019.474000", "101019.477000", "101019.479000", "101019.482000", "101019.485000", "101019.488000", "101019.491000", "101019.493000", "101019.496000", "101019.499000", "101019.502000", "101019.505000", "101019.508000", "101019.511000", "101019.513000", "101019.516000", "101019.519000", "101019.522000", "101019.525000", "101019.528000", "101019.530000", "101024.658000", "101024.661000", "101024.664000", "101024.671000"],
      "InstanceCreationTime": ["100839.514000", "100839.518000", "100839.531000", "100839.534000", "100839.537000", "100839.540000", "100839.543000", "100839.546000", "100839.548000", "100839.551000", "100839.554000", "100839.557000", "100839.560000", "100839.563000", "100839.566000", "100839.574000", "100839.577000", "100839.580000", "100839.583000", "100839.586000", "100839.589000", "100839.592000", "100839.595000", "100839.597000", "100839.600000", "100839.603000", "100839.610000", "100839.612000", "100839.615000", "100839.618000", "100839.622000", "100839.625000", "100839.628000", "100859.445000", "100859.458000", "100859.461000", "100859.464000", "100859.466000", "100859.469000", "100859.472000", "100859.475000", "100859.478000", "100859.481000", "100859.483000", "100859.486000", "100859.489000", "100859.492000", "100859.495000", "100859.498000", "100859.501000", "100859.503000", "100859.506000", "100859.509000", "100919.445000", "100919.455000", "100919.458000", "100919.461000", "100919.464000", "100919.467000", "100919.469000", "100919.472000", "100919.475000", "100919.478000", "100919.481000", "100919.484000", "100919.487000", "100919.490000", "100919.493000", "100919.495000", "100919.498000", "100919.501000", "100919.504000", "100919.507000", "100919.509000", "100939.445000", "100939.448000", "100939.451000", "100939.454000", "100939.457000", "100939.460000", "100939.462000", "100939.465000", "100939.468000", "100939.471000", "100939.474000", "100939.476000", "100939.479000", "100939.482000", "100939.485000", "100939.488000", "100939.491000", "100939.494000", "100939.497000", "100939.499000", "101019.445000", "101019.448000", "101019.451000", "101019.454000", "101019.457000", "101019.459000", "101019.462000", "101019.465000", "101019.468000", "101019.471000", "101019.474000", "101019.477000", "101019.479000", "101019.482000", "101019.485000", "101019.488000", "101019.491000", "101019.493000", "101019.496000", "101019.499000", "101019.502000", "101019.505000", "101019.508000", "101019.511000", "101019.513000", "101019.516000", "101019.519000", "101019.522000", "101019.525000", "101019.528000", "101019.530000", "101024.658000", "101024.661000", "101024.664000", "101024.671000"],
      "InstanceNumber": [1, 2, 3, 4, 5, 6, 7, 8, 9, 10, 11, 12, 13, 14, 15, 16, 17, 18, 19, 20, 21, 22, 23, 24, 25, 26, 27, 28, 29, 30, 31, 32, 33, 34, 35, 36, 37, 38, 39, 40, 41, 42, 43, 44, 45, 46, 47, 48, 49, 50, 51, 52, 53, 54, 55, 56, 57, 58, 59, 60, 61, 62, 63, 64, 65, 66, 67, 68, 69, 70, 71, 72, 73, 74, 75, 76, 77, 78, 79, 80, 81, 82, 83, 84, 85, 86, 87, 88, 89, 90, 91, 92, 93, 94, 95, 96, 97, 98, 99, 100, 101, 102, 103, 104, 105, 106, 107, 108, 109, 110, 111, 112, 113, 114, 115, 116, 117, 118, 119, 120, 121, 122, 123, 124, 125, 126, 127, 128, 129],
      "LargestImagePixelValue": [46699, 45648, 45202, 45036, 44470, 44215, 44344, 44304, 44231, 44323, 44573, 44204, 44522, 43995, 44191, 44000, 44323, 43600, 44134, 44266, 43790, 43742, 44049, 43917, 44116, 44043, 43942, 44143, 43585, 44880, 44011, 44040, 44492, 43983, 44583, 43777, 44057, 43716, 43808, 43913, 44039, 44023, 43279, 43865, 43642, 44067, 43468, 43982, 43761, 43936, 43753, 43907, 44167, 43666, 43764, 43629, 43667, 44047, 44169, 43814, 44059, 43324, 43573, 43053, 43315, 43506, 43772, 43673, 43749, 43311, 43632, 43395, 43749, 43678, 43691, 43715, 43668, 43073, 43681, 43591, 44095, 43355, 43461, 44258, 43242, 43533, 43697, 43394, 43277, 43713, 43603, 43313, 43688, 43641, 43571, 43688, 43453, 43975, 43753, 43626, 43499, 43900, 43805, 43769, 43782, 43533, 43994, 43588, 43622, 43482, 43818, 43685, 43773, 43486, 43899, 43833, 43558, 43396, 43143, 43965, 43394, 44281, 43813, 43777, 44034, 43500, 43433, 43351, 43901],
      "WindowCenter": [10069.0, 10031.0, 10015.0, 10014.0, 10006.0, 10006.0, 10005.0, 10000.0, 10013.0, 10016.0, 10020.0, 10021.0, 10014.0, 10008.0, 10007.0, 10006.0, 10003.0, 9997.0, 10004.0, 10005.0, 9996.0, 9999.0, 9998.0, 9998.0, 9998.0, 9996.0, 9999.0, 10004.0, 9999.0, 10003.0, 10005.0, 10001.0, 10005.0, 9999.0, 10003.0, 9993.0, 9998.0, 10006.0, 10010.0, 10001.0, 10005.0, 10000.0, 9994.0, 10000.0, 9992.0, 9997.0, 9994.0, 9990.0, 9989.0, 9989.0, 9998.0, 9991.0, 9996.0, 9986.0, 9990.0, 9992.0, 9983.0, 9988.0, 9991.0, 9990.0, 9997.0, 9984.0, 9991.0, 9993.0, 9994.0, 9994.0, 9991.0, 9992.0, 9984.0, 9977.0, 9973.0, 9974.0, 9981.0, 9976.0, 9981.0, 9981.0, 9975.0, 9984.0, 9981.0, 9983.0, 9989.0, 9983.0, 9984.0, 9987.0, 9984.0, 9984.0, 9984.0, 9991.0, 9985.0, 9997.0, 10001.0, 10002.0, 10001.0, 9993.0, 9985.0, 9989.0, 9983.0, 9987.0, 9988.0, 9982.0, 9983.0, 9989.0, 9989.0, 9990.0, 9990.0, 9983.0, 9997.0, 9991.0, 9992.0, 9991.0, 9992.0, 9997.0, 9998.0, 9992.0, 9990.0, 9984.0, 9990.0, 9992.0, 9994.0, 9993.0, 9993.0, 9997.0, 9992.0, 9991.0, 9989.0, 9992.0, 9999.0, 9985.0, 9984.0],
      "WindowWidth": [21554.0, 21444.0, 21387.0, 21377.0, 21356.0, 21355.0, 21350.0, 21340.0, 21364.0, 21371.0, 21374.0, 21378.0, 21364.0, 21352.0, 21350.0, 21347.0, 21337.0, 21327.0, 21342.0, 21345.0, 21325.0, 21333.0, 21330.0, 21329.0, 21331.0, 21324.0, 21330.0, 21340.0, 21332.0, 21341.0, 21345.0, 21341.0, 21346.0, 21333.0, 21340.0, 21323.0, 21331.0, 21348.0, 21360.0, 21339.0, 21346.0, 21337.0, 21326.0, 21333.0, 21319.0, 21329.0, 21324.0, 21314.0, 21309.0, 21311.0, 21330.0, 21315.0, 21324.0, 21307.0, 21311.0, 21318.0, 21298.0, 21307.0, 21316.0, 21316.0, 21328.0, 21302.0, 21318.0, 21323.0, 21322.0, 21322.0, 21314.0, 21316.0, 21297.0, 21283.0, 21272.0, 21274.0, 21290.0, 21283.0, 21288.0, 21288.0, 21277.0, 21297.0, 21290.0, 21296.0, 21306.0, 21297.0, 21301.0, 21303.0, 21300.0, 21299.0, 21300.0, 21315.0, 21304.0, 21327.0, 21338.0, 21342.0, 21338.0, 21319.0, 21303.0, 21309.0, 21297.0, 21300.0, 21304.0, 21292.0, 21297.0, 21308.0, 21310.0, 21310.0, 21311.0, 21295.0, 21323.0, 21313.0, 21316.0, 21312.0, 21315.0, 21324.0, 21329.0, 21316.0, 21312.0, 21299.0, 21311.0, 21320.0, 21323.0, 21320.0, 21321.0, 21325.0, 21315.0, 21311.0, 21306.0, 21315.0, 21329.0, 21300.0, 21294.0]
    },
    "slices": {}
  }
}