{
  "AcquisitionMatrixPE": 104,
  "AcquisitionNumber": 1,
  "AcquisitionTime": "10:01:46.685000",
  "BandwidthPerPixelPhaseEncode": 17.17,
  "BaseResolution": 104,
  "BodyPartExamined": "BRAIN",
  "CoilString": "HC1-7;NC1_2",
  "ConsistencyInfo": "N4_VE11C_LATEST_20160120",
  "ConversionSoftware": "dcm2niix",
  "ConversionSoftwareVersion": "v1.0.20200427",
  "DerivedVendorReportedEchoSpacing": 0.000560011,
  "DeviceSerialNumber": "167006",
  "DwellTime": 2.1e-06,
  "EchoTime": 0.037,
  "EchoTrainLength": 104,
  "EffectiveEchoSpacing": 0.000560011,
  "FlipAngle": 52,
  "ImageComments": "Unaliased_MB4_PE3_LB",
  "ImageOrientationPatientDICOM": [0.997271, -0.0136706, -0.0725554, -0.000696173, 0.980924, -0.19439],
  "ImageType": [
    "ORIGINAL",
    "PRIMARY",
    "M",
    "MB",
    "ND",
    "MOSAIC"
],
  "ImagingFrequency": 123.259,
  "InPlanePhaseEncodingDirectionDICOM": "COL",
  "InstitutionAddress": "Chemin_Queen-Mary_4565_Montreal_District_CA_H3W_1W5",
  "InstitutionName": "IUGM",
  "InstitutionalDepartmentName": "Department",
  "MRAcquisitionType": "2D",
  "MagneticFieldStrength": 3,
  "Manufacturer": "Siemens",
  "ManufacturersModelName": "Prisma_fit",
  "Modality": "MR",
  "MultibandAccelerationFactor": 4,
  "PartialFourier": 1,
  "PatientPosition": "HFS",
  "PercentPhaseFOV": 100,
  "PercentSampling": 100,
  "PhaseEncodingDirection": "j",
  "PhaseEncodingSteps": 104,
  "PhaseResolution": 1,
  "PixelBandwidth": 2290,
  "ProcedureStepDescription": "hcptrt_generic",
  "ProtocolName": "func_task-language_run-1",
  "PulseSequenceDetails": "%CustomerSeq%_cmrr_mbep2d_bold",
  "ReceiveCoilActiveElements": "HC1-7;NC1,2",
  "ReceiveCoilName": "HeadNeck_64",
  "ReconMatrixPE": 104,
  "RepetitionTime": 1.49,
  "SAR": 0.0283798,
  "ScanOptions": "FS",
  "ScanningSequence": "EP",
  "SequenceName": "epfid2d1_104",
  "SequenceVariant": "SK_SS",
  "SeriesDescription": "func_task-language_run-1",
  "SeriesNumber": 19,
  "ShimSetting": [592, -7254, -8850, 596, -82, -327, 28, 74],
  "SliceThickness": 2,
  "SliceTiming": [0, 0.7825, 0.0975, 0.88, 0.195, 0.98, 0.2925, 1.0775, 0.39, 1.175, 0.49, 1.2725, 0.5875, 1.37, 0.685, 0, 0.7825, 0.0975, 0.88, 0.195, 0.98, 0.2925, 1.0775, 0.39, 1.175, 0.49, 1.2725, 0.5875, 1.37, 0.685, 0, 0.7825, 0.0975, 0.88, 0.195, 0.98, 0.2925, 1.0775, 0.39, 1.175, 0.49, 1.2725, 0.5875, 1.37, 0.685, 0, 0.7825, 0.0975, 0.88, 0.195, 0.98, 0.2925, 1.0775, 0.39, 1.175, 0.49, 1.2725, 0.5875, 1.37, 0.685],
  "SoftwareVersions": "syngo_MR_E11",
  "SpacingBetweenSlices": 2,
  "StationName": "MRC35049",
  "TaskName": "language",
  "TotalReadoutTime": 0.0576811,
  "TxRefAmp": 213.954,
  "WipMemBlock": "86534b0a-b907-4341-8afa-23d296045767||Sequence: R016 ve11c/master r/e634e98; Dec 19 2017 11:00:25 by eja",
  "dcmmeta_affine": [
    [-1.9945414066314697, -0.001392345642670989, -0.14765749871730804, 106.0771713256836],
    [0.027341123670339584, 1.9618481397628784, -0.3878202736377716, -76.58866119384766],
    [-0.14511078596115112, 0.3887803554534912, 1.9564745426177979, -46.718135833740234],
    [0.0, 0.0, 0.0, 1.0]
],
  "dcmmeta_reorient_transform": [
    [0.0, -1.0, 0.0, 103.0],
    [1.0, 0.0, 0.0, 0.0],
    [0.0, 0.0, 1.0, 0.0],
    [0.0, 0.0, 0.0, 1.0]
],
  "dcmmeta_shape": [104, 104, 60, 159],
  "dcmmeta_slice_dim": 2,
  "dcmmeta_version": 0.6,
  "global": {
    "const": {
      "AcquisitionMatrix": [104, 0, 0, 104],
      "AngioFlag": "N",
      "BitsAllocated": 16,
      "BitsStored": 16,
      "BodyPartExamined": "BRAIN",
      "Columns": 832,
      "EchoNumbers": 1,
      "EchoTime": 37.0,
      "EchoTrainLength": 104,
      "FlipAngle": 52.0,
      "HighBit": 15,
      "ImageOrientationPatient": [0.99727069095489, -0.0136705614304, -0.0725553906511, -0.0006961728264, 0.98092404140789, -0.1943901755013],
      "ImagePositionPatient": [-831.44000762783, -829.64222444283, 187.66261103262],
      "ImageType": [
        "ORIGINAL",
        "PRIMARY",
        "M",
        "MB",
        "ND",
        "MOSAIC"
],
      "ImagedNucleus": "1H",
      "ImagingFrequency": 123.259069,
      "InPlanePhaseEncodingDirection": "COL",
      "MRAcquisitionType": "2D",
      "MagneticFieldStrength": 3.0,
      "Manufacturer": "SIEMENS",
      "ManufacturerModelName": "Prisma_fit",
      "Modality": "MR",
      "NumberOfAverages": 1.0,
      "NumberOfPhaseEncodingSteps": 104,
      "PercentPhaseFieldOfView": 100.0,
      "PercentSampling": 100.0,
      "PerformedProcedureStepStartTime": "090649.503000",
      "PhotometricInterpretation": "MONOCHROME2",
      "PixelBandwidth": 2290.0,
      "PixelRepresentation": 0,
      "PixelSpacing": [2.0, 2.0],
      "ProtocolName": "func_task-language_run-1",
      "RepetitionTime": 1490.0,
      "Rows": 832,
      "SAR": 0.02837976647572,
      "SamplesPerPixel": 1,
      "ScanOptions": "FS",
      "ScanningSequence": "EP",
      "SequenceName": "epfid2d1_104",
      "SequenceVariant": [
        "SK",
        "SS"
],
      "SeriesDescription": "func_task-language_run-1",
      "SeriesNumber": 19,
      "SeriesTime": "100302.305000",
      "SliceLocation": -38.681650617763,
      "SliceThickness": 2.0,
      "SmallestImagePixelValue": 0,
      "SoftwareVersions": "syngo MR E11",
      "SpacingBetweenSlices": 1.9999999392691,
      "SpecificCharacterSet": "ISO_IR 100",
      "StudyID": "1",
      "StudyTime": "090649.373000",
      "TransmitCoilName": "Body",
      "VariableFlipAngleFlag": "N",
      "WindowCenterWidthExplanation": "Algo1",
      "dBdt": 0.0},
    "slices": {}
  },
  "time": {
    "samples": {
      "AcquisitionNumber": [1, 2, 3, 4, 5, 6, 7, 8, 9, 10, 11, 12, 13, 14, 15, 16, 17, 18, 19, 20, 21, 22, 23, 24, 25, 26, 27, 28, 29, 30, 31, 32, 33, 34, 35, 36, 37, 38, 39, 40, 41, 42, 43, 44, 45, 46, 47, 48, 49, 50, 51, 52, 53, 54, 55, 56, 57, 58, 59, 60, 61, 62, 63, 64, 65, 66, 67, 68, 69, 70, 71, 72, 73, 74, 75, 76, 77, 78, 79, 80, 81, 82, 83, 84, 85, 86, 87, 88, 89, 90, 91, 92, 93, 94, 95, 96, 97, 98, 99, 100, 101, 102, 103, 104, 105, 106, 107, 108, 109, 110, 111, 112, 113, 114, 115, 116, 117, 118, 119, 120, 121, 122, 123, 124, 125, 126, 127, 128, 129, 130, 131, 132, 133, 134, 135, 136, 137, 138, 139, 140, 141, 142, 143, 144, 145, 146, 147, 148, 149, 150, 151, 152, 153, 154, 155, 156, 157, 158, 159],
      "AcquisitionTime": ["100146.685000", "100148.175000", "100149.665000", "100151.155000", "100152.645000", "100154.135000", "100155.625000", "100157.115000", "100158.605000", "100200.095000", "100201.585000", "100203.075000", "100204.565000", "100206.055000", "100207.545000", "100209.035000", "100210.525000", "100212.015000", "100213.505000", "100214.995000", "100216.485000", "100217.975000", "100219.465000", "100220.955000", "100222.445000", "100223.935000", "100225.425000", "100226.915000", "100228.405000", "100229.895000", "100231.385000", "100232.875000", "100234.365000", "100235.855000", "100237.345000", "100238.835000", "100240.325000", "100241.815000", "100243.305000", "100244.795000", "100246.285000", "100247.775000", "100249.265000", "100250.755000", "100252.245000", "100253.735000", "100255.225000", "100256.715000", "100258.205000", "100259.695000", "100301.185000", "100302.675000", "100304.165000", "100305.655000", "100307.145000", "100308.635000", "100310.125000", "100311.615000", "100313.105000", "100314.595000", "100316.085000", "100317.575000", "100319.065000", "100320.555000", "100322.045000", "100323.535000", "100325.025000", "100326.515000", "100328.005000", "100329.495000", "100330.985000", "100332.475000", "100333.965000", "100335.455000", "100336.945000", "100338.435000", "100339.925000", "100341.415000", "100342.905000", "100344.395000", "100345.885000", "100347.375000", "100348.865000", "100350.355000", "100351.845000", "100353.335000", "100354.825000", "100356.315000", "100357.805000", "100359.295000", "100400.785000", "100402.275000", "100403.765000", "100405.255000", "100406.745000", "100408.235000", "100409.725000", "100411.215000", "100412.705000", "100414.195000", "100415.685000", "100417.175000", "100418.665000", "100420.155000", "100421.645000", "100423.135000", "100424.625000", "100426.115000", "100427.605000", "100429.095000", "100430.585000", "100432.075000", "100433.565000", "100435.055000", "100436.545000", "100438.035000", "100439.525000", "100441.015000", "100442.505000", "100443.995000", "100445.485000", "100446.975000", "100448.465000", "100449.955000", "100451.445000", "100452.935000", "100454.425000", "100455.915000", "100457.405000", "100458.895000", "100500.385000", "100501.875000", "100503.365000", "100504.855000", "100506.345000", "100507.835000", "100509.325000", "100510.815000", "100512.305000", "100513.795000", "100515.285000", "100516.775000", "100518.265000", "100519.755000", "100521.245000", "100522.735000", "100524.225000", "100525.715000", "100527.205000", "100528.695000", "100530.185000", "100531.675000", "100533.165000", "100534.655000", "100536.145000", "100537.635000", "100539.125000", "100540.615000", "100542.105000"],
      "ContentTime": ["100302.307000", "100302.311000", "100302.314000", "100302.317000", "100302.325000", "100302.328000", "100302.331000", "100302.334000", "100302.337000", "100302.339000", "100302.342000", "100302.345000", "100302.348000", "100302.351000", "100302.354000", "100302.357000", "100302.359000", "100302.362000", "100302.365000", "100302.368000", "100322.278000", "100322.288000", "100322.291000", "100322.294000", "100322.297000", "100322.300000", "100322.303000", "100322.306000", "100322.308000", "100322.311000", "100322.314000", "100322.317000", "100322.320000", "100322.323000", "100322.326000", "100322.328000", "100322.331000", "100322.334000", "100322.337000", "100322.340000", "100342.278000", "100342.281000", "100342.284000", "100342.287000", "100342.290000", "100342.293000", "100342.296000", "100342.299000", "100342.302000", "100342.304000", "100342.307000", "100342.310000", "100342.313000", "100342.316000", "100342.319000", "100342.322000", "100342.329000", "100342.332000", "100342.335000", "100342.338000", "100402.279000", "100402.282000", "100402.285000", "100402.288000", "100402.291000", "100402.293000", "100402.296000", "100402.299000", "100402.302000", "100402.305000", "100402.308000", "100402.311000", "100402.313000", "100402.316000", "100402.319000", "100402.322000", "100402.325000", "100402.328000", "100402.331000", "100402.334000", "100402.336000", "100422.279000", "100422.282000", "100422.285000", "100422.288000", "100422.290000", "100422.293000", "100422.296000", "100422.299000", "100422.302000", "100422.321000", "100422.324000", "100422.327000", "100422.330000", "100422.332000", "100422.335000", "100422.338000", "100422.341000", "100422.344000", "100422.347000", "100422.350000", "100502.278000", "100502.281000", "100502.284000", "100502.287000", "100502.290000", "100502.292000", "100502.295000", "100502.298000", "100502.301000", "100502.304000", "100502.307000", "100502.310000", "100502.313000", "100502.316000", "100502.318000", "100502.321000", "100502.324000", "100502.327000", "100502.330000", "100502.333000", "100502.336000", "100502.339000", "100502.342000", "100502.344000", "100502.347000", "100502.350000", "100502.353000", "100502.356000", "100502.359000", "100542.278000", "100542.281000", "100542.284000", "100542.287000", "100542.290000", "100542.293000", "100542.295000", "100542.298000", "100542.301000", "100542.304000", "100542.307000", "100542.310000", "100542.313000", "100542.315000", "100542.318000", "100542.321000", "100542.324000", "100542.327000", "100542.330000", "100542.333000", "100542.335000", "100542.338000", "100542.341000", "100542.344000", "100542.347000", "100542.350000", "100542.353000", "100544.657000", "100544.660000"],
      "InstanceCreationTime": ["100302.307000", "100302.311000", "100302.314000", "100302.317000", "100302.325000", "100302.328000", "100302.331000", "100302.334000", "100302.337000", "100302.339000", "100302.342000", "100302.345000", "100302.348000", "100302.351000", "100302.354000", "100302.357000", "100302.359000", "100302.362000", "100302.365000", "100302.368000", "100322.278000", "100322.288000", "100322.291000", "100322.294000", "100322.297000", "100322.300000", "100322.303000", "100322.306000", "100322.308000", "100322.311000", "100322.314000", "100322.317000", "100322.320000", "100322.323000", "100322.326000", "100322.328000", "100322.331000", "100322.334000", "100322.337000", "100322.340000", "100342.278000", "100342.281000", "100342.284000", "100342.287000", "100342.290000", "100342.293000", "100342.296000", "100342.299000", "100342.302000", "100342.304000", "100342.307000", "100342.310000", "100342.313000", "100342.316000", "100342.319000", "100342.322000", "100342.329000", "100342.332000", "100342.335000", "100342.338000", "100402.279000", "100402.282000", "100402.285000", "100402.288000", "100402.291000", "100402.293000", "100402.296000", "100402.299000", "100402.302000", "100402.305000", "100402.308000", "100402.311000", "100402.313000", "100402.316000", "100402.319000", "100402.322000", "100402.325000", "100402.328000", "100402.331000", "100402.334000", "100402.336000", "100422.279000", "100422.282000", "100422.285000", "100422.288000", "100422.290000", "100422.293000", "100422.296000", "100422.299000", "100422.302000", "100422.321000", "100422.324000", "100422.327000", "100422.330000", "100422.332000", "100422.335000", "100422.338000", "100422.341000", "100422.344000", "100422.347000", "100422.350000", "100502.278000", "100502.281000", "100502.284000", "100502.287000", "100502.290000", "100502.292000", "100502.295000", "100502.298000", "100502.301000", "100502.304000", "100502.307000", "100502.310000", "100502.313000", "100502.316000", "100502.318000", "100502.321000", "100502.324000", "100502.327000", "100502.330000", "100502.333000", "100502.336000", "100502.339000", "100502.342000", "100502.344000", "100502.347000", "100502.350000", "100502.353000", "100502.356000", "100502.359000", "100542.278000", "100542.281000", "100542.284000", "100542.287000", "100542.290000", "100542.293000", "100542.295000", "100542.298000", "100542.301000", "100542.304000", "100542.307000", "100542.310000", "100542.313000", "100542.315000", "100542.318000", "100542.321000", "100542.324000", "100542.327000", "100542.330000", "100542.333000", "100542.335000", "100542.338000", "100542.341000", "100542.344000", "100542.347000", "100542.350000", "100542.353000", "100544.657000", "100544.660000"],
      "InstanceNumber": [1, 2, 3, 4, 5, 6, 7, 8, 9, 10, 11, 12, 13, 14, 15, 16, 17, 18, 19, 20, 21, 22, 23, 24, 25, 26, 27, 28, 29, 30, 31, 32, 33, 34, 35, 36, 37, 38, 39, 40, 41, 42, 43, 44, 45, 46, 47, 48, 49, 50, 51, 52, 53, 54, 55, 56, 57, 58, 59, 60, 61, 62, 63, 64, 65, 66, 67, 68, 69, 70, 71, 72, 73, 74, 75, 76, 77, 78, 79, 80, 81, 82, 83, 84, 85, 86, 87, 88, 89, 90, 91, 92, 93, 94, 95, 96, 97, 98, 99, 100, 101, 102, 103, 104, 105, 106, 107, 108, 109, 110, 111, 112, 113, 114, 115, 116, 117, 118, 119, 120, 121, 122, 123, 124, 125, 126, 127, 128, 129, 130, 131, 132, 133, 134, 135, 136, 137, 138, 139, 140, 141, 142, 143, 144, 145, 146, 147, 148, 149, 150, 151, 152, 153, 154, 155, 156, 157, 158, 159],
      "LargestImagePixelValue": [45140, 43579, 42850, 42949, 42694, 42506, 42274, 42124, 42259, 42201, 42194, 42100, 42304, 42081, 42607, 41874, 42172, 41984, 42132, 42448, 42219, 42525, 42078, 42597, 42437, 42181, 42480, 42263, 42188, 42171, 42303, 42613, 42066, 42189, 42420, 41861, 42457, 41755, 42543, 42214, 42397, 42326, 41955, 42266, 42060, 42058, 42122, 42438, 42095, 42336, 42365, 42099, 42536, 42059, 42108, 42583, 42185, 42490, 42713, 43069, 42261, 42346, 43073, 42388, 42873, 42835, 42320, 42887, 42078, 42395, 42495, 42438, 42427, 42137, 42326, 42501, 41948, 42252, 42476, 42543, 42803, 42077, 42384, 42043, 42610, 42166, 42149, 42286, 42279, 42298, 42292, 42162, 42571, 41956, 42234, 42740, 41870, 42296, 42320, 42506, 41982, 42518, 41961, 41879, 42004, 41775, 42079, 41980, 42463, 42193, 42365, 42316, 42388, 42168, 41919, 42092, 41912, 42478, 42011, 42124, 42085, 41843, 42311, 42070, 42246, 42093, 42427, 42542, 42009, 42638, 42257, 42730, 41718, 42052, 42131, 41948, 41883, 41778, 41829, 42069, 42982, 42203, 42227, 42343, 41872, 42811, 42155, 42435, 42417, 42062, 42638, 42249, 42876, 42472, 42325, 42647, 42192, 42569, 42278],
      "WindowCenter": [10091.0, 10068.0, 10039.0, 10027.0, 10007.0, 9999.0, 9982.0, 9986.0, 9985.0, 9986.0, 9987.0, 9987.0, 9985.0, 9983.0, 9991.0, 9983.0, 9993.0, 9977.0, 9976.0, 9988.0, 9991.0, 9988.0, 9973.0, 9985.0, 9980.0, 9974.0, 9979.0, 9981.0, 9988.0, 9982.0, 9980.0, 9972.0, 9964.0, 9968.0, 9974.0, 9966.0, 9972.0, 9966.0, 9978.0, 9964.0, 9956.0, 9963.0, 9956.0, 9965.0, 9963.0, 9964.0, 9961.0, 9962.0, 9964.0, 9970.0, 9972.0, 9964.0, 9963.0, 9960.0, 9970.0, 9962.0, 9958.0, 9967.0, 9961.0, 9975.0, 9967.0, 9975.0, 9981.0, 9970.0, 9974.0, 9981.0, 9979.0, 9976.0, 9970.0, 9969.0, 9969.0, 9968.0, 9976.0, 9970.0, 9986.0, 9986.0, 9980.0, 9976.0, 9972.0, 9973.0, 9986.0, 9979.0, 9973.0, 9962.0, 9970.0, 9962.0, 9963.0, 9963.0, 9961.0, 9954.0, 9949.0, 9964.0, 9962.0, 9965.0, 9965.0, 9966.0, 9965.0, 9965.0, 9979.0, 9979.0, 9961.0, 9961.0, 9940.0, 9942.0, 9934.0, 9919.0, 9917.0, 9919.0, 9937.0, 9949.0, 9952.0, 9959.0, 9970.0, 9970.0, 9964.0, 9961.0, 9947.0, 9964.0, 9962.0, 9963.0, 9970.0, 9968.0, 9972.0, 9973.0, 9974.0, 9965.0, 9977.0, 9971.0, 9975.0, 9989.0, 9982.0, 9989.0, 9976.0, 9981.0, 9974.0, 9973.0, 9972.0, 9975.0, 9973.0, 9960.0, 9969.0, 9965.0, 9964.0, 9973.0, 9971.0, 9979.0, 9971.0, 9969.0, 9964.0, 9957.0, 9978.0, 9980.0, 9978.0, 9971.0, 9971.0, 9961.0, 9959.0, 9959.0, 9960.0],
      "WindowWidth": [21606.0, 21531.0, 21450.0, 21411.0, 21360.0, 21338.0, 21300.0, 21309.0, 21304.0, 21304.0, 21308.0, 21308.0, 21305.0, 21300.0, 21318.0, 21303.0, 21321.0, 21290.0, 21284.0, 21306.0, 21316.0, 21311.0, 21279.0, 21303.0, 21290.0, 21277.0, 21289.0, 21298.0, 21312.0, 21299.0, 21296.0, 21278.0, 21259.0, 21264.0, 21275.0, 21264.0, 21275.0, 21265.0, 21288.0, 21259.0, 21240.0, 21255.0, 21242.0, 21261.0, 21254.0, 21257.0, 21251.0, 21251.0, 21256.0, 21269.0, 21277.0, 21257.0, 21255.0, 21248.0, 21271.0, 21254.0, 21243.0, 21260.0, 21251.0, 21278.0, 21265.0, 21280.0, 21292.0, 21272.0, 21278.0, 21294.0, 21293.0, 21286.0, 21274.0, 21270.0, 21273.0, 21269.0, 21285.0, 21275.0, 21307.0, 21308.0, 21296.0, 21289.0, 21282.0, 21282.0, 21308.0, 21294.0, 21280.0, 21253.0, 21270.0, 21253.0, 21255.0, 21256.0, 21251.0, 21238.0, 21227.0, 21257.0, 21253.0, 21263.0, 21263.0, 21264.0, 21261.0, 21264.0, 21296.0, 21293.0, 21253.0, 21249.0, 21208.0, 21207.0, 21188.0, 21157.0, 21153.0, 21162.0, 21197.0, 21224.0, 21232.0, 21245.0, 21272.0, 21274.0, 21263.0, 21254.0, 21224.0, 21257.0, 21258.0, 21259.0, 21275.0, 21270.0, 21279.0, 21281.0, 21284.0, 21264.0, 21287.0, 21275.0, 21287.0, 21315.0, 21303.0, 21316.0, 21288.0, 21296.0, 21284.0, 21283.0, 21277.0, 21283.0, 21277.0, 21253.0, 21266.0, 21263.0, 21261.0, 21280.0, 21274.0, 21292.0, 21276.0, 21269.0, 21261.0, 21248.0, 21291.0, 21296.0, 21289.0, 21274.0, 21274.0, 21252.0, 21249.0, 21246.0, 21250.0]
    },
    "slices": {}
  }
}