{
  "AcquisitionMatrixPE": 104,
  "AcquisitionNumber": 1,
  "AcquisitionTime": "15:28:54.192500",
  "BandwidthPerPixelPhaseEncode": 17.17,
  "BaseResolution": 104,
  "BodyPartExamined": "BRAIN",
  "CoilString": "HC1-7;NC1_2",
  "ConsistencyInfo": "N4_VE11C_LATEST_20160120",
  "ConversionSoftware": "dcm2niix",
  "ConversionSoftwareVersion": "v1.0.20200427",
  "DerivedVendorReportedEchoSpacing": 0.000560011,
  "DeviceSerialNumber": "167006",
  "DwellTime": 2.1e-06,
  "EchoTime": 0.037,
  "EchoTrainLength": 104,
  "EffectiveEchoSpacing": 0.000560011,
  "FlipAngle": 52,
  "ImageComments": "Unaliased_MB4_PE3_LB",
  "ImageOrientationPatientDICOM": [0.998213, -0.0594349, -0.00622382, 0.0531876, 0.931083, -0.36091],
  "ImageType": [
    "ORIGINAL",
    "PRIMARY",
    "M",
    "MB",
    "ND",
    "MOSAIC"
],
  "ImagingFrequency": 123.259,
  "InPlanePhaseEncodingDirectionDICOM": "COL",
  "InstitutionAddress": "Chemin_Queen-Mary_4565_Montreal_District_CA_H3W_1W5",
  "InstitutionName": "IUGM",
  "InstitutionalDepartmentName": "Department",
  "MRAcquisitionType": "2D",
  "MagneticFieldStrength": 3,
  "Manufacturer": "Siemens",
  "ManufacturersModelName": "Prisma_fit",
  "Modality": "MR",
  "MultibandAccelerationFactor": 4,
  "PartialFourier": 1,
  "PatientPosition": "HFS",
  "PercentPhaseFOV": 100,
  "PercentSampling": 100,
  "PhaseEncodingDirection": "j",
  "PhaseEncodingSteps": 104,
  "PhaseResolution": 1,
  "PixelBandwidth": 2290,
  "ProcedureStepDescription": "hcptrt_generic",
  "ProtocolName": "func_task-social_run-1",
  "PulseSequenceDetails": "%CustomerSeq%_cmrr_mbep2d_bold",
  "ReceiveCoilActiveElements": "HC1-7;NC1,2",
  "ReceiveCoilName": "HeadNeck_64",
  "ReconMatrixPE": 104,
  "RepetitionTime": 1.49,
  "SAR": 0.0303566,
  "ScanOptions": "FS",
  "ScanningSequence": "EP",
  "SequenceName": "epfid2d1_104",
  "SequenceVariant": "SK_SS",
  "SeriesDescription": "func_task-social_run-1",
  "SeriesNumber": 23,
  "ShimSetting": [628, -7268, -8817, 602, -7, -214, -75, -7],
  "SliceThickness": 2,
  "SliceTiming": [0, 0.785, 0.0975, 0.8825, 0.195, 0.98, 0.295, 1.0775, 0.3925, 1.175, 0.49, 1.275, 0.5875, 1.3725, 0.685, 0, 0.785, 0.0975, 0.8825, 0.195, 0.98, 0.295, 1.0775, 0.3925, 1.175, 0.49, 1.275, 0.5875, 1.3725, 0.685, 0, 0.785, 0.0975, 0.8825, 0.195, 0.98, 0.295, 1.0775, 0.3925, 1.175, 0.49, 1.275, 0.5875, 1.3725, 0.685, 0, 0.785, 0.0975, 0.8825, 0.195, 0.98, 0.295, 1.0775, 0.3925, 1.175, 0.49, 1.275, 0.5875, 1.3725, 0.685],
  "SoftwareVersions": "syngo_MR_E11",
  "SpacingBetweenSlices": 2,
  "StationName": "MRC35049",
  "TaskName": "social",
  "TotalReadoutTime": 0.0576811,
  "TxRefAmp": 217.88,
  "WipMemBlock": "c125a428-13d5-454e-9490-e0f308dd3c8c||Sequence: R016 ve11c/master r/e634e98; Dec 19 2017 11:00:25 by eja",
  "dcmmeta_affine": [
    [-1.9964255094528198, 0.10637523978948593, -0.054491087794303894, 102.3814697265625],
    [0.11886978894472122, 1.8621654510498047, -0.719868004322052, -67.49457550048828],
    [-0.012447641231119633, 0.7218201160430908, 1.8651597499847412, -60.90363311767578],
    [0.0, 0.0, 0.0, 1.0]
],
  "dcmmeta_reorient_transform": [
    [0.0, -1.0, 0.0, 103.0],
    [1.0, 0.0, 0.0, 0.0],
    [0.0, 0.0, 1.0, 0.0],
    [0.0, 0.0, 0.0, 1.0]
],
  "dcmmeta_shape": [104, 104, 60, 139],
  "dcmmeta_slice_dim": 2,
  "dcmmeta_version": 0.6,
  "global": {
    "const": {
      "AcquisitionMatrix": [104, 0, 0, 104],
      "AngioFlag": "N",
      "BitsAllocated": 16,
      "BitsStored": 16,
      "BodyPartExamined": "BRAIN",
      "Columns": 832,
      "EchoNumbers": 1,
      "EchoTime": 37.0,
      "EchoTrainLength": 104,
      "FlipAngle": 52.0,
      "HighBit": 15,
      "ImageOrientationPatient": [0.99821278158457, -0.0594348949724, -0.0062238204351, 0.05318762142946, 0.93108270730862, -0.3609100567697],
      "ImagePositionPatient": [-878.75761534727, -758.86807291182, 280.71730104129],
      "ImageType": [
        "ORIGINAL",
        "PRIMARY",
        "M",
        "MB",
        "ND",
        "MOSAIC"
],
      "ImagedNucleus": "1H",
      "ImagingFrequency": 123.259025,
      "InPlanePhaseEncodingDirection": "COL",
      "MRAcquisitionType": "2D",
      "MagneticFieldStrength": 3.0,
      "Manufacturer": "SIEMENS",
      "ManufacturerModelName": "Prisma_fit",
      "Modality": "MR",
      "NumberOfAverages": 1.0,
      "NumberOfPhaseEncodingSteps": 104,
      "PercentPhaseFieldOfView": 100.0,
      "PercentSampling": 100.0,
      "PerformedProcedureStepStartTime": "142650.176000",
      "PhotometricInterpretation": "MONOCHROME2",
      "PixelBandwidth": 2290.0,
      "PixelRepresentation": 0,
      "PixelSpacing": [2.0, 2.0],
      "ProtocolName": "func_task-social_run-1",
      "RepetitionTime": 1490.0,
      "Rows": 832,
      "SAR": 0.03035655234354,
      "SamplesPerPixel": 1,
      "ScanOptions": "FS",
      "ScanningSequence": "EP",
      "SequenceName": "epfid2d1_104",
      "SequenceVariant": [
        "SK",
        "SS"
],
      "SeriesDescription": "func_task-social_run-1",
      "SeriesNumber": 23,
      "SeriesTime": "153001.967000",
      "SliceLocation": -35.29334911375,
      "SliceThickness": 2.0,
      "SmallestImagePixelValue": 0,
      "SoftwareVersions": "syngo MR E11",
      "SpacingBetweenSlices": 2.0000000502901,
      "SpecificCharacterSet": "ISO_IR 100",
      "StudyID": "1",
      "StudyTime": "142650.058000",
      "TransmitCoilName": "Body",
      "VariableFlipAngleFlag": "N",
      "WindowCenterWidthExplanation": "Algo1",
      "dBdt": 0.0},
    "slices": {}
  },
  "time": {
    "samples": {
      "AcquisitionNumber": [1, 2, 3, 4, 5, 6, 7, 8, 9, 10, 11, 12, 13, 14, 15, 16, 17, 18, 19, 20, 21, 22, 23, 24, 25, 26, 27, 28, 29, 30, 31, 32, 33, 34, 35, 36, 37, 38, 39, 40, 41, 42, 43, 44, 45, 46, 47, 48, 49, 50, 51, 52, 53, 54, 55, 56, 57, 58, 59, 60, 61, 62, 63, 64, 65, 66, 67, 68, 69, 70, 71, 72, 73, 74, 75, 76, 77, 78, 79, 80, 81, 82, 83, 84, 85, 86, 87, 88, 89, 90, 91, 92, 93, 94, 95, 96, 97, 98, 99, 100, 101, 102, 103, 104, 105, 106, 107, 108, 109, 110, 111, 112, 113, 114, 115, 116, 117, 118, 119, 120, 121, 122, 123, 124, 125, 126, 127, 128, 129, 130, 131, 132, 133, 134, 135, 136, 137, 138, 139],
      "AcquisitionTime": ["152854.192500", "152855.682500", "152857.172500", "152858.662500", "152900.152500", "152901.642500", "152903.132500", "152904.622500", "152906.112500", "152907.602500", "152909.092500", "152910.582500", "152912.072500", "152913.562500", "152915.052500", "152916.542500", "152918.032500", "152919.522500", "152921.012500", "152922.502500", "152923.992500", "152925.482500", "152926.972500", "152928.462500", "152929.952500", "152931.442500", "152932.932500", "152934.422500", "152935.912500", "152937.402500", "152938.892500", "152940.382500", "152941.872500", "152943.362500", "152944.852500", "152946.342500", "152947.832500", "152949.322500", "152950.812500", "152952.302500", "152953.792500", "152955.282500", "152956.772500", "152958.262500", "152959.752500", "153001.242500", "153002.732500", "153004.222500", "153005.712500", "153007.202500", "153008.692500", "153010.182500", "153011.672500", "153013.162500", "153014.652500", "153016.142500", "153017.632500", "153019.122500", "153020.612500", "153022.102500", "153023.592500", "153025.082500", "153026.572500", "153028.062500", "153029.552500", "153031.042500", "153032.532500", "153034.022500", "153035.512500", "153037.002500", "153038.492500", "153039.982500", "153041.472500", "153042.962500", "153044.452500", "153045.942500", "153047.432500", "153048.922500", "153050.412500", "153051.902500", "153053.392500", "153054.882500", "153056.372500", "153057.862500", "153059.352500", "153100.842500", "153102.332500", "153103.822500", "153105.312500", "153106.802500", "153108.292500", "153109.782500", "153111.272500", "153112.762500", "153114.252500", "153115.742500", "153117.232500", "153118.722500", "153120.212500", "153121.702500", "153123.192500", "153124.682500", "153126.172500", "153127.662500", "153129.152500", "153130.642500", "153132.132500", "153133.622500", "153135.112500", "153136.602500", "153138.092500", "153139.582500", "153141.072500", "153142.562500", "153144.052500", "153145.542500", "153147.032500", "153148.522500", "153150.012500", "153151.502500", "153152.992500", "153154.482500", "153155.972500", "153157.462500", "153158.952500", "153200.442500", "153201.932500", "153203.422500", "153204.912500", "153206.402500", "153207.892500", "153209.382500", "153210.872500", "153212.362500", "153213.852500", "153215.342500", "153216.832500", "153218.322500", "153219.812500"],
      "ContentTime": ["153001.969000", "153001.986000", "153001.988000", "153001.991000", "153001.994000", "153001.997000", "153002.000000", "153002.002000", "153002.005000", "153002.008000", "153002.011000", "153002.020000", "153002.023000", "153002.026000", "153021.936000", "153021.939000", "153021.942000", "153021.945000", "153021.947000", "153021.950000", "153021.953000", "153021.956000", "153021.959000", "153021.962000", "153021.964000", "153021.967000", "153021.970000", "153021.973000", "153021.976000", "153021.978000", "153021.985000", "153021.988000", "153021.991000", "153021.994000", "153041.936000", "153041.939000", "153041.942000", "153041.945000", "153041.948000", "153041.951000", "153041.953000", "153041.956000", "153041.959000", "153041.962000", "153041.965000", "153041.967000", "153041.970000", "153041.973000", "153041.976000", "153041.979000", "153041.993000", "153041.996000", "153042.000000", "153042.003000", "153101.937000", "153101.940000", "153101.943000", "153101.946000", "153101.948000", "153101.951000", "153101.954000", "153101.957000", "153101.960000", "153101.963000", "153101.965000", "153101.968000", "153101.971000", "153101.974000", "153101.977000", "153101.980000", "153101.983000", "153101.986000", "153101.989000", "153101.991000", "153121.937000", "153121.940000", "153121.943000", "153121.946000", "153121.948000", "153121.951000", "153121.954000", "153121.957000", "153121.960000", "153121.963000", "153121.965000", "153121.968000", "153121.971000", "153121.974000", "153121.977000", "153121.980000", "153121.983000", "153121.985000", "153121.988000", "153121.991000", "153121.994000", "153201.937000", "153201.940000", "153201.943000", "153201.946000", "153201.949000", "153201.951000", "153201.954000", "153201.957000", "153201.960000", "153201.963000", "153201.965000", "153201.981000", "153201.984000", "153201.986000", "153201.989000", "153201.992000", "153201.995000", "153201.998000", "153202.002000", "153202.005000", "153202.007000", "153202.010000", "153202.013000", "153202.016000", "153202.019000", "153202.022000", "153202.025000", "153202.027000", "153202.030000", "153202.033000", "153221.646000", "153221.650000", "153221.653000", "153221.656000", "153221.659000", "153221.662000", "153221.665000", "153221.668000", "153221.677000", "153221.680000", "153221.683000", "153221.686000", "153221.689000", "153221.692000"],
      "InstanceCreationTime": ["153001.969000", "153001.986000", "153001.988000", "153001.991000", "153001.994000", "153001.997000", "153002.000000", "153002.002000", "153002.005000", "153002.008000", "153002.011000", "153002.020000", "153002.023000", "153002.026000", "153021.936000", "153021.939000", "153021.942000", "153021.945000", "153021.947000", "153021.950000", "153021.953000", "153021.956000", "153021.959000", "153021.962000", "153021.964000", "153021.967000", "153021.970000", "153021.973000", "153021.976000", "153021.978000", "153021.985000", "153021.988000", "153021.991000", "153021.994000", "153041.936000", "153041.939000", "153041.942000", "153041.945000", "153041.948000", "153041.951000", "153041.953000", "153041.956000", "153041.959000", "153041.962000", "153041.965000", "153041.967000", "153041.970000", "153041.973000", "153041.976000", "153041.979000", "153041.993000", "153041.996000", "153042.000000", "153042.003000", "153101.937000", "153101.940000", "153101.943000", "153101.946000", "153101.948000", "153101.951000", "153101.954000", "153101.957000", "153101.960000", "153101.963000", "153101.965000", "153101.968000", "153101.971000", "153101.974000", "153101.977000", "153101.980000", "153101.983000", "153101.986000", "153101.989000", "153101.991000", "153121.937000", "153121.940000", "153121.943000", "153121.946000", "153121.948000", "153121.951000", "153121.954000", "153121.957000", "153121.960000", "153121.963000", "153121.965000", "153121.968000", "153121.971000", "153121.974000", "153121.977000", "153121.980000", "153121.983000", "153121.985000", "153121.988000", "153121.991000", "153121.994000", "153201.937000", "153201.940000", "153201.943000", "153201.946000", "153201.949000", "153201.951000", "153201.954000", "153201.957000", "153201.960000", "153201.963000", "153201.965000", "153201.981000", "153201.984000", "153201.986000", "153201.989000", "153201.992000", "153201.995000", "153201.998000", "153202.002000", "153202.005000", "153202.007000", "153202.010000", "153202.013000", "153202.016000", "153202.019000", "153202.022000", "153202.025000", "153202.027000", "153202.030000", "153202.033000", "153221.646000", "153221.650000", "153221.653000", "153221.656000", "153221.659000", "153221.662000", "153221.665000", "153221.668000", "153221.677000", "153221.680000", "153221.683000", "153221.686000", "153221.689000", "153221.692000"],
      "InstanceNumber": [1, 2, 3, 4, 5, 6, 7, 8, 9, 10, 11, 12, 13, 14, 15, 16, 17, 18, 19, 20, 21, 22, 23, 24, 25, 26, 27, 28, 29, 30, 31, 32, 33, 34, 35, 36, 37, 38, 39, 40, 41, 42, 43, 44, 45, 46, 47, 48, 49, 50, 51, 52, 53, 54, 55, 56, 57, 58, 59, 60, 61, 62, 63, 64, 65, 66, 67, 68, 69, 70, 71, 72, 73, 74, 75, 76, 77, 78, 79, 80, 81, 82, 83, 84, 85, 86, 87, 88, 89, 90, 91, 92, 93, 94, 95, 96, 97, 98, 99, 100, 101, 102, 103, 104, 105, 106, 107, 108, 109, 110, 111, 112, 113, 114, 115, 116, 117, 118, 119, 120, 121, 122, 123, 124, 125, 126, 127, 128, 129, 130, 131, 132, 133, 134, 135, 136, 137, 138, 139],
      "LargestImagePixelValue": [45538, 44168, 43259, 42843, 43136, 42526, 42354, 42297, 42367, 42892, 42474, 42393, 42482, 42331, 42688, 42564, 42788, 42931, 42755, 42586, 42514, 42482, 42180, 42293, 42268, 42713, 42249, 42529, 42414, 42532, 42504, 42492, 42493, 42273, 42812, 42395, 42110, 42658, 42490, 42206, 42358, 42042, 42504, 42654, 42468, 42396, 43034, 42458, 42712, 42707, 42836, 42274, 42130, 42259, 42424, 41847, 42062, 42170, 42022, 42520, 42318, 42314, 42692, 42043, 42641, 42204, 42211, 42311, 42374, 41915, 42087, 42364, 42685, 42327, 42429, 42352, 42218, 41897, 42118, 42291, 42240, 42631, 42388, 42501, 42464, 42259, 42335, 42180, 42005, 42126, 41879, 42176, 42167, 41513, 42028, 42308, 42190, 42027, 42152, 42154, 42036, 42374, 42340, 42007, 42233, 41834, 41883, 41820, 42115, 42438, 42184, 42435, 42104, 41884, 42217, 42341, 41967, 42152, 41968, 41416, 41789, 41854, 41828, 41991, 41889, 42247, 41940, 41829, 42017, 41722, 41609, 40963, 41585, 41521, 42074, 41764, 41872, 42320, 42075],
      "WindowCenter": [10154.0, 10086.0, 10062.0, 10055.0, 10075.0, 10080.0, 10074.0, 10069.0, 10080.0, 10120.0, 10135.0, 10127.0, 10096.0, 10069.0, 10059.0, 10080.0, 10097.0, 10099.0, 10082.0, 10074.0, 10083.0, 10098.0, 10092.0, 10091.0, 10093.0, 10101.0, 10095.0, 10099.0, 10095.0, 10084.0, 10077.0, 10084.0, 10082.0, 10070.0, 10088.0, 10106.0, 10102.0, 10078.0, 10066.0, 10065.0, 10067.0, 10061.0, 10051.0, 10050.0, 10058.0, 10059.0, 10070.0, 10067.0, 10083.0, 10097.0, 10106.0, 10096.0, 10074.0, 10063.0, 10066.0, 10070.0, 10071.0, 10069.0, 10071.0, 10081.0, 10075.0, 10069.0, 10067.0, 10061.0, 10073.0, 10075.0, 10076.0, 10076.0, 10075.0, 10069.0, 10069.0, 10066.0, 10073.0, 10076.0, 10076.0, 10071.0, 10062.0, 10055.0, 10062.0, 10068.0, 10069.0, 10063.0, 10061.0, 10060.0, 10069.0, 10077.0, 10079.0, 10079.0, 10074.0, 10084.0, 10072.0, 10078.0, 10084.0, 10080.0, 10087.0, 10079.0, 10078.0, 10073.0, 10077.0, 10075.0, 10073.0, 10093.0, 10102.0, 10091.0, 10080.0, 10064.0, 10063.0, 10056.0, 10044.0, 10056.0, 10067.0, 10079.0, 10074.0, 10076.0, 10075.0, 10068.0, 10069.0, 10075.0, 10076.0, 10078.0, 10088.0, 10105.0, 10111.0, 10098.0, 10090.0, 10098.0, 10092.0, 10066.0, 10049.0, 10054.0, 10048.0, 10034.0, 10031.0, 10038.0, 10053.0, 10065.0, 10079.0, 10093.0, 10072.0],
      "WindowWidth": [21891.0, 21706.0, 21636.0, 21603.0, 21639.0, 21652.0, 21639.0, 21622.0, 21639.0, 21725.0, 21763.0, 21747.0, 21676.0, 21612.0, 21590.0, 21637.0, 21678.0, 21683.0, 21643.0, 21626.0, 21644.0, 21676.0, 21665.0, 21662.0, 21671.0, 21688.0, 21676.0, 21683.0, 21675.0, 21649.0, 21633.0, 21649.0, 21643.0, 21620.0, 21653.0, 21696.0, 21691.0, 21638.0, 21609.0, 21606.0, 21610.0, 21599.0, 21577.0, 21571.0, 21589.0, 21592.0, 21614.0, 21612.0, 21646.0, 21676.0, 21697.0, 21680.0, 21632.0, 21605.0, 21608.0, 21620.0, 21621.0, 21617.0, 21623.0, 21642.0, 21629.0, 21617.0, 21612.0, 21600.0, 21624.0, 21628.0, 21630.0, 21631.0, 21626.0, 21617.0, 21613.0, 21607.0, 21621.0, 21629.0, 21631.0, 21621.0, 21601.0, 21586.0, 21601.0, 21613.0, 21615.0, 21603.0, 21598.0, 21595.0, 21613.0, 21630.0, 21637.0, 21636.0, 21627.0, 21646.0, 21624.0, 21633.0, 21646.0, 21643.0, 21654.0, 21636.0, 21633.0, 21627.0, 21631.0, 21625.0, 21626.0, 21667.0, 21687.0, 21669.0, 21641.0, 21604.0, 21601.0, 21586.0, 21560.0, 21578.0, 21606.0, 21631.0, 21623.0, 21630.0, 21625.0, 21610.0, 21614.0, 21624.0, 21628.0, 21635.0, 21657.0, 21697.0, 21708.0, 21684.0, 21664.0, 21682.0, 21670.0, 21612.0, 21575.0, 21583.0, 21572.0, 21540.0, 21529.0, 21544.0, 21578.0, 21609.0, 21637.0, 21666.0, 21615.0]
    },
    "slices": {}
  }
}