{
  "AcquisitionMatrixPE": 104,
  "AcquisitionNumber": 1,
  "AcquisitionTime": "15:24:0.345000",
  "BandwidthPerPixelPhaseEncode": 17.17,
  "BaseResolution": 104,
  "BodyPartExamined": "BRAIN",
  "CoilString": "HC1-7;NC1_2",
  "ConsistencyInfo": "N4_VE11C_LATEST_20160120",
  "ConversionSoftware": "dcm2niix",
  "ConversionSoftwareVersion": "v1.0.20200427",
  "DerivedVendorReportedEchoSpacing": 0.000560011,
  "DeviceSerialNumber": "167006",
  "DwellTime": 2.1e-06,
  "EchoTime": 0.037,
  "EchoTrainLength": 104,
  "EffectiveEchoSpacing": 0.000560011,
  "FlipAngle": 52,
  "ImageComments": "Unaliased_MB4_PE3_LB",
  "ImageOrientationPatientDICOM": [0.998213, -0.0594349, -0.00622382, 0.0531876, 0.931083, -0.36091],
  "ImageType": [
    "ORIGINAL",
    "PRIMARY",
    "M",
    "MB",
    "ND",
    "MOSAIC"
],
  "ImagingFrequency": 123.259,
  "InPlanePhaseEncodingDirectionDICOM": "COL",
  "InstitutionAddress": "Chemin_Queen-Mary_4565_Montreal_District_CA_H3W_1W5",
  "InstitutionName": "IUGM",
  "InstitutionalDepartmentName": "Department",
  "MRAcquisitionType": "2D",
  "MagneticFieldStrength": 3,
  "Manufacturer": "Siemens",
  "ManufacturersModelName": "Prisma_fit",
  "Modality": "MR",
  "MultibandAccelerationFactor": 4,
  "PartialFourier": 1,
  "PatientPosition": "HFS",
  "PercentPhaseFOV": 100,
  "PercentSampling": 100,
  "PhaseEncodingDirection": "j",
  "PhaseEncodingSteps": 104,
  "PhaseResolution": 1,
  "PixelBandwidth": 2290,
  "ProcedureStepDescription": "hcptrt_generic",
  "ProtocolName": "func_task-motor_run-1",
  "PulseSequenceDetails": "%CustomerSeq%_cmrr_mbep2d_bold",
  "ReceiveCoilActiveElements": "HC1-7;NC1,2",
  "ReceiveCoilName": "HeadNeck_64",
  "ReconMatrixPE": 104,
  "RepetitionTime": 1.49,
  "SAR": 0.0303707,
  "ScanOptions": "FS",
  "ScanningSequence": "EP",
  "SequenceName": "epfid2d1_104",
  "SequenceVariant": "SK_SS",
  "SeriesDescription": "func_task-motor_run-1",
  "SeriesNumber": 21,
  "ShimSetting": [628, -7268, -8817, 602, -7, -214, -75, -7],
  "SliceThickness": 2,
  "SliceTiming": [0, 0.7825, 0.0975, 0.88, 0.195, 0.98, 0.2925, 1.0775, 0.39, 1.175, 0.49, 1.2725, 0.5875, 1.37, 0.685, 0, 0.7825, 0.0975, 0.88, 0.195, 0.98, 0.2925, 1.0775, 0.39, 1.175, 0.49, 1.2725, 0.5875, 1.37, 0.685, 0, 0.7825, 0.0975, 0.88, 0.195, 0.98, 0.2925, 1.0775, 0.39, 1.175, 0.49, 1.2725, 0.5875, 1.37, 0.685, 0, 0.7825, 0.0975, 0.88, 0.195, 0.98, 0.2925, 1.0775, 0.39, 1.175, 0.49, 1.2725, 0.5875, 1.37, 0.685],
  "SoftwareVersions": "syngo_MR_E11",
  "SpacingBetweenSlices": 2,
  "StationName": "MRC35049",
  "TaskName": "motor",
  "TotalReadoutTime": 0.0576811,
  "TxRefAmp": 217.88,
  "WipMemBlock": "a6f7549a-36b7-4574-9d68-58ad2533ed2d||Sequence: R016 ve11c/master r/e634e98; Dec 19 2017 11:00:25 by eja",
  "dcmmeta_affine": [
    [-1.9964255094528198, 0.10637523978948593, -0.054491087794303894, 102.3814697265625],
    [0.11886978894472122, 1.8621654510498047, -0.719868004322052, -67.49457550048828],
    [-0.012447641231119633, 0.7218201160430908, 1.8651597499847412, -60.90363311767578],
    [0.0, 0.0, 0.0, 1.0]
],
  "dcmmeta_reorient_transform": [
    [0.0, -1.0, 0.0, 103.0],
    [1.0, 0.0, 0.0, 0.0],
    [0.0, 0.0, 1.0, 0.0],
    [0.0, 0.0, 0.0, 1.0]
],
  "dcmmeta_shape": [104, 104, 60, 144],
  "dcmmeta_slice_dim": 2,
  "dcmmeta_version": 0.6,
  "global": {
    "const": {
      "AcquisitionMatrix": [104, 0, 0, 104],
      "AngioFlag": "N",
      "BitsAllocated": 16,
      "BitsStored": 16,
      "BodyPartExamined": "BRAIN",
      "Columns": 832,
      "EchoNumbers": 1,
      "EchoTime": 37.0,
      "EchoTrainLength": 104,
      "FlipAngle": 52.0,
      "HighBit": 15,
      "ImageOrientationPatient": [0.99821278158457, -0.0594348949724, -0.0062238204351, 0.05318762142946, 0.93108270730862, -0.3609100567697],
      "ImagePositionPatient": [-878.75761534727, -758.86807291182, 280.71730104129],
      "ImageType": [
        "ORIGINAL",
        "PRIMARY",
        "M",
        "MB",
        "ND",
        "MOSAIC"
],
      "ImagedNucleus": "1H",
      "ImagingFrequency": 123.259024,
      "InPlanePhaseEncodingDirection": "COL",
      "MRAcquisitionType": "2D",
      "MagneticFieldStrength": 3.0,
      "Manufacturer": "SIEMENS",
      "ManufacturerModelName": "Prisma_fit",
      "Modality": "MR",
      "NumberOfAverages": 1.0,
      "NumberOfPhaseEncodingSteps": 104,
      "PercentPhaseFieldOfView": 100.0,
      "PercentSampling": 100.0,
      "PerformedProcedureStepStartTime": "142650.176000",
      "PhotometricInterpretation": "MONOCHROME2",
      "PixelBandwidth": 2290.0,
      "PixelRepresentation": 0,
      "PixelSpacing": [2.0, 2.0],
      "ProtocolName": "func_task-motor_run-1",
      "RepetitionTime": 1490.0,
      "Rows": 832,
      "SAR": 0.03037069901427,
      "SamplesPerPixel": 1,
      "ScanOptions": "FS",
      "ScanningSequence": "EP",
      "SequenceName": "epfid2d1_104",
      "SequenceVariant": [
        "SK",
        "SS"
],
      "SeriesDescription": "func_task-motor_run-1",
      "SeriesNumber": 21,
      "SeriesTime": "152529.435000",
      "SliceLocation": -35.29334911375,
      "SliceThickness": 2.0,
      "SmallestImagePixelValue": 0,
      "SoftwareVersions": "syngo MR E11",
      "SpacingBetweenSlices": 2.0000000502901,
      "SpecificCharacterSet": "ISO_IR 100",
      "StudyID": "1",
      "StudyTime": "142650.058000",
      "TransmitCoilName": "Body",
      "VariableFlipAngleFlag": "N",
      "WindowCenterWidthExplanation": "Algo1",
      "dBdt": 0.0},
    "slices": {}
  },
  "time": {
    "samples": {
      "AcquisitionNumber": [1, 2, 3, 4, 5, 6, 7, 8, 9, 10, 11, 12, 13, 14, 15, 16, 17, 18, 19, 20, 21, 22, 23, 24, 25, 26, 27, 28, 29, 30, 31, 32, 33, 34, 35, 36, 37, 38, 39, 40, 41, 42, 43, 44, 45, 46, 47, 48, 49, 50, 51, 52, 53, 54, 55, 56, 57, 58, 59, 60, 61, 62, 63, 64, 65, 66, 67, 68, 69, 70, 71, 72, 73, 74, 75, 76, 77, 78, 79, 80, 81, 82, 83, 84, 85, 86, 87, 88, 89, 90, 91, 92, 93, 94, 95, 96, 97, 98, 99, 100, 101, 102, 103, 104, 105, 106, 107, 108, 109, 110, 111, 112, 113, 114, 115, 116, 117, 118, 119, 120, 121, 122, 123, 124, 125, 126, 127, 128, 129, 130, 131, 132, 133, 134, 135, 136, 137, 138, 139, 140, 141, 142, 143, 144],
      "AcquisitionTime": ["152400.345000", "152401.835000", "152403.325000", "152404.815000", "152406.305000", "152407.795000", "152409.285000", "152410.775000", "152412.265000", "152413.755000", "152415.245000", "152416.735000", "152418.225000", "152419.715000", "152421.205000", "152422.695000", "152424.185000", "152425.675000", "152427.165000", "152428.655000", "152430.145000", "152431.635000", "152433.125000", "152434.615000", "152436.105000", "152437.595000", "152439.085000", "152440.575000", "152442.065000", "152443.555000", "152445.045000", "152446.535000", "152448.025000", "152449.515000", "152451.005000", "152452.495000", "152453.985000", "152455.475000", "152456.965000", "152458.455000", "152459.945000", "152501.435000", "152502.925000", "152504.415000", "152505.905000", "152507.395000", "152508.885000", "152510.375000", "152511.865000", "152513.355000", "152514.845000", "152516.335000", "152517.825000", "152519.315000", "152520.805000", "152522.295000", "152523.785000", "152525.275000", "152526.765000", "152528.255000", "152529.745000", "152531.235000", "152532.725000", "152534.215000", "152535.705000", "152537.195000", "152538.685000", "152540.175000", "152541.665000", "152543.155000", "152544.645000", "152546.135000", "152547.625000", "152549.115000", "152550.605000", "152552.095000", "152553.585000", "152555.075000", "152556.565000", "152558.055000", "152559.545000", "152601.035000", "152602.525000", "152604.015000", "152605.505000", "152606.995000", "152608.485000", "152609.975000", "152611.465000", "152612.955000", "152614.445000", "152615.935000", "152617.425000", "152618.915000", "152620.405000", "152621.895000", "152623.385000", "152624.875000", "152626.365000", "152627.855000", "152629.345000", "152630.835000", "152632.325000", "152633.815000", "152635.305000", "152636.795000", "152638.285000", "152639.775000", "152641.265000", "152642.755000", "152644.245000", "152645.735000", "152647.225000", "152648.715000", "152650.205000", "152651.695000", "152653.185000", "152654.675000", "152656.165000", "152657.655000", "152659.145000", "152700.635000", "152702.125000", "152703.615000", "152705.105000", "152706.595000", "152708.085000", "152709.575000", "152711.065000", "152712.555000", "152714.045000", "152715.535000", "152717.025000", "152718.515000", "152720.005000", "152721.495000", "152722.985000", "152724.475000", "152725.965000", "152727.455000", "152728.945000", "152730.435000", "152731.925000", "152733.415000"],
      "ContentTime": ["152529.438000", "152529.441000", "152529.444000", "152529.447000", "152529.450000", "152529.453000", "152529.456000", "152529.459000", "152529.462000", "152529.464000", "152529.467000", "152529.484000", "152529.487000", "152529.490000", "152529.492000", "152529.495000", "152529.498000", "152529.501000", "152529.504000", "152529.507000", "152529.509000", "152529.512000", "152529.515000", "152529.518000", "152529.521000", "152529.524000", "152529.527000", "152529.531000", "152529.534000", "152529.537000", "152529.539000", "152529.542000", "152529.545000", "152529.548000", "152549.408000", "152549.411000", "152549.414000", "152549.416000", "152549.419000", "152549.422000", "152549.425000", "152549.428000", "152549.431000", "152549.434000", "152549.436000", "152549.439000", "152549.442000", "152549.445000", "152549.448000", "152549.451000", "152549.454000", "152549.457000", "152549.460000", "152549.463000", "152549.466000", "152609.408000", "152609.411000", "152609.414000", "152609.416000", "152609.419000", "152609.422000", "152609.425000", "152609.428000", "152609.431000", "152609.435000", "152609.438000", "152609.450000", "152609.453000", "152609.455000", "152609.458000", "152609.461000", "152609.464000", "152609.467000", "152609.470000", "152609.472000", "152629.408000", "152629.411000", "152629.413000", "152629.416000", "152629.419000", "152629.422000", "152629.425000", "152629.428000", "152629.431000", "152629.434000", "152629.436000", "152629.439000", "152629.442000", "152629.445000", "152629.448000", "152629.451000", "152629.453000", "152629.456000", "152629.459000", "152629.462000", "152709.408000", "152709.411000", "152709.420000", "152709.422000", "152709.425000", "152709.428000", "152709.431000", "152709.434000", "152709.437000", "152709.440000", "152709.443000", "152709.445000", "152709.448000", "152709.451000", "152709.454000", "152709.457000", "152709.460000", "152709.462000", "152709.465000", "152709.468000", "152709.471000", "152709.474000", "152709.477000", "152709.480000", "152709.483000", "152709.486000", "152709.488000", "152709.491000", "152709.494000", "152709.497000", "152709.500000", "152735.760000", "152735.763000", "152735.766000", "152735.769000", "152735.772000", "152735.774000", "152735.777000", "152735.781000", "152735.784000", "152735.787000", "152735.789000", "152735.792000", "152735.795000", "152735.798000", "152735.801000", "152735.804000", "152735.806000", "152735.809000"],
      "InstanceCreationTime": ["152529.438000", "152529.441000", "152529.444000", "152529.447000", "152529.450000", "152529.453000", "152529.456000", "152529.459000", "152529.462000", "152529.464000", "152529.467000", "152529.484000", "152529.487000", "152529.490000", "152529.492000", "152529.495000", "152529.498000", "152529.501000", "152529.504000", "152529.507000", "152529.509000", "152529.512000", "152529.515000", "152529.518000", "152529.521000", "152529.524000", "152529.527000", "152529.531000", "152529.534000", "152529.537000", "152529.539000", "152529.542000", "152529.545000", "152529.548000", "152549.408000", "152549.411000", "152549.414000", "152549.416000", "152549.419000", "152549.422000", "152549.425000", "152549.428000", "152549.431000", "152549.434000", "152549.436000", "152549.439000", "152549.442000", "152549.445000", "152549.448000", "152549.451000", "152549.454000", "152549.457000", "152549.460000", "152549.463000", "152549.466000", "152609.408000", "152609.411000", "152609.414000", "152609.416000", "152609.419000", "152609.422000", "152609.425000", "152609.428000", "152609.431000", "152609.435000", "152609.438000", "152609.450000", "152609.453000", "152609.455000", "152609.458000", "152609.461000", "152609.464000", "152609.467000", "152609.470000", "152609.472000", "152629.408000", "152629.411000", "152629.413000", "152629.416000", "152629.419000", "152629.422000", "152629.425000", "152629.428000", "152629.431000", "152629.434000", "152629.436000", "152629.439000", "152629.442000", "152629.445000", "152629.448000", "152629.451000", "152629.453000", "152629.456000", "152629.459000", "152629.462000", "152709.408000", "152709.411000", "152709.420000", "152709.422000", "152709.425000", "152709.428000", "152709.431000", "152709.434000", "152709.437000", "152709.440000", "152709.443000", "152709.445000", "152709.448000", "152709.451000", "152709.454000", "152709.457000", "152709.460000", "152709.462000", "152709.465000", "152709.468000", "152709.471000", "152709.474000", "152709.477000", "152709.480000", "152709.483000", "152709.486000", "152709.488000", "152709.491000", "152709.494000", "152709.497000", "152709.500000", "152735.760000", "152735.763000", "152735.766000", "152735.769000", "152735.772000", "152735.774000", "152735.777000", "152735.781000", "152735.784000", "152735.787000", "152735.789000", "152735.792000", "152735.795000", "152735.798000", "152735.801000", "152735.804000", "152735.806000", "152735.809000"],
      "InstanceNumber": [1, 2, 3, 4, 5, 6, 7, 8, 9, 10, 11, 12, 13, 14, 15, 16, 17, 18, 19, 20, 21, 22, 23, 24, 25, 26, 27, 28, 29, 30, 31, 32, 33, 34, 35, 36, 37, 38, 39, 40, 41, 42, 43, 44, 45, 46, 47, 48, 49, 50, 51, 52, 53, 54, 55, 56, 57, 58, 59, 60, 61, 62, 63, 64, 65, 66, 67, 68, 69, 70, 71, 72, 73, 74, 75, 76, 77, 78, 79, 80, 81, 82, 83, 84, 85, 86, 87, 88, 89, 90, 91, 92, 93, 94, 95, 96, 97, 98, 99, 100, 101, 102, 103, 104, 105, 106, 107, 108, 109, 110, 111, 112, 113, 114, 115, 116, 117, 118, 119, 120, 121, 122, 123, 124, 125, 126, 127, 128, 129, 130, 131, 132, 133, 134, 135, 136, 137, 138, 139, 140, 141, 142, 143, 144],
      "LargestImagePixelValue": [44724, 42754, 42788, 43504, 42924, 42594, 42717, 42440, 42084, 42069, 40932, 41014, 41164, 41533, 41984, 41786, 42139, 41876, 42059, 41594, 41040, 41706, 41743, 41329, 42286, 42309, 42836, 42794, 42568, 42209, 42349, 41770, 41851, 41951, 41285, 42300, 42798, 42414, 42789, 43167, 43040, 42246, 42212, 42197, 41922, 42170, 42721, 42668, 43176, 41778, 41164, 41284, 41987, 41811, 42952, 42496, 42866, 42667, 41345, 41676, 41998, 42268, 42149, 42355, 42964, 43103, 43350, 42967, 43282, 42952, 41546, 42043, 42117, 42795, 43015, 43072, 43380, 43514, 43089, 42273, 42463, 42643, 42268, 42725, 42879, 42824, 42310, 42630, 43049, 42159, 42828, 42646, 42957, 42764, 42930, 43171, 42962, 42792, 41680, 42021, 42132, 42394, 42275, 42532, 42177, 42624, 42351, 42480, 42170, 42184, 42125, 42302, 42090, 41906, 42409, 42306, 42006, 42110, 41970, 42145, 42261, 42352, 42377, 41933, 42489, 41827, 42181, 41452, 42638, 42326, 42062, 42140, 41877, 41933, 42175, 42368, 41863, 41945, 42254, 42088, 42223, 41872, 42190, 42164],
      "WindowCenter": [10243.0, 10194.0, 10147.0, 10121.0, 10103.0, 10095.0, 10088.0, 10084.0, 10092.0, 10111.0, 10127.0, 10122.0, 10104.0, 10091.0, 10095.0, 10104.0, 10112.0, 10097.0, 10102.0, 10112.0, 10119.0, 10131.0, 10132.0, 10134.0, 10138.0, 10120.0, 10100.0, 10088.0, 10089.0, 10098.0, 10087.0, 10077.0, 10076.0, 10100.0, 10109.0, 10105.0, 10092.0, 10084.0, 10106.0, 10130.0, 10136.0, 10114.0, 10092.0, 10089.0, 10100.0, 10114.0, 10120.0, 10109.0, 10109.0, 10102.0, 10122.0, 10119.0, 10107.0, 10090.0, 10097.0, 10070.0, 10075.0, 10064.0, 10053.0, 10051.0, 10053.0, 10062.0, 10085.0, 10090.0, 10086.0, 10064.0, 10068.0, 10069.0, 10091.0, 10125.0, 10119.0, 10093.0, 10074.0, 10069.0, 10075.0, 10074.0, 10081.0, 10074.0, 10067.0, 10064.0, 10086.0, 10103.0, 10097.0, 10081.0, 10076.0, 10069.0, 10064.0, 10065.0, 10079.0, 10100.0, 10114.0, 10114.0, 10122.0, 10114.0, 10100.0, 10096.0, 10079.0, 10085.0, 10090.0, 10096.0, 10096.0, 10080.0, 10070.0, 10069.0, 10054.0, 10051.0, 10053.0, 10062.0, 10069.0, 10054.0, 10061.0, 10085.0, 10089.0, 10067.0, 10046.0, 10035.0, 10037.0, 10052.0, 10062.0, 10083.0, 10088.0, 10080.0, 10077.0, 10079.0, 10090.0, 10080.0, 10075.0, 10073.0, 10080.0, 10072.0, 10056.0, 10053.0, 10055.0, 10072.0, 10078.0, 10086.0, 10091.0, 10075.0, 10064.0, 10076.0, 10110.0, 10100.0, 10075.0, 10048.0],
      "WindowWidth": [22093.0, 21949.0, 21820.0, 21743.0, 21694.0, 21673.0, 21655.0, 21644.0, 21662.0, 21706.0, 21749.0, 21743.0, 21699.0, 21664.0, 21668.0, 21688.0, 21707.0, 21676.0, 21681.0, 21705.0, 21728.0, 21752.0, 21757.0, 21765.0, 21769.0, 21726.0, 21676.0, 21648.0, 21650.0, 21670.0, 21651.0, 21627.0, 21628.0, 21683.0, 21711.0, 21696.0, 21661.0, 21641.0, 21686.0, 21738.0, 21756.0, 21711.0, 21665.0, 21657.0, 21684.0, 21717.0, 21724.0, 21701.0, 21692.0, 21678.0, 21725.0, 21720.0, 21688.0, 21646.0, 21663.0, 21602.0, 21607.0, 21589.0, 21568.0, 21564.0, 21566.0, 21588.0, 21636.0, 21651.0, 21636.0, 21586.0, 21593.0, 21601.0, 21649.0, 21726.0, 21720.0, 21663.0, 21616.0, 21604.0, 21613.0, 21610.0, 21622.0, 21607.0, 21592.0, 21592.0, 21642.0, 21680.0, 21666.0, 21629.0, 21614.0, 21598.0, 21590.0, 21591.0, 21619.0, 21673.0, 21704.0, 21705.0, 21720.0, 21702.0, 21674.0, 21662.0, 21623.0, 21633.0, 21654.0, 21665.0, 21663.0, 21628.0, 21603.0, 21598.0, 21568.0, 21560.0, 21567.0, 21585.0, 21602.0, 21573.0, 21588.0, 21640.0, 21651.0, 21602.0, 21550.0, 21525.0, 21532.0, 21564.0, 21589.0, 21636.0, 21651.0, 21631.0, 21622.0, 21628.0, 21648.0, 21630.0, 21613.0, 21611.0, 21626.0, 21610.0, 21574.0, 21567.0, 21575.0, 21612.0, 21626.0, 21643.0, 21656.0, 21620.0, 21594.0, 21616.0, 21693.0, 21677.0, 21620.0, 21559.0]
    },
    "slices": {}
  }
}