{
  "AcquisitionMatrixPE": 104,
  "AcquisitionNumber": 1,
  "AcquisitionTime": "15:14:11.335000",
  "BandwidthPerPixelPhaseEncode": 17.17,
  "BaseResolution": 104,
  "BodyPartExamined": "BRAIN",
  "CoilString": "HC1-7;NC1_2",
  "ConsistencyInfo": "N4_VE11C_LATEST_20160120",
  "ConversionSoftware": "dcm2niix",
  "ConversionSoftwareVersion": "v1.0.20200427",
  "DerivedVendorReportedEchoSpacing": 0.000560011,
  "DeviceSerialNumber": "167006",
  "DwellTime": 2.1e-06,
  "EchoTime": 0.037,
  "EchoTrainLength": 104,
  "EffectiveEchoSpacing": 0.000560011,
  "FlipAngle": 52,
  "ImageComments": "Unaliased_MB4_PE3_LB",
  "ImageOrientationPatientDICOM": [0.998213, -0.0594349, -0.00622382, 0.0531876, 0.931083, -0.36091],
  "ImageType": [
    "ORIGINAL",
    "PRIMARY",
    "M",
    "MB",
    "ND",
    "MOSAIC"
],
  "ImagingFrequency": 123.259,
  "InPlanePhaseEncodingDirectionDICOM": "COL",
  "InstitutionAddress": "Chemin_Queen-Mary_4565_Montreal_District_CA_H3W_1W5",
  "InstitutionName": "IUGM",
  "InstitutionalDepartmentName": "Department",
  "MRAcquisitionType": "2D",
  "MagneticFieldStrength": 3,
  "Manufacturer": "Siemens",
  "ManufacturersModelName": "Prisma_fit",
  "Modality": "MR",
  "MultibandAccelerationFactor": 4,
  "PartialFourier": 1,
  "PatientPosition": "HFS",
  "PercentPhaseFOV": 100,
  "PercentSampling": 100,
  "PhaseEncodingDirection": "j",
  "PhaseEncodingSteps": 104,
  "PhaseResolution": 1,
  "PixelBandwidth": 2290,
  "ProcedureStepDescription": "hcptrt_generic",
  "ProtocolName": "func_task-wm_run-1",
  "PulseSequenceDetails": "%CustomerSeq%_cmrr_mbep2d_bold",
  "ReceiveCoilActiveElements": "HC1-7;NC1,2",
  "ReceiveCoilName": "HeadNeck_64",
  "ReconMatrixPE": 104,
  "RepetitionTime": 1.49,
  "SAR": 0.0304853,
  "ScanOptions": "FS",
  "ScanningSequence": "EP",
  "SequenceName": "epfid2d1_104",
  "SequenceVariant": "SK_SS",
  "SeriesDescription": "func_task-wm_run-1",
  "SeriesNumber": 17,
  "ShimSetting": [628, -7268, -8817, 602, -7, -214, -75, -7],
  "SliceThickness": 2,
  "SliceTiming": [0, 0.785, 0.0975, 0.8825, 0.1975, 0.98, 0.295, 1.0775, 0.3925, 1.1775, 0.49, 1.275, 0.5875, 1.3725, 0.6875, 0, 0.785, 0.0975, 0.8825, 0.1975, 0.98, 0.295, 1.0775, 0.3925, 1.1775, 0.49, 1.275, 0.5875, 1.3725, 0.6875, 0, 0.785, 0.0975, 0.8825, 0.1975, 0.98, 0.295, 1.0775, 0.3925, 1.1775, 0.49, 1.275, 0.5875, 1.3725, 0.6875, 0, 0.785, 0.0975, 0.8825, 0.1975, 0.98, 0.295, 1.0775, 0.3925, 1.1775, 0.49, 1.275, 0.5875, 1.3725, 0.6875],
  "SoftwareVersions": "syngo_MR_E11",
  "SpacingBetweenSlices": 2,
  "StationName": "MRC35049",
  "TaskName": "wm",
  "TotalReadoutTime": 0.0576811,
  "TxRefAmp": 217.88,
  "WipMemBlock": "85cf24ae-a07a-4266-9000-fd91583674aa||Sequence: R016 ve11c/master r/e634e98; Dec 19 2017 11:00:25 by eja",
  "dcmmeta_affine": [
    [-1.9964255094528198, 0.10637523978948593, -0.054491087794303894, 102.3814697265625],
    [0.11886978894472122, 1.8621654510498047, -0.719868004322052, -67.49457550048828],
    [-0.012447641231119633, 0.7218201160430908, 1.8651597499847412, -60.90363311767578],
    [0.0, 0.0, 0.0, 1.0]
],
  "dcmmeta_reorient_transform": [
    [0.0, -1.0, 0.0, 103.0],
    [1.0, 0.0, 0.0, 0.0],
    [0.0, 0.0, 1.0, 0.0],
    [0.0, 0.0, 0.0, 1.0]
],
  "dcmmeta_shape": [104, 104, 60, 202],
  "dcmmeta_slice_dim": 2,
  "dcmmeta_version": 0.6,
  "global": {
    "const": {
      "AcquisitionMatrix": [104, 0, 0, 104],
      "AngioFlag": "N",
      "BitsAllocated": 16,
      "BitsStored": 16,
      "BodyPartExamined": "BRAIN",
      "Columns": 832,
      "EchoNumbers": 1,
      "EchoTime": 37.0,
      "EchoTrainLength": 104,
      "FlipAngle": 52.0,
      "HighBit": 15,
      "ImageOrientationPatient": [0.99821278158457, -0.0594348949724, -0.0062238204351, 0.05318762142946, 0.93108270730862, -0.3609100567697],
      "ImagePositionPatient": [-878.75761534727, -758.86807291182, 280.71730104129],
      "ImageType": [
        "ORIGINAL",
        "PRIMARY",
        "M",
        "MB",
        "ND",
        "MOSAIC"
],
      "ImagedNucleus": "1H",
      "ImagingFrequency": 123.259021,
      "InPlanePhaseEncodingDirection": "COL",
      "MRAcquisitionType": "2D",
      "MagneticFieldStrength": 3.0,
      "Manufacturer": "SIEMENS",
      "ManufacturerModelName": "Prisma_fit",
      "Modality": "MR",
      "NumberOfAverages": 1.0,
      "NumberOfPhaseEncodingSteps": 104,
      "PercentPhaseFieldOfView": 100.0,
      "PercentSampling": 100.0,
      "PerformedProcedureStepStartTime": "142650.176000",
      "PhotometricInterpretation": "MONOCHROME2",
      "PixelBandwidth": 2290.0,
      "PixelRepresentation": 0,
      "PixelSpacing": [2.0, 2.0],
      "ProtocolName": "func_task-wm_run-1",
      "RepetitionTime": 1490.0,
      "Rows": 832,
      "SAR": 0.03048532874344,
      "SamplesPerPixel": 1,
      "ScanOptions": "FS",
      "ScanningSequence": "EP",
      "SequenceName": "epfid2d1_104",
      "SequenceVariant": [
        "SK",
        "SS"
],
      "SeriesDescription": "func_task-wm_run-1",
      "SeriesNumber": 17,
      "SeriesTime": "151541.965000",
      "SliceLocation": -35.29334911375,
      "SliceThickness": 2.0,
      "SmallestImagePixelValue": 0,
      "SoftwareVersions": "syngo MR E11",
      "SpacingBetweenSlices": 2.0000000502901,
      "SpecificCharacterSet": "ISO_IR 100",
      "StudyID": "1",
      "StudyTime": "142650.058000",
      "TransmitCoilName": "Body",
      "VariableFlipAngleFlag": "N",
      "WindowCenterWidthExplanation": "Algo1",
      "dBdt": 0.0},
    "slices": {}
  },
  "time": {
    "samples": {
      "AcquisitionNumber": [1, 2, 3, 4, 5, 6, 7, 8, 9, 10, 11, 12, 13, 14, 15, 16, 17, 18, 19, 20, 21, 22, 23, 24, 25, 26, 27, 28, 29, 30, 31, 32, 33, 34, 35, 36, 37, 38, 39, 40, 41, 42, 43, 44, 45, 46, 47, 48, 49, 50, 51, 52, 53, 54, 55, 56, 57, 58, 59, 60, 61, 62, 63, 64, 65, 66, 67, 68, 69, 70, 71, 72, 73, 74, 75, 76, 77, 78, 79, 80, 81, 82, 83, 84, 85, 86, 87, 88, 89, 90, 91, 92, 93, 94, 95, 96, 97, 98, 99, 100, 101, 102, 103, 104, 105, 106, 107, 108, 109, 110, 111, 112, 113, 114, 115, 116, 117, 118, 119, 120, 121, 122, 123, 124, 125, 126, 127, 128, 129, 130, 131, 132, 133, 134, 135, 136, 137, 138, 139, 140, 141, 142, 143, 144, 145, 146, 147, 148, 149, 150, 151, 152, 153, 154, 155, 156, 157, 158, 159, 160, 161, 162, 163, 164, 165, 166, 167, 168, 169, 170, 171, 172, 173, 174, 175, 176, 177, 178, 179, 180, 181, 182, 183, 184, 185, 186, 187, 188, 189, 190, 191, 192, 193, 194, 195, 196, 197, 198, 199, 200, 201, 202],
      "AcquisitionTime": ["151411.335000", "151412.825000", "151414.315000", "151415.805000", "151417.295000", "151418.785000", "151420.275000", "151421.765000", "151423.255000", "151424.745000", "151426.235000", "151427.725000", "151429.215000", "151430.705000", "151432.195000", "151433.685000", "151435.175000", "151436.665000", "151438.155000", "151439.645000", "151441.135000", "151442.625000", "151444.115000", "151445.605000", "151447.095000", "151448.585000", "151450.075000", "151451.565000", "151453.055000", "151454.545000", "151456.035000", "151457.525000", "151459.015000", "151500.505000", "151501.995000", "151503.485000", "151504.975000", "151506.465000", "151507.955000", "151509.445000", "151510.935000", "151512.425000", "151513.915000", "151515.405000", "151516.895000", "151518.385000", "151519.875000", "151521.365000", "151522.855000", "151524.345000", "151525.835000", "151527.325000", "151528.815000", "151530.305000", "151531.795000", "151533.285000", "151534.775000", "151536.265000", "151537.755000", "151539.245000", "151540.735000", "151542.225000", "151543.715000", "151545.205000", "151546.695000", "151548.185000", "151549.675000", "151551.165000", "151552.655000", "151554.145000", "151555.635000", "151557.125000", "151558.615000", "151600.105000", "151601.595000", "151603.085000", "151604.575000", "151606.065000", "151607.555000", "151609.045000", "151610.535000", "151612.025000", "151613.515000", "151615.005000", "151616.495000", "151617.985000", "151619.475000", "151620.965000", "151622.455000", "151623.945000", "151625.435000", "151626.925000", "151628.415000", "151629.905000", "151631.395000", "151632.885000", "151634.375000", "151635.865000", "151637.355000", "151638.845000", "151640.335000", "151641.825000", "151643.315000", "151644.805000", "151646.295000", "151647.785000", "151649.275000", "151650.765000", "151652.255000", "151653.745000", "151655.235000", "151656.725000", "151658.215000", "151659.705000", "151701.195000", "151702.685000", "151704.175000", "151705.665000", "151707.155000", "151708.645000", "151710.135000", "151711.625000", "151713.115000", "151714.605000", "151716.095000", "151717.585000", "151719.075000", "151720.565000", "151722.055000", "151723.545000", "151725.035000", "151726.525000", "151728.015000", "151729.505000", "151730.995000", "151732.485000", "151733.975000", "151735.465000", "151736.955000", "151738.445000", "151739.935000", "151741.425000", "151742.915000", "151744.405000", "151745.895000", "151747.385000", "151748.875000", "151750.365000", "151751.855000", "151753.345000", "151754.835000", "151756.325000", "151757.815000", "151759.305000", "151800.795000", "151802.285000", "151803.775000", "151805.265000", "151806.755000", "151808.245000", "151809.735000", "151811.225000", "151812.715000", "151814.205000", "151815.695000", "151817.185000", "151818.675000", "151820.165000", "151821.655000", "151823.145000", "151824.635000", "151826.125000", "151827.615000", "151829.105000", "151830.595000", "151832.085000", "151833.575000", "151835.065000", "151836.555000", "151838.045000", "151839.535000", "151841.025000", "151842.515000", "151844.005000", "151845.495000", "151846.985000", "151848.475000", "151849.965000", "151851.455000", "151852.945000", "151854.435000", "151855.925000", "151857.415000", "151858.905000", "151900.395000", "151901.885000", "151903.375000", "151904.865000", "151906.355000", "151907.845000", "151909.335000", "151910.825000"],
      "ContentTime": ["151541.968000", "151541.971000", "151541.974000", "151541.977000", "151541.980000", "151541.982000", "151541.985000", "151541.988000", "151541.991000", "151541.994000", "151541.997000", "151542.001000", "151542.013000", "151542.016000", "151542.019000", "151542.022000", "151542.024000", "151542.027000", "151542.035000", "151542.038000", "151542.041000", "151542.043000", "151542.046000", "151542.049000", "151542.052000", "151542.055000", "151542.058000", "151542.060000", "151542.063000", "151542.066000", "151542.069000", "151542.072000", "151542.075000", "151542.082000", "151542.085000", "151542.088000", "151601.936000", "151601.939000", "151601.942000", "151601.945000", "151601.947000", "151601.955000", "151601.958000", "151601.961000", "151601.963000", "151601.966000", "151601.969000", "151601.972000", "151601.975000", "151601.978000", "151601.980000", "151601.983000", "151601.986000", "151601.989000", "151601.992000", "151601.995000", "151601.997000", "151621.936000", "151621.939000", "151621.941000", "151621.944000", "151621.947000", "151621.950000", "151621.953000", "151621.956000", "151621.959000", "151621.961000", "151621.964000", "151621.967000", "151621.970000", "151621.973000", "151621.976000", "151621.978000", "151621.981000", "151621.984000", "151621.987000", "151621.990000", "151641.936000", "151641.939000", "151641.942000", "151641.944000", "151641.947000", "151641.950000", "151641.953000", "151641.956000", "151641.959000", "151641.961000", "151641.964000", "151641.967000", "151641.970000", "151641.973000", "151641.976000", "151641.978000", "151641.981000", "151641.984000", "151641.987000", "151641.990000", "151721.937000", "151721.940000", "151721.943000", "151721.945000", "151721.948000", "151721.951000", "151721.954000", "151721.957000", "151721.960000", "151721.963000", "151721.965000", "151721.968000", "151721.971000", "151721.974000", "151721.977000", "151721.980000", "151721.982000", "151721.985000", "151721.988000", "151721.991000", "151721.994000", "151721.996000", "151722.000000", "151722.003000", "151722.006000", "151722.009000", "151722.012000", "151722.014000", "151722.017000", "151722.020000", "151801.937000", "151801.940000", "151801.943000", "151801.946000", "151801.949000", "151801.952000", "151801.955000", "151801.958000", "151801.961000", "151801.964000", "151801.966000", "151801.969000", "151801.972000", "151801.975000", "151801.978000", "151801.981000", "151801.984000", "151801.986000", "151801.989000", "151801.992000", "151801.995000", "151801.998000", "151802.002000", "151802.005000", "151802.008000", "151802.011000", "151802.014000", "151821.936000", "151821.939000", "151821.948000", "151821.951000", "151821.953000", "151821.956000", "151821.959000", "151821.962000", "151821.965000", "151821.968000", "151821.970000", "151821.973000", "151821.976000", "151821.979000", "151901.936000", "151901.939000", "151901.942000", "151901.945000", "151901.947000", "151901.950000", "151901.953000", "151901.956000", "151901.959000", "151901.962000", "151901.965000", "151901.968000", "151901.970000", "151901.973000", "151901.976000", "151901.979000", "151901.982000", "151901.985000", "151901.987000", "151901.990000", "151901.993000", "151901.996000", "151902.000000", "151902.003000", "151902.005000", "151902.008000", "151912.508000", "151912.511000", "151912.514000", "151912.517000", "151912.520000", "151912.523000", "151912.525000", "151912.528000"],
      "InstanceCreationTime": ["151541.968000", "151541.971000", "151541.974000", "151541.977000", "151541.980000", "151541.982000", "151541.985000", "151541.988000", "151541.991000", "151541.994000", "151541.997000", "151542.001000", "151542.013000", "151542.016000", "151542.019000", "151542.022000", "151542.024000", "151542.027000", "151542.035000", "151542.038000", "151542.041000", "151542.043000", "151542.046000", "151542.049000", "151542.052000", "151542.055000", "151542.058000", "151542.060000", "151542.063000", "151542.066000", "151542.069000", "151542.072000", "151542.075000", "151542.082000", "151542.085000", "151542.088000", "151601.936000", "151601.939000", "151601.942000", "151601.945000", "151601.947000", "151601.955000", "151601.958000", "151601.961000", "151601.963000", "151601.966000", "151601.969000", "151601.972000", "151601.975000", "151601.978000", "151601.980000", "151601.983000", "151601.986000", "151601.989000", "151601.992000", "151601.995000", "151601.997000", "151621.936000", "151621.939000", "151621.941000", "151621.944000", "151621.947000", "151621.950000", "151621.953000", "151621.956000", "151621.959000", "151621.961000", "151621.964000", "151621.967000", "151621.970000", "151621.973000", "151621.976000", "151621.978000", "151621.981000", "151621.984000", "151621.987000", "151621.990000", "151641.936000", "151641.939000", "151641.942000", "151641.944000", "151641.947000", "151641.950000", "151641.953000", "151641.956000", "151641.959000", "151641.961000", "151641.964000", "151641.967000", "151641.970000", "151641.973000", "151641.976000", "151641.978000", "151641.981000", "151641.984000", "151641.987000", "151641.990000", "151721.937000", "151721.940000", "151721.943000", "151721.945000", "151721.948000", "151721.951000", "151721.954000", "151721.957000", "151721.960000", "151721.963000", "151721.965000", "151721.968000", "151721.971000", "151721.974000", "151721.977000", "151721.980000", "151721.982000", "151721.985000", "151721.988000", "151721.991000", "151721.994000", "151721.996000", "151722.000000", "151722.003000", "151722.006000", "151722.009000", "151722.012000", "151722.014000", "151722.017000", "151722.020000", "151801.937000", "151801.940000", "151801.943000", "151801.946000", "151801.949000", "151801.952000", "151801.955000", "151801.958000", "151801.961000", "151801.964000", "151801.966000", "151801.969000", "151801.972000", "151801.975000", "151801.978000", "151801.981000", "151801.984000", "151801.986000", "151801.989000", "151801.992000", "151801.995000", "151801.998000", "151802.002000", "151802.005000", "151802.008000", "151802.011000", "151802.014000", "151821.936000", "151821.939000", "151821.948000", "151821.951000", "151821.953000", "151821.956000", "151821.959000", "151821.962000", "151821.965000", "151821.968000", "151821.970000", "151821.973000", "151821.976000", "151821.979000", "151901.936000", "151901.939000", "151901.942000", "151901.945000", "151901.947000", "151901.950000", "151901.953000", "151901.956000", "151901.959000", "151901.962000", "151901.965000", "151901.968000", "151901.970000", "151901.973000", "151901.976000", "151901.979000", "151901.982000", "151901.985000", "151901.987000", "151901.990000", "151901.993000", "151901.996000", "151902.000000", "151902.003000", "151902.005000", "151902.008000", "151912.508000", "151912.511000", "151912.514000", "151912.517000", "151912.520000", "151912.523000", "151912.525000", "151912.528000"],
      "InstanceNumber": [1, 2, 3, 4, 5, 6, 7, 8, 9, 10, 11, 12, 13, 14, 15, 16, 17, 18, 19, 20, 21, 22, 23, 24, 25, 26, 27, 28, 29, 30, 31, 32, 33, 34, 35, 36, 37, 38, 39, 40, 41, 42, 43, 44, 45, 46, 47, 48, 49, 50, 51, 52, 53, 54, 55, 56, 57, 58, 59, 60, 61, 62, 63, 64, 65, 66, 67, 68, 69, 70, 71, 72, 73, 74, 75, 76, 77, 78, 79, 80, 81, 82, 83, 84, 85, 86, 87, 88, 89, 90, 91, 92, 93, 94, 95, 96, 97, 98, 99, 100, 101, 102, 103, 104, 105, 106, 107, 108, 109, 110, 111, 112, 113, 114, 115, 116, 117, 118, 119, 120, 121, 122, 123, 124, 125, 126, 127, 128, 129, 130, 131, 132, 133, 134, 135, 136, 137, 138, 139, 140, 141, 142, 143, 144, 145, 146, 147, 148, 149, 150, 151, 152, 153, 154, 155, 156, 157, 158, 159, 160, 161, 162, 163, 164, 165, 166, 167, 168, 169, 170, 171, 172, 173, 174, 175, 176, 177, 178, 179, 180, 181, 182, 183, 184, 185, 186, 187, 188, 189, 190, 191, 192, 193, 194, 195, 196, 197, 198, 199, 200, 201, 202],
      "LargestImagePixelValue": [42953, 41744, 40627, 40026, 40986, 41739, 40778, 40227, 39859, 39819, 40515, 39865, 40148, 40660, 40334, 40246, 40165, 40534, 39949, 39484, 39993, 39711, 39412, 39314, 39635, 39479, 39798, 40860, 40174, 39615, 39127, 39083, 40696, 39397, 39554, 39236, 39339, 39320, 39082, 39079, 39465, 39327, 39649, 39460, 38884, 39367, 39803, 39886, 39566, 39254, 39254, 39456, 39314, 39507, 40155, 40232, 39427, 39351, 39240, 39091, 39606, 39838, 39262, 39455, 39133, 39393, 39311, 39185, 39343, 40382, 41144, 40799, 39727, 39101, 39935, 40464, 40383, 39812, 39286, 39530, 39310, 39480, 40265, 40078, 39280, 39465, 40747, 40766, 39426, 39672, 39540, 39571, 39576, 39132, 39647, 40152, 39468, 39566, 39412, 39717, 39803, 39639, 39555, 39890, 39433, 39844, 39995, 39912, 39659, 39897, 40314, 40570, 41137, 41120, 40943, 40826, 40448, 40060, 40690, 40629, 40182, 40169, 40756, 41137, 40434, 40653, 41170, 40599, 40554, 40996, 40676, 40883, 40796, 40889, 40615, 41056, 40789, 40509, 40375, 40719, 40736, 40413, 40106, 40790, 39578, 39484, 39463, 39679, 39983, 40350, 40477, 40394, 39911, 39280, 39596, 39967, 40644, 40106, 40482, 40007, 40044, 40690, 40177, 40175, 40407, 40960, 40969, 40169, 40082, 40390, 40914, 40156, 39349, 39723, 40485, 40167, 40615, 40144, 40584, 40416, 40467, 40004, 40192, 40008, 39828, 39983, 40372, 40524, 40138, 40402, 40255, 40254, 40092, 40079, 40137, 40274, 39850, 38888, 40151, 40766, 39857, 39371],
      "WindowCenter": [10064.0, 10017.0, 9983.0, 9979.0, 10000.0, 10004.0, 9960.0, 9940.0, 9946.0, 9963.0, 9978.0, 9973.0, 9981.0, 9982.0, 9974.0, 9963.0, 9963.0, 9970.0, 9959.0, 9957.0, 9964.0, 9967.0, 9958.0, 9958.0, 9958.0, 9960.0, 9974.0, 9993.0, 9971.0, 9947.0, 9934.0, 9942.0, 9960.0, 9943.0, 9935.0, 9918.0, 9922.0, 9934.0, 9949.0, 9943.0, 9933.0, 9927.0, 9941.0, 9942.0, 9935.0, 9955.0, 9973.0, 9981.0, 9960.0, 9936.0, 9932.0, 9933.0, 9946.0, 9963.0, 9980.0, 9966.0, 9942.0, 9941.0, 9956.0, 9967.0, 9967.0, 9958.0, 9943.0, 9943.0, 9943.0, 9950.0, 9951.0, 9951.0, 9971.0, 10008.0, 10024.0, 9989.0, 9956.0, 9941.0, 9952.0, 9945.0, 9936.0, 9922.0, 9908.0, 9906.0, 9899.0, 9914.0, 9943.0, 9940.0, 9931.0, 9923.0, 9955.0, 9982.0, 9976.0, 9969.0, 9950.0, 9947.0, 9941.0, 9929.0, 9931.0, 9939.0, 9952.0, 9961.0, 9951.0, 9942.0, 9941.0, 9951.0, 9959.0, 9974.0, 9971.0, 9969.0, 9966.0, 9979.0, 9991.0, 9984.0, 9965.0, 9960.0, 9959.0, 9966.0, 9969.0, 9969.0, 9950.0, 9940.0, 9945.0, 9961.0, 9966.0, 9971.0, 9955.0, 9967.0, 9973.0, 9988.0, 10001.0, 10005.0, 10000.0, 9995.0, 9988.0, 9987.0, 9981.0, 9978.0, 9969.0, 9960.0, 9959.0, 9969.0, 9970.0, 9970.0, 9969.0, 9965.0, 9955.0, 9960.0, 9963.0, 9958.0, 9958.0, 9949.0, 9938.0, 9929.0, 9920.0, 9910.0, 9920.0, 9944.0, 9957.0, 9962.0, 9960.0, 9963.0, 9976.0, 9973.0, 9956.0, 9938.0, 9936.0, 9951.0, 9961.0, 9967.0, 9974.0, 9979.0, 9980.0, 9963.0, 9966.0, 9985.0, 10000.0, 9984.0, 9970.0, 9947.0, 9944.0, 9923.0, 9919.0, 9903.0, 9909.0, 9913.0, 9936.0, 9945.0, 9942.0, 9939.0, 9952.0, 9969.0, 9973.0, 9957.0, 9950.0, 9956.0, 9965.0, 9959.0, 9956.0, 9957.0, 9958.0, 9943.0, 9980.0, 9988.0, 9973.0, 9955.0],
      "WindowWidth": [21655.0, 21518.0, 21426.0, 21403.0, 21439.0, 21445.0, 21348.0, 21295.0, 21307.0, 21345.0, 21376.0, 21367.0, 21386.0, 21388.0, 21371.0, 21348.0, 21344.0, 21359.0, 21339.0, 21333.0, 21348.0, 21357.0, 21336.0, 21335.0, 21337.0, 21344.0, 21371.0, 21410.0, 21365.0, 21312.0, 21287.0, 21301.0, 21335.0, 21307.0, 21286.0, 21250.0, 21257.0, 21287.0, 21320.0, 21307.0, 21284.0, 21271.0, 21301.0, 21303.0, 21290.0, 21326.0, 21367.0, 21387.0, 21343.0, 21291.0, 21280.0, 21281.0, 21309.0, 21344.0, 21384.0, 21352.0, 21300.0, 21299.0, 21331.0, 21356.0, 21356.0, 21334.0, 21302.0, 21301.0, 21305.0, 21319.0, 21324.0, 21322.0, 21365.0, 21445.0, 21483.0, 21409.0, 21331.0, 21296.0, 21316.0, 21301.0, 21279.0, 21249.0, 21224.0, 21218.0, 21209.0, 21242.0, 21302.0, 21302.0, 21279.0, 21259.0, 21320.0, 21380.0, 21379.0, 21360.0, 21316.0, 21307.0, 21297.0, 21275.0, 21276.0, 21293.0, 21326.0, 21349.0, 21325.0, 21302.0, 21300.0, 21319.0, 21337.0, 21369.0, 21369.0, 21362.0, 21353.0, 21381.0, 21414.0, 21398.0, 21354.0, 21334.0, 21330.0, 21344.0, 21354.0, 21357.0, 21321.0, 21298.0, 21305.0, 21339.0, 21355.0, 21363.0, 21328.0, 21349.0, 21370.0, 21401.0, 21429.0, 21442.0, 21434.0, 21418.0, 21401.0, 21399.0, 21387.0, 21377.0, 21355.0, 21335.0, 21335.0, 21360.0, 21364.0, 21362.0, 21357.0, 21352.0, 21330.0, 21338.0, 21344.0, 21336.0, 21334.0, 21312.0, 21289.0, 21267.0, 21246.0, 21222.0, 21245.0, 21303.0, 21336.0, 21343.0, 21337.0, 21345.0, 21372.0, 21366.0, 21330.0, 21285.0, 21281.0, 21312.0, 21339.0, 21352.0, 21365.0, 21381.0, 21385.0, 21348.0, 21347.0, 21393.0, 21434.0, 21396.0, 21360.0, 21309.0, 21298.0, 21257.0, 21240.0, 21205.0, 21219.0, 21235.0, 21285.0, 21309.0, 21303.0, 21295.0, 21319.0, 21357.0, 21368.0, 21332.0, 21315.0, 21325.0, 21347.0, 21337.0, 21327.0, 21331.0, 21336.0, 21306.0, 21383.0, 21399.0, 21366.0, 21328.0]
    },
    "slices": {}
  }
}