{
  "AcquisitionMatrixPE": 104,
  "AcquisitionNumber": 1,
  "AcquisitionTime": "09:14:29.437500",
  "BandwidthPerPixelPhaseEncode": 17.17,
  "BaseResolution": 104,
  "BodyPartExamined": "BRAIN",
  "CoilString": "HC1-7;NC1_2",
  "ConsistencyInfo": "N4_VE11C_LATEST_20160120",
  "ConversionSoftware": "dcm2niix",
  "ConversionSoftwareVersion": "v1.0.20200427",
  "DerivedVendorReportedEchoSpacing": 0.000560011,
  "DeviceSerialNumber": "167006",
  "DwellTime": 2.1e-06,
  "EchoTime": 0.037,
  "EchoTrainLength": 104,
  "EffectiveEchoSpacing": 0.000560011,
  "FlipAngle": 52,
  "ImageComments": "Unaliased_MB4_PE3_LB",
  "ImageOrientationPatientDICOM": [0.998935, -0.0455737, 0.0072624, 0.0455361, 0.947832, -0.3155],
  "ImageType": [
    "ORIGINAL",
    "PRIMARY",
    "M",
    "MB",
    "ND",
    "MOSAIC"
],
  "ImagingFrequency": 123.259,
  "InPlanePhaseEncodingDirectionDICOM": "COL",
  "InstitutionAddress": "Chemin_Queen-Mary_4565_Montreal_District_CA_H3W_1W5",
  "InstitutionName": "IUGM",
  "InstitutionalDepartmentName": "Department",
  "MRAcquisitionType": "2D",
  "MagneticFieldStrength": 3,
  "Manufacturer": "Siemens",
  "ManufacturersModelName": "Prisma_fit",
  "Modality": "MR",
  "MultibandAccelerationFactor": 4,
  "PartialFourier": 1,
  "PatientPosition": "HFS",
  "PercentPhaseFOV": 100,
  "PercentSampling": 100,
  "PhaseEncodingDirection": "j",
  "PhaseEncodingSteps": 104,
  "PhaseResolution": 1,
  "PixelBandwidth": 2290,
  "ProcedureStepDescription": "hcptrt_generic",
  "ProtocolName": "func_task-relational_run-1",
  "PulseSequenceDetails": "%CustomerSeq%_cmrr_mbep2d_bold",
  "ReceiveCoilActiveElements": "HC1-7;NC1,2",
  "ReceiveCoilName": "HeadNeck_64",
  "ReconMatrixPE": 104,
  "RepetitionTime": 1.49,
  "SAR": 0.0293556,
  "ScanOptions": "FS",
  "ScanningSequence": "EP",
  "SequenceName": "epfid2d1_104",
  "SequenceVariant": "SK_SS",
  "SeriesDescription": "func_task-relational_run-1",
  "SeriesNumber": 9,
  "ShimSetting": [638, -7263, -8832, 594, 15, -241, -66, -2],
  "SliceThickness": 2,
  "SliceTiming": [0, 0.7825, 0.0975, 0.8825, 0.195, 0.98, 0.2925, 1.0775, 0.3925, 1.175, 0.49, 1.2725, 0.5875, 1.37, 0.685, 0, 0.7825, 0.0975, 0.8825, 0.195, 0.98, 0.2925, 1.0775, 0.3925, 1.175, 0.49, 1.2725, 0.5875, 1.37, 0.685, 0, 0.7825, 0.0975, 0.8825, 0.195, 0.98, 0.2925, 1.0775, 0.3925, 1.175, 0.49, 1.2725, 0.5875, 1.37, 0.685, 0, 0.7825, 0.0975, 0.8825, 0.195, 0.98, 0.2925, 1.0775, 0.3925, 1.175, 0.49, 1.2725, 0.5875, 1.37, 0.685],
  "SoftwareVersions": "syngo_MR_E11",
  "SpacingBetweenSlices": 2,
  "StationName": "MRC35049",
  "TaskName": "relational",
  "TotalReadoutTime": 0.0576811,
  "TxRefAmp": 217.754,
  "WipMemBlock": "6d824970-0b55-42f9-855b-3c218f052da2||Sequence: R016 ve11c/master r/e634e98; Dec 19 2017 11:00:25 by eja",
  "dcmmeta_affine": [
    [-1.9978691339492798, 0.09107214957475662, -0.014989948831498623, 102.70842742919922],
    [0.09114748984575272, 1.8956648111343384, -0.630989134311676, -66.7249984741211],
    [0.014524808153510094, 0.6309999823570251, 1.897795557975769, -63.495243072509766],
    [0.0, 0.0, 0.0, 1.0]
],
  "dcmmeta_reorient_transform": [
    [0.0, -1.0, 0.0, 103.0],
    [1.0, 0.0, 0.0, 0.0],
    [0.0, 0.0, 1.0, 0.0],
    [0.0, 0.0, 0.0, 1.0]
],
  "dcmmeta_shape": [104, 104, 60, 119],
  "dcmmeta_slice_dim": 2,
  "dcmmeta_version": 0.6,
  "global": {
    "const": {
      "AcquisitionMatrix": [104, 0, 0, 104],
      "AngioFlag": "N",
      "BitsAllocated": 16,
      "BitsStored": 16,
      "BodyPartExamined": "BRAIN",
      "Columns": 832,
      "EchoNumbers": 1,
      "EchoTime": 37.0,
      "EchoTrainLength": 104,
      "FlipAngle": 52.0,
      "HighBit": 15,
      "ImageOrientationPatient": [0.99893457803776, -0.0455737455605, 0.00726240429249, 0.04553607533118, 0.94783237901069, -0.3154999954713],
      "ImagePositionPatient": [-872.46349513631, -785.37275984329, 225.89472352919],
      "ImageType": [
        "ORIGINAL",
        "PRIMARY",
        "M",
        "MB",
        "ND",
        "MOSAIC"
],
      "ImagedNucleus": "1H",
      "ImagingFrequency": 123.259292,
      "InPlanePhaseEncodingDirection": "COL",
      "MRAcquisitionType": "2D",
      "MagneticFieldStrength": 3.0,
      "Manufacturer": "SIEMENS",
      "ManufacturerModelName": "Prisma_fit",
      "Modality": "MR",
      "NumberOfAverages": 1.0,
      "NumberOfPhaseEncodingSteps": 104,
      "PercentPhaseFieldOfView": 100.0,
      "PercentSampling": 100.0,
      "PerformedProcedureStepStartTime": "085742.516000",
      "PhotometricInterpretation": "MONOCHROME2",
      "PixelBandwidth": 2290.0,
      "PixelRepresentation": 0,
      "PixelSpacing": [2.0, 2.0],
      "ProtocolName": "func_task-relational_run-1",
      "RepetitionTime": 1490.0,
      "Rows": 832,
      "SAR": 0.02935564887852,
      "SamplesPerPixel": 1,
      "ScanOptions": "FS",
      "ScanningSequence": "EP",
      "SequenceName": "epfid2d1_104",
      "SequenceVariant": [
        "SK",
        "SS"
],
      "SeriesDescription": "func_task-relational_run-1",
      "SeriesNumber": 9,
      "SeriesTime": "091557.838000",
      "SliceLocation": -39.96891879281,
      "SliceThickness": 2.0,
      "SmallestImagePixelValue": 0,
      "SoftwareVersions": "syngo MR E11",
      "SpacingBetweenSlices": 2.0000000143659,
      "SpecificCharacterSet": "ISO_IR 100",
      "StudyID": "1",
      "StudyTime": "085742.367000",
      "TransmitCoilName": "Body",
      "VariableFlipAngleFlag": "N",
      "WindowCenterWidthExplanation": "Algo1",
      "dBdt": 0.0},
    "slices": {}
  },
  "time": {
    "samples": {
      "AcquisitionNumber": [1, 2, 3, 4, 5, 6, 7, 8, 9, 10, 11, 12, 13, 14, 15, 16, 17, 18, 19, 20, 21, 22, 23, 24, 25, 26, 27, 28, 29, 30, 31, 32, 33, 34, 35, 36, 37, 38, 39, 40, 41, 42, 43, 44, 45, 46, 47, 48, 49, 50, 51, 52, 53, 54, 55, 56, 57, 58, 59, 60, 61, 62, 63, 64, 65, 66, 67, 68, 69, 70, 71, 72, 73, 74, 75, 76, 77, 78, 79, 80, 81, 82, 83, 84, 85, 86, 87, 88, 89, 90, 91, 92, 93, 94, 95, 96, 97, 98, 99, 100, 101, 102, 103, 104, 105, 106, 107, 108, 109, 110, 111, 112, 113, 114, 115, 116, 117, 118, 119],
      "AcquisitionTime": ["091429.437500", "091430.927500", "091432.417500", "091433.907500", "091435.397500", "091436.887500", "091438.377500", "091439.867500", "091441.357500", "091442.847500", "091444.337500", "091445.827500", "091447.317500", "091448.807500", "091450.297500", "091451.787500", "091453.277500", "091454.767500", "091456.257500", "091457.747500", "091459.237500", "091500.727500", "091502.217500", "091503.707500", "091505.197500", "091506.687500", "091508.177500", "091509.667500", "091511.157500", "091512.647500", "091514.137500", "091515.627500", "091517.117500", "091518.607500", "091520.097500", "091521.587500", "091523.077500", "091524.567500", "091526.057500", "091527.547500", "091529.037500", "091530.527500", "091532.017500", "091533.507500", "091534.997500", "091536.487500", "091537.977500", "091539.467500", "091540.957500", "091542.447500", "091543.937500", "091545.427500", "091546.917500", "091548.407500", "091549.897500", "091551.387500", "091552.877500", "091554.367500", "091555.857500", "091557.347500", "091558.837500", "091600.327500", "091601.817500", "091603.307500", "091604.797500", "091606.287500", "091607.777500", "091609.267500", "091610.757500", "091612.247500", "091613.737500", "091615.227500", "091616.717500", "091618.207500", "091619.697500", "091621.187500", "091622.677500", "091624.167500", "091625.657500", "091627.147500", "091628.637500", "091630.127500", "091631.617500", "091633.107500", "091634.597500", "091636.087500", "091637.577500", "091639.067500", "091640.557500", "091642.047500", "091643.537500", "091645.027500", "091646.517500", "091648.007500", "091649.497500", "091650.987500", "091652.477500", "091653.967500", "091655.457500", "091656.947500", "091658.437500", "091659.927500", "091701.417500", "091702.907500", "091704.397500", "091705.887500", "091707.377500", "091708.867500", "091710.357500", "091711.847500", "091713.337500", "091714.827500", "091716.317500", "091717.807500", "091719.297500", "091720.787500", "091722.277500", "091723.767500", "091725.257500"],
      "ContentTime": ["091557.840000", "091557.844000", "091557.846000", "091557.849000", "091557.852000", "091557.855000", "091557.866000", "091557.869000", "091557.872000", "091557.878000", "091557.881000", "091557.884000", "091557.887000", "091557.890000", "091557.892000", "091557.902000", "091557.904000", "091557.907000", "091557.910000", "091557.913000", "091557.916000", "091557.919000", "091557.921000", "091557.924000", "091557.927000", "091557.930000", "091557.933000", "091557.936000", "091557.939000", "091557.941000", "091557.944000", "091557.947000", "091557.950000", "091557.953000", "091617.799000", "091617.802000", "091617.805000", "091617.808000", "091617.810000", "091617.813000", "091617.816000", "091617.819000", "091617.822000", "091617.825000", "091617.827000", "091617.830000", "091617.833000", "091617.836000", "091617.839000", "091617.841000", "091617.844000", "091617.847000", "091617.850000", "091617.853000", "091637.800000", "091637.803000", "091637.806000", "091637.809000", "091637.811000", "091637.814000", "091637.817000", "091637.820000", "091637.823000", "091637.826000", "091637.829000", "091637.832000", "091637.834000", "091637.837000", "091637.840000", "091637.843000", "091637.846000", "091637.849000", "091637.851000", "091637.854000", "091657.799000", "091657.802000", "091657.804000", "091657.807000", "091657.810000", "091657.813000", "091657.816000", "091657.819000", "091657.822000", "091657.825000", "091657.827000", "091657.830000", "091657.833000", "091657.836000", "091657.839000", "091657.842000", "091657.844000", "091657.847000", "091657.850000", "091657.853000", "091657.856000", "091727.237000", "091727.240000", "091727.243000", "091727.246000", "091727.249000", "091727.252000", "091727.255000", "091727.258000", "091727.261000", "091727.264000", "091727.267000", "091727.271000", "091727.274000", "091727.276000", "091727.279000", "091727.283000", "091727.286000", "091727.289000", "091727.292000", "091727.295000", "091727.297000", "091727.300000", "091727.303000", "091727.306000"],
      "InstanceCreationTime": ["091557.840000", "091557.844000", "091557.846000", "091557.849000", "091557.852000", "091557.855000", "091557.866000", "091557.869000", "091557.872000", "091557.878000", "091557.881000", "091557.884000", "091557.887000", "091557.890000", "091557.892000", "091557.902000", "091557.904000", "091557.907000", "091557.910000", "091557.913000", "091557.916000", "091557.919000", "091557.921000", "091557.924000", "091557.927000", "091557.930000", "091557.933000", "091557.936000", "091557.939000", "091557.941000", "091557.944000", "091557.947000", "091557.950000", "091557.953000", "091617.799000", "091617.802000", "091617.805000", "091617.808000", "091617.810000", "091617.813000", "091617.816000", "091617.819000", "091617.822000", "091617.825000", "091617.827000", "091617.830000", "091617.833000", "091617.836000", "091617.839000", "091617.841000", "091617.844000", "091617.847000", "091617.850000", "091617.853000", "091637.800000", "091637.803000", "091637.806000", "091637.809000", "091637.811000", "091637.814000", "091637.817000", "091637.820000", "091637.823000", "091637.826000", "091637.829000", "091637.832000", "091637.834000", "091637.837000", "091637.840000", "091637.843000", "091637.846000", "091637.849000", "091637.851000", "091637.854000", "091657.799000", "091657.802000", "091657.804000", "091657.807000", "091657.810000", "091657.813000", "091657.816000", "091657.819000", "091657.822000", "091657.825000", "091657.827000", "091657.830000", "091657.833000", "091657.836000", "091657.839000", "091657.842000", "091657.844000", "091657.847000", "091657.850000", "091657.853000", "091657.856000", "091727.237000", "091727.240000", "091727.243000", "091727.246000", "091727.249000", "091727.252000", "091727.255000", "091727.258000", "091727.261000", "091727.264000", "091727.267000", "091727.271000", "091727.274000", "091727.276000", "091727.279000", "091727.283000", "091727.286000", "091727.289000", "091727.292000", "091727.295000", "091727.297000", "091727.300000", "091727.303000", "091727.306000"],
      "InstanceNumber": [1, 2, 3, 4, 5, 6, 7, 8, 9, 10, 11, 12, 13, 14, 15, 16, 17, 18, 19, 20, 21, 22, 23, 24, 25, 26, 27, 28, 29, 30, 31, 32, 33, 34, 35, 36, 37, 38, 39, 40, 41, 42, 43, 44, 45, 46, 47, 48, 49, 50, 51, 52, 53, 54, 55, 56, 57, 58, 59, 60, 61, 62, 63, 64, 65, 66, 67, 68, 69, 70, 71, 72, 73, 74, 75, 76, 77, 78, 79, 80, 81, 82, 83, 84, 85, 86, 87, 88, 89, 90, 91, 92, 93, 94, 95, 96, 97, 98, 99, 100, 101, 102, 103, 104, 105, 106, 107, 108, 109, 110, 111, 112, 113, 114, 115, 116, 117, 118, 119],
      "LargestImagePixelValue": [44179, 42965, 42012, 41251, 40849, 41130, 41363, 41004, 40847, 39828, 40317, 40777, 41418, 41113, 41574, 41541, 41162, 40751, 41344, 41619, 39941, 39885, 40668, 40696, 41719, 41866, 41610, 41678, 41140, 40406, 40580, 40415, 40254, 40578, 40813, 40771, 41104, 41240, 41163, 41145, 40985, 40983, 40960, 41179, 40898, 40837, 41317, 40641, 40618, 40858, 40240, 40638, 40892, 40616, 40884, 40695, 40287, 40437, 40757, 40887, 40745, 41233, 40893, 40913, 40453, 40704, 40239, 40648, 40834, 41045, 40503, 40610, 40955, 40608, 40447, 40467, 41039, 40767, 40769, 40260, 40897, 41268, 40890, 41485, 41136, 41192, 41233, 41452, 41147, 41174, 40585, 40644, 41021, 41013, 40660, 41534, 41407, 41313, 41515, 41507, 41034, 40848, 40620, 40789, 41196, 41078, 41351, 40943, 41148, 41038, 41059, 40996, 41061, 40949, 41288, 41101, 40164, 39859, 41558],
      "WindowCenter": [10027.0, 9968.0, 9947.0, 9931.0, 9914.0, 9894.0, 9889.0, 9896.0, 9922.0, 9922.0, 9921.0, 9916.0, 9927.0, 9924.0, 9915.0, 9913.0, 9906.0, 9901.0, 9907.0, 9927.0, 9919.0, 9910.0, 9898.0, 9895.0, 9901.0, 9894.0, 9872.0, 9869.0, 9880.0, 9870.0, 9866.0, 9873.0, 9883.0, 9884.0, 9873.0, 9864.0, 9879.0, 9894.0, 9889.0, 9887.0, 9890.0, 9907.0, 9908.0, 9904.0, 9905.0, 9920.0, 9937.0, 9936.0, 9927.0, 9915.0, 9902.0, 9907.0, 9914.0, 9900.0, 9884.0, 9881.0, 9889.0, 9901.0, 9915.0, 9922.0, 9917.0, 9916.0, 9917.0, 9916.0, 9911.0, 9918.0, 9912.0, 9894.0, 9883.0, 9889.0, 9897.0, 9898.0, 9891.0, 9893.0, 9902.0, 9903.0, 9891.0, 9882.0, 9900.0, 9923.0, 9931.0, 9922.0, 9909.0, 9922.0, 9922.0, 9921.0, 9921.0, 9914.0, 9912.0, 9913.0, 9901.0, 9899.0, 9913.0, 9915.0, 9899.0, 9893.0, 9893.0, 9903.0, 9905.0, 9918.0, 9914.0, 9906.0, 9884.0, 9873.0, 9877.0, 9879.0, 9870.0, 9857.0, 9877.0, 9880.0, 9880.0, 9871.0, 9878.0, 9889.0, 9902.0, 9912.0, 9917.0, 9911.0, 9914.0],
      "WindowWidth": [21560.0, 21389.0, 21320.0, 21278.0, 21233.0, 21182.0, 21165.0, 21183.0, 21242.0, 21247.0, 21239.0, 21222.0, 21242.0, 21238.0, 21221.0, 21211.0, 21198.0, 21189.0, 21206.0, 21249.0, 21238.0, 21215.0, 21185.0, 21174.0, 21182.0, 21164.0, 21118.0, 21110.0, 21137.0, 21125.0, 21117.0, 21131.0, 21155.0, 21156.0, 21128.0, 21108.0, 21138.0, 21171.0, 21161.0, 21156.0, 21167.0, 21205.0, 21207.0, 21197.0, 21193.0, 21227.0, 21266.0, 21266.0, 21243.0, 21215.0, 21187.0, 21197.0, 21212.0, 21185.0, 21148.0, 21141.0, 21157.0, 21189.0, 21220.0, 21234.0, 21224.0, 21220.0, 21221.0, 21219.0, 21211.0, 21225.0, 21213.0, 21175.0, 21147.0, 21158.0, 21175.0, 21178.0, 21162.0, 21169.0, 21191.0, 21192.0, 21163.0, 21144.0, 21182.0, 21234.0, 21249.0, 21228.0, 21203.0, 21227.0, 21231.0, 21230.0, 21227.0, 21212.0, 21207.0, 21210.0, 21187.0, 21183.0, 21212.0, 21214.0, 21178.0, 21160.0, 21160.0, 21184.0, 21192.0, 21219.0, 21212.0, 21195.0, 21150.0, 21126.0, 21130.0, 21134.0, 21112.0, 21087.0, 21128.0, 21139.0, 21138.0, 21120.0, 21131.0, 21158.0, 21183.0, 21203.0, 21219.0, 21222.0, 21229.0]
    },
    "slices": {}
  }
}