{
  "AcquisitionMatrixPE": 104,
  "AcquisitionNumber": 1,
  "AcquisitionTime": "09:39:21.605000",
  "BandwidthPerPixelPhaseEncode": 17.17,
  "BaseResolution": 104,
  "BodyPartExamined": "BRAIN",
  "CoilString": "HC1-7;NC1_2",
  "ConsistencyInfo": "N4_VE11C_LATEST_20160120",
  "ConversionSoftware": "dcm2niix",
  "ConversionSoftwareVersion": "v1.0.20200427",
  "DerivedVendorReportedEchoSpacing": 0.000560011,
  "DeviceSerialNumber": "167006",
  "DwellTime": 2.1e-06,
  "EchoTime": 0.037,
  "EchoTrainLength": 104,
  "EffectiveEchoSpacing": 0.000560011,
  "FlipAngle": 52,
  "ImageComments": "Unaliased_MB4_PE3_LB",
  "ImageOrientationPatientDICOM": [0.998935, -0.0455737, 0.0072624, 0.0455361, 0.947832, -0.3155],
  "ImageType": [
    "ORIGINAL",
    "PRIMARY",
    "M",
    "MB",
    "ND",
    "MOSAIC"
],
  "ImagingFrequency": 123.259,
  "InPlanePhaseEncodingDirectionDICOM": "COL",
  "InstitutionAddress": "Chemin_Queen-Mary_4565_Montreal_District_CA_H3W_1W5",
  "InstitutionName": "IUGM",
  "InstitutionalDepartmentName": "Department",
  "MRAcquisitionType": "2D",
  "MagneticFieldStrength": 3,
  "Manufacturer": "Siemens",
  "ManufacturersModelName": "Prisma_fit",
  "Modality": "MR",
  "MultibandAccelerationFactor": 4,
  "PartialFourier": 1,
  "PatientPosition": "HFS",
  "PercentPhaseFOV": 100,
  "PercentSampling": 100,
  "PhaseEncodingDirection": "j",
  "PhaseEncodingSteps": 104,
  "PhaseResolution": 1,
  "PixelBandwidth": 2290,
  "ProcedureStepDescription": "hcptrt_generic",
  "ProtocolName": "func_task-motor_run-1",
  "PulseSequenceDetails": "%CustomerSeq%_cmrr_mbep2d_bold",
  "ReceiveCoilActiveElements": "HC1-7;NC1,2",
  "ReceiveCoilName": "HeadNeck_64",
  "ReconMatrixPE": 104,
  "RepetitionTime": 1.49,
  "SAR": 0.0294351,
  "ScanOptions": "FS",
  "ScanningSequence": "EP",
  "SequenceName": "epfid2d1_104",
  "SequenceVariant": "SK_SS",
  "SeriesDescription": "func_task-motor_run-1",
  "SeriesNumber": 19,
  "ShimSetting": [638, -7263, -8832, 594, 15, -241, -66, -2],
  "SliceThickness": 2,
  "SliceTiming": [0, 0.7825, 0.0975, 0.88, 0.195, 0.98, 0.2925, 1.0775, 0.3925, 1.175, 0.49, 1.2725, 0.5875, 1.37, 0.685, 0, 0.7825, 0.0975, 0.88, 0.195, 0.98, 0.2925, 1.0775, 0.3925, 1.175, 0.49, 1.2725, 0.5875, 1.37, 0.685, 0, 0.7825, 0.0975, 0.88, 0.195, 0.98, 0.2925, 1.0775, 0.3925, 1.175, 0.49, 1.2725, 0.5875, 1.37, 0.685, 0, 0.7825, 0.0975, 0.88, 0.195, 0.98, 0.2925, 1.0775, 0.3925, 1.175, 0.49, 1.2725, 0.5875, 1.37, 0.685],
  "SoftwareVersions": "syngo_MR_E11",
  "SpacingBetweenSlices": 2,
  "StationName": "MRC35049",
  "TaskName": "motor",
  "TotalReadoutTime": 0.0576811,
  "TxRefAmp": 217.754,
  "WipMemBlock": "40d66dd1-8e3d-4d74-a432-5c79c956fa31||Sequence: R016 ve11c/master r/e634e98; Dec 19 2017 11:00:25 by eja",
  "dcmmeta_affine": [
    [-1.9978691339492798, 0.09107214957475662, -0.014989948831498623, 102.70842742919922],
    [0.09114748984575272, 1.8956648111343384, -0.630989134311676, -66.7249984741211],
    [0.014524808153510094, 0.6309999823570251, 1.897795557975769, -63.495243072509766],
    [0.0, 0.0, 0.0, 1.0]
],
  "dcmmeta_reorient_transform": [
    [0.0, -1.0, 0.0, 103.0],
    [1.0, 0.0, 0.0, 0.0],
    [0.0, 0.0, 1.0, 0.0],
    [0.0, 0.0, 0.0, 1.0]
],
  "dcmmeta_shape": [104, 104, 60, 144],
  "dcmmeta_slice_dim": 2,
  "dcmmeta_version": 0.6,
  "global": {
    "const": {
      "AcquisitionMatrix": [104, 0, 0, 104],
      "AngioFlag": "N",
      "BitsAllocated": 16,
      "BitsStored": 16,
      "BodyPartExamined": "BRAIN",
      "Columns": 832,
      "EchoNumbers": 1,
      "EchoTime": 37.0,
      "EchoTrainLength": 104,
      "FlipAngle": 52.0,
      "HighBit": 15,
      "ImageOrientationPatient": [0.99893457803776, -0.0455737455605, 0.00726240429249, 0.04553607533118, 0.94783237901069, -0.3154999954713],
      "ImagePositionPatient": [-872.46349513631, -785.37275984329, 225.89472352919],
      "ImageType": [
        "ORIGINAL",
        "PRIMARY",
        "M",
        "MB",
        "ND",
        "MOSAIC"
],
      "ImagedNucleus": "1H",
      "ImagingFrequency": 123.259309,
      "InPlanePhaseEncodingDirection": "COL",
      "MRAcquisitionType": "2D",
      "MagneticFieldStrength": 3.0,
      "Manufacturer": "SIEMENS",
      "ManufacturerModelName": "Prisma_fit",
      "Modality": "MR",
      "NumberOfAverages": 1.0,
      "NumberOfPhaseEncodingSteps": 104,
      "PercentPhaseFieldOfView": 100.0,
      "PercentSampling": 100.0,
      "PerformedProcedureStepStartTime": "085742.516000",
      "PhotometricInterpretation": "MONOCHROME2",
      "PixelBandwidth": 2290.0,
      "PixelRepresentation": 0,
      "PixelSpacing": [2.0, 2.0],
      "ProtocolName": "func_task-motor_run-1",
      "RepetitionTime": 1490.0,
      "Rows": 832,
      "SAR": 0.0294350810905,
      "SamplesPerPixel": 1,
      "ScanOptions": "FS",
      "ScanningSequence": "EP",
      "SequenceName": "epfid2d1_104",
      "SequenceVariant": [
        "SK",
        "SS"
],
      "SeriesDescription": "func_task-motor_run-1",
      "SeriesNumber": 19,
      "SeriesTime": "094037.836000",
      "SliceLocation": -39.96891879281,
      "SliceThickness": 2.0,
      "SmallestImagePixelValue": 0,
      "SoftwareVersions": "syngo MR E11",
      "SpacingBetweenSlices": 2.0000000143659,
      "SpecificCharacterSet": "ISO_IR 100",
      "StudyID": "1",
      "StudyTime": "085742.367000",
      "TransmitCoilName": "Body",
      "VariableFlipAngleFlag": "N",
      "WindowCenterWidthExplanation": "Algo1",
      "dBdt": 0.0},
    "slices": {}
  },
  "time": {
    "samples": {
      "AcquisitionNumber": [1, 2, 3, 4, 5, 6, 7, 8, 9, 10, 11, 12, 13, 14, 15, 16, 17, 18, 19, 20, 21, 22, 23, 24, 25, 26, 27, 28, 29, 30, 31, 32, 33, 34, 35, 36, 37, 38, 39, 40, 41, 42, 43, 44, 45, 46, 47, 48, 49, 50, 51, 52, 53, 54, 55, 56, 57, 58, 59, 60, 61, 62, 63, 64, 65, 66, 67, 68, 69, 70, 71, 72, 73, 74, 75, 76, 77, 78, 79, 80, 81, 82, 83, 84, 85, 86, 87, 88, 89, 90, 91, 92, 93, 94, 95, 96, 97, 98, 99, 100, 101, 102, 103, 104, 105, 106, 107, 108, 109, 110, 111, 112, 113, 114, 115, 116, 117, 118, 119, 120, 121, 122, 123, 124, 125, 126, 127, 128, 129, 130, 131, 132, 133, 134, 135, 136, 137, 138, 139, 140, 141, 142, 143, 144],
      "AcquisitionTime": ["093921.605000", "093923.095000", "093924.585000", "093926.075000", "093927.565000", "093929.055000", "093930.545000", "093932.035000", "093933.525000", "093935.015000", "093936.505000", "093937.995000", "093939.485000", "093940.975000", "093942.465000", "093943.955000", "093945.445000", "093946.935000", "093948.425000", "093949.915000", "093951.405000", "093952.895000", "093954.385000", "093955.875000", "093957.365000", "093958.855000", "094000.345000", "094001.835000", "094003.325000", "094004.815000", "094006.305000", "094007.795000", "094009.285000", "094010.775000", "094012.265000", "094013.755000", "094015.245000", "094016.735000", "094018.225000", "094019.715000", "094021.205000", "094022.695000", "094024.185000", "094025.675000", "094027.165000", "094028.655000", "094030.145000", "094031.635000", "094033.125000", "094034.615000", "094036.105000", "094037.595000", "094039.085000", "094040.575000", "094042.065000", "094043.555000", "094045.045000", "094046.535000", "094048.025000", "094049.515000", "094051.005000", "094052.495000", "094053.985000", "094055.475000", "094056.965000", "094058.455000", "094059.945000", "094101.435000", "094102.925000", "094104.415000", "094105.905000", "094107.395000", "094108.885000", "094110.375000", "094111.865000", "094113.355000", "094114.845000", "094116.335000", "094117.825000", "094119.315000", "094120.805000", "094122.295000", "094123.785000", "094125.275000", "094126.765000", "094128.255000", "094129.745000", "094131.235000", "094132.725000", "094134.215000", "094135.705000", "094137.195000", "094138.685000", "094140.175000", "094141.665000", "094143.155000", "094144.645000", "094146.135000", "094147.625000", "094149.115000", "094150.605000", "094152.095000", "094153.585000", "094155.075000", "094156.565000", "094158.055000", "094159.545000", "094201.035000", "094202.525000", "094204.015000", "094205.505000", "094206.995000", "094208.485000", "094209.975000", "094211.465000", "094212.955000", "094214.445000", "094215.935000", "094217.425000", "094218.915000", "094220.405000", "094221.895000", "094223.385000", "094224.875000", "094226.365000", "094227.855000", "094229.345000", "094230.835000", "094232.325000", "094233.815000", "094235.305000", "094236.795000", "094238.285000", "094239.775000", "094241.265000", "094242.755000", "094244.245000", "094245.735000", "094247.225000", "094248.715000", "094250.205000", "094251.695000", "094253.185000", "094254.675000"],
      "ContentTime": ["094037.838000", "094037.842000", "094037.844000", "094037.847000", "094037.850000", "094037.853000", "094037.856000", "094037.859000", "094037.863000", "094037.866000", "094037.869000", "094037.872000", "094037.875000", "094037.878000", "094037.881000", "094037.884000", "094037.891000", "094037.894000", "094037.897000", "094037.900000", "094037.903000", "094037.906000", "094037.908000", "094057.799000", "094057.842000", "094057.845000", "094057.848000", "094057.851000", "094057.854000", "094057.857000", "094057.860000", "094057.862000", "094057.865000", "094057.868000", "094057.871000", "094057.874000", "094057.877000", "094057.880000", "094057.883000", "094057.890000", "094057.893000", "094057.896000", "094057.899000", "094117.799000", "094117.802000", "094117.805000", "094117.808000", "094117.811000", "094117.814000", "094117.817000", "094117.820000", "094117.823000", "094117.826000", "094117.828000", "094117.831000", "094117.834000", "094117.837000", "094117.840000", "094117.843000", "094117.846000", "094117.849000", "094117.852000", "094117.855000", "094137.799000", "094137.802000", "094137.805000", "094137.808000", "094137.810000", "094137.813000", "094137.816000", "094137.819000", "094137.822000", "094137.825000", "094137.828000", "094137.831000", "094137.833000", "094137.836000", "094137.839000", "094137.842000", "094137.845000", "094137.848000", "094137.850000", "094137.853000", "094157.799000", "094157.802000", "094157.805000", "094157.808000", "094157.810000", "094157.813000", "094157.816000", "094157.819000", "094157.822000", "094157.825000", "094157.828000", "094157.831000", "094157.833000", "094157.836000", "094157.839000", "094157.842000", "094157.845000", "094157.847000", "094157.850000", "094157.853000", "094237.799000", "094237.802000", "094237.805000", "094237.808000", "094237.811000", "094237.813000", "094237.816000", "094237.819000", "094237.822000", "094237.825000", "094237.828000", "094237.831000", "094237.833000", "094237.836000", "094237.839000", "094237.842000", "094237.845000", "094237.848000", "094237.850000", "094237.853000", "094237.856000", "094237.859000", "094237.862000", "094237.865000", "094237.867000", "094237.870000", "094237.873000", "094237.876000", "094257.070000", "094257.074000", "094257.077000", "094257.079000", "094257.082000", "094257.085000", "094257.088000", "094257.091000", "094257.094000", "094257.097000", "094257.100000", "094257.103000", "094257.105000"],
      "InstanceCreationTime": ["094037.838000", "094037.842000", "094037.844000", "094037.847000", "094037.850000", "094037.853000", "094037.856000", "094037.859000", "094037.863000", "094037.866000", "094037.869000", "094037.872000", "094037.875000", "094037.878000", "094037.881000", "094037.884000", "094037.891000", "094037.894000", "094037.897000", "094037.900000", "094037.903000", "094037.906000", "094037.908000", "094057.799000", "094057.842000", "094057.845000", "094057.848000", "094057.851000", "094057.854000", "094057.857000", "094057.860000", "094057.862000", "094057.865000", "094057.868000", "094057.871000", "094057.874000", "094057.877000", "094057.880000", "094057.883000", "094057.890000", "094057.893000", "094057.896000", "094057.899000", "094117.799000", "094117.802000", "094117.805000", "094117.808000", "094117.811000", "094117.814000", "094117.817000", "094117.820000", "094117.823000", "094117.826000", "094117.828000", "094117.831000", "094117.834000", "094117.837000", "094117.840000", "094117.843000", "094117.846000", "094117.849000", "094117.852000", "094117.855000", "094137.799000", "094137.802000", "094137.805000", "094137.808000", "094137.810000", "094137.813000", "094137.816000", "094137.819000", "094137.822000", "094137.825000", "094137.828000", "094137.831000", "094137.833000", "094137.836000", "094137.839000", "094137.842000", "094137.845000", "094137.848000", "094137.850000", "094137.853000", "094157.799000", "094157.802000", "094157.805000", "094157.808000", "094157.810000", "094157.813000", "094157.816000", "094157.819000", "094157.822000", "094157.825000", "094157.828000", "094157.831000", "094157.833000", "094157.836000", "094157.839000", "094157.842000", "094157.845000", "094157.847000", "094157.850000", "094157.853000", "094237.799000", "094237.802000", "094237.805000", "094237.808000", "094237.811000", "094237.813000", "094237.816000", "094237.819000", "094237.822000", "094237.825000", "094237.828000", "094237.831000", "094237.833000", "094237.836000", "094237.839000", "094237.842000", "094237.845000", "094237.848000", "094237.850000", "094237.853000", "094237.856000", "094237.859000", "094237.862000", "094237.865000", "094237.867000", "094237.870000", "094237.873000", "094237.876000", "094257.070000", "094257.074000", "094257.077000", "094257.079000", "094257.082000", "094257.085000", "094257.088000", "094257.091000", "094257.094000", "094257.097000", "094257.100000", "094257.103000", "094257.105000"],
      "InstanceNumber": [1, 2, 3, 4, 5, 6, 7, 8, 9, 10, 11, 12, 13, 14, 15, 16, 17, 18, 19, 20, 21, 22, 23, 24, 25, 26, 27, 28, 29, 30, 31, 32, 33, 34, 35, 36, 37, 38, 39, 40, 41, 42, 43, 44, 45, 46, 47, 48, 49, 50, 51, 52, 53, 54, 55, 56, 57, 58, 59, 60, 61, 62, 63, 64, 65, 66, 67, 68, 69, 70, 71, 72, 73, 74, 75, 76, 77, 78, 79, 80, 81, 82, 83, 84, 85, 86, 87, 88, 89, 90, 91, 92, 93, 94, 95, 96, 97, 98, 99, 100, 101, 102, 103, 104, 105, 106, 107, 108, 109, 110, 111, 112, 113, 114, 115, 116, 117, 118, 119, 120, 121, 122, 123, 124, 125, 126, 127, 128, 129, 130, 131, 132, 133, 134, 135, 136, 137, 138, 139, 140, 141, 142, 143, 144],
      "LargestImagePixelValue": [43048, 41747, 40670, 38888, 39820, 39498, 39707, 40247, 38358, 40283, 39574, 39040, 38481, 38632, 40511, 39224, 38137, 38101, 38476, 38041, 38155, 39419, 38422, 38559, 38317, 38623, 39972, 40150, 40543, 39455, 39322, 38370, 39194, 39546, 38160, 39881, 39438, 38888, 39072, 39857, 39659, 38921, 39917, 39011, 38828, 38962, 38949, 39328, 39765, 39813, 40549, 39997, 37940, 38472, 39058, 39134, 39343, 39559, 38998, 39378, 39885, 40567, 38867, 38933, 38920, 38983, 39722, 40080, 39508, 40747, 39926, 39156, 39275, 39373, 39392, 39361, 39292, 39288, 39219, 40178, 39629, 39265, 39225, 39573, 39502, 39642, 39289, 39794, 39800, 39548, 39470, 39730, 40828, 39277, 39940, 39951, 39630, 39262, 39988, 39535, 39295, 39617, 39602, 39643, 40195, 40342, 39762, 39684, 39538, 39398, 39594, 39696, 40170, 40337, 39979, 39989, 39345, 40041, 39927, 39688, 39219, 39372, 39065, 39820, 39653, 39605, 40557, 39767, 39517, 39786, 39450, 39628, 39779, 39543, 40000, 39618, 39882, 40093, 39663, 39732, 39510, 39522, 39758, 40279],
      "WindowCenter": [9929.0, 9883.0, 9838.0, 9797.0, 9810.0, 9826.0, 9833.0, 9824.0, 9814.0, 9848.0, 9833.0, 9809.0, 9787.0, 9791.0, 9815.0, 9816.0, 9813.0, 9804.0, 9801.0, 9801.0, 9803.0, 9829.0, 9830.0, 9824.0, 9799.0, 9785.0, 9802.0, 9811.0, 9827.0, 9833.0, 9835.0, 9815.0, 9810.0, 9815.0, 9814.0, 9840.0, 9833.0, 9817.0, 9807.0, 9810.0, 9813.0, 9816.0, 9830.0, 9811.0, 9805.0, 9800.0, 9792.0, 9798.0, 9805.0, 9823.0, 9836.0, 9836.0, 9822.0, 9814.0, 9809.0, 9799.0, 9822.0, 9831.0, 9818.0, 9801.0, 9802.0, 9817.0, 9824.0, 9827.0, 9811.0, 9800.0, 9796.0, 9811.0, 9817.0, 9837.0, 9839.0, 9829.0, 9826.0, 9817.0, 9816.0, 9822.0, 9815.0, 9807.0, 9806.0, 9819.0, 9813.0, 9815.0, 9822.0, 9822.0, 9816.0, 9821.0, 9822.0, 9830.0, 9823.0, 9822.0, 9823.0, 9829.0, 9842.0, 9832.0, 9838.0, 9827.0, 9806.0, 9802.0, 9814.0, 9818.0, 9806.0, 9805.0, 9814.0, 9838.0, 9838.0, 9815.0, 9797.0, 9789.0, 9800.0, 9803.0, 9819.0, 9828.0, 9835.0, 9837.0, 9829.0, 9826.0, 9822.0, 9836.0, 9834.0, 9813.0, 9804.0, 9811.0, 9807.0, 9821.0, 9819.0, 9820.0, 9841.0, 9839.0, 9833.0, 9832.0, 9824.0, 9815.0, 9814.0, 9806.0, 9810.0, 9811.0, 9828.0, 9830.0, 9813.0, 9803.0, 9803.0, 9805.0, 9806.0, 9818.0],
      "WindowWidth": [21313.0, 21178.0, 21058.0, 20958.0, 20975.0, 21008.0, 21019.0, 20999.0, 20983.0, 21050.0, 21025.0, 20975.0, 20927.0, 20930.0, 20974.0, 20984.0, 20983.0, 20965.0, 20955.0, 20954.0, 20962.0, 21013.0, 21023.0, 21013.0, 20956.0, 20919.0, 20947.0, 20968.0, 21003.0, 21021.0, 21027.0, 20988.0, 20973.0, 20982.0, 20990.0, 21039.0, 21024.0, 20988.0, 20961.0, 20965.0, 20974.0, 20985.0, 21012.0, 20978.0, 20964.0, 20949.0, 20933.0, 20944.0, 20959.0, 20997.0, 21023.0, 21024.0, 21005.0, 20987.0, 20973.0, 20949.0, 20996.0, 21013.0, 20986.0, 20950.0, 20948.0, 20982.0, 21006.0, 21015.0, 20981.0, 20953.0, 20939.0, 20969.0, 20985.0, 21026.0, 21032.0, 21016.0, 21007.0, 20990.0, 20985.0, 20997.0, 20984.0, 20965.0, 20963.0, 20989.0, 20976.0, 20984.0, 20999.0, 21000.0, 20990.0, 20994.0, 21000.0, 21015.0, 21001.0, 20997.0, 20997.0, 21012.0, 21037.0, 21022.0, 21031.0, 21005.0, 20963.0, 20950.0, 20973.0, 20983.0, 20963.0, 20958.0, 20978.0, 21031.0, 21032.0, 20982.0, 20942.0, 20925.0, 20945.0, 20953.0, 20986.0, 21006.0, 21022.0, 21028.0, 21011.0, 21002.0, 20994.0, 21024.0, 21019.0, 20977.0, 20957.0, 20968.0, 20963.0, 20993.0, 20989.0, 20993.0, 21038.0, 21035.0, 21025.0, 21022.0, 21003.0, 20982.0, 20978.0, 20964.0, 20969.0, 20974.0, 21010.0, 21015.0, 20976.0, 20950.0, 20952.0, 20958.0, 20962.0, 20982.0]
    },
    "slices": {}
  }
}