{
  "AcquisitionMatrixPE": 104,
  "AcquisitionNumber": 1,
  "AcquisitionTime": "09:19:6.660000",
  "BandwidthPerPixelPhaseEncode": 17.17,
  "BaseResolution": 104,
  "BodyPartExamined": "BRAIN",
  "CoilString": "HC1-7;NC1_2",
  "ConsistencyInfo": "N4_VE11C_LATEST_20160120",
  "ConversionSoftware": "dcm2niix",
  "ConversionSoftwareVersion": "v1.0.20200427",
  "DerivedVendorReportedEchoSpacing": 0.000560011,
  "DeviceSerialNumber": "167006",
  "DwellTime": 2.1e-06,
  "EchoTime": 0.037,
  "EchoTrainLength": 104,
  "EffectiveEchoSpacing": 0.000560011,
  "FlipAngle": 52,
  "ImageComments": "Unaliased_MB4_PE3_LB",
  "ImageOrientationPatientDICOM": [0.998935, -0.0455737, 0.0072624, 0.0455361, 0.947832, -0.3155],
  "ImageType": [
    "ORIGINAL",
    "PRIMARY",
    "M",
    "MB",
    "ND",
    "MOSAIC"
],
  "ImagingFrequency": 123.259,
  "InPlanePhaseEncodingDirectionDICOM": "COL",
  "InstitutionAddress": "Chemin_Queen-Mary_4565_Montreal_District_CA_H3W_1W5",
  "InstitutionName": "IUGM",
  "InstitutionalDepartmentName": "Department",
  "MRAcquisitionType": "2D",
  "MagneticFieldStrength": 3,
  "Manufacturer": "Siemens",
  "ManufacturersModelName": "Prisma_fit",
  "Modality": "MR",
  "MultibandAccelerationFactor": 4,
  "PartialFourier": 1,
  "PatientPosition": "HFS",
  "PercentPhaseFOV": 100,
  "PercentSampling": 100,
  "PhaseEncodingDirection": "j",
  "PhaseEncodingSteps": 104,
  "PhaseResolution": 1,
  "PixelBandwidth": 2290,
  "ProcedureStepDescription": "hcptrt_generic",
  "ProtocolName": "func_task-language_run-1",
  "PulseSequenceDetails": "%CustomerSeq%_cmrr_mbep2d_bold",
  "ReceiveCoilActiveElements": "HC1-7;NC1,2",
  "ReceiveCoilName": "HeadNeck_64",
  "ReconMatrixPE": 104,
  "RepetitionTime": 1.49,
  "SAR": 0.0294713,
  "ScanOptions": "FS",
  "ScanningSequence": "EP",
  "SequenceName": "epfid2d1_104",
  "SequenceVariant": "SK_SS",
  "SeriesDescription": "func_task-language_run-1",
  "SeriesNumber": 11,
  "ShimSetting": [638, -7263, -8832, 594, 15, -241, -66, -2],
  "SliceThickness": 2,
  "SliceTiming": [0, 0.7825, 0.0975, 0.88, 0.195, 0.98, 0.2925, 1.0775, 0.39, 1.175, 0.49, 1.2725, 0.5875, 1.37, 0.685, 0, 0.7825, 0.0975, 0.88, 0.195, 0.98, 0.2925, 1.0775, 0.39, 1.175, 0.49, 1.2725, 0.5875, 1.37, 0.685, 0, 0.7825, 0.0975, 0.88, 0.195, 0.98, 0.2925, 1.0775, 0.39, 1.175, 0.49, 1.2725, 0.5875, 1.37, 0.685, 0, 0.7825, 0.0975, 0.88, 0.195, 0.98, 0.2925, 1.0775, 0.39, 1.175, 0.49, 1.2725, 0.5875, 1.37, 0.685],
  "SoftwareVersions": "syngo_MR_E11",
  "SpacingBetweenSlices": 2,
  "StationName": "MRC35049",
  "TaskName": "language",
  "TotalReadoutTime": 0.0576811,
  "TxRefAmp": 217.754,
  "WipMemBlock": "7a552347-b082-4f29-94a9-d0d9ae784cdb||Sequence: R016 ve11c/master r/e634e98; Dec 19 2017 11:00:25 by eja",
  "dcmmeta_affine": [
    [-1.9978691339492798, 0.09107214957475662, -0.014989948831498623, 102.70842742919922],
    [0.09114748984575272, 1.8956648111343384, -0.630989134311676, -66.7249984741211],
    [0.014524808153510094, 0.6309999823570251, 1.897795557975769, -63.495243072509766],
    [0.0, 0.0, 0.0, 1.0]
],
  "dcmmeta_reorient_transform": [
    [0.0, -1.0, 0.0, 103.0],
    [1.0, 0.0, 0.0, 0.0],
    [0.0, 0.0, 1.0, 0.0],
    [0.0, 0.0, 0.0, 1.0]
],
  "dcmmeta_shape": [104, 104, 60, 159],
  "dcmmeta_slice_dim": 2,
  "dcmmeta_version": 0.6,
  "global": {
    "const": {
      "AcquisitionMatrix": [104, 0, 0, 104],
      "AngioFlag": "N",
      "BitsAllocated": 16,
      "BitsStored": 16,
      "BodyPartExamined": "BRAIN",
      "Columns": 832,
      "EchoNumbers": 1,
      "EchoTime": 37.0,
      "EchoTrainLength": 104,
      "FlipAngle": 52.0,
      "HighBit": 15,
      "ImageOrientationPatient": [0.99893457803776, -0.0455737455605, 0.00726240429249, 0.04553607533118, 0.94783237901069, -0.3154999954713],
      "ImagePositionPatient": [-872.46349513631, -785.37275984329, 225.89472352919],
      "ImageType": [
        "ORIGINAL",
        "PRIMARY",
        "M",
        "MB",
        "ND",
        "MOSAIC"
],
      "ImagedNucleus": "1H",
      "ImagingFrequency": 123.259297,
      "InPlanePhaseEncodingDirection": "COL",
      "MRAcquisitionType": "2D",
      "MagneticFieldStrength": 3.0,
      "Manufacturer": "SIEMENS",
      "ManufacturerModelName": "Prisma_fit",
      "Modality": "MR",
      "NumberOfAverages": 1.0,
      "NumberOfPhaseEncodingSteps": 104,
      "PercentPhaseFieldOfView": 100.0,
      "PercentSampling": 100.0,
      "PerformedProcedureStepStartTime": "085742.516000",
      "PhotometricInterpretation": "MONOCHROME2",
      "PixelBandwidth": 2290.0,
      "PixelRepresentation": 0,
      "PixelSpacing": [2.0, 2.0],
      "ProtocolName": "func_task-language_run-1",
      "RepetitionTime": 1490.0,
      "Rows": 832,
      "SAR": 0.0294712533268,
      "SamplesPerPixel": 1,
      "ScanOptions": "FS",
      "ScanningSequence": "EP",
      "SequenceName": "epfid2d1_104",
      "SequenceVariant": [
        "SK",
        "SS"
],
      "SeriesDescription": "func_task-language_run-1",
      "SeriesNumber": 11,
      "SeriesTime": "092021.968000",
      "SliceLocation": -39.96891879281,
      "SliceThickness": 2.0,
      "SmallestImagePixelValue": 0,
      "SoftwareVersions": "syngo MR E11",
      "SpacingBetweenSlices": 2.0000000143659,
      "SpecificCharacterSet": "ISO_IR 100",
      "StudyID": "1",
      "StudyTime": "085742.367000",
      "TransmitCoilName": "Body",
      "VariableFlipAngleFlag": "N",
      "WindowCenterWidthExplanation": "Algo1",
      "dBdt": 0.0},
    "slices": {}
  },
  "time": {
    "samples": {
      "AcquisitionNumber": [1, 2, 3, 4, 5, 6, 7, 8, 9, 10, 11, 12, 13, 14, 15, 16, 17, 18, 19, 20, 21, 22, 23, 24, 25, 26, 27, 28, 29, 30, 31, 32, 33, 34, 35, 36, 37, 38, 39, 40, 41, 42, 43, 44, 45, 46, 47, 48, 49, 50, 51, 52, 53, 54, 55, 56, 57, 58, 59, 60, 61, 62, 63, 64, 65, 66, 67, 68, 69, 70, 71, 72, 73, 74, 75, 76, 77, 78, 79, 80, 81, 82, 83, 84, 85, 86, 87, 88, 89, 90, 91, 92, 93, 94, 95, 96, 97, 98, 99, 100, 101, 102, 103, 104, 105, 106, 107, 108, 109, 110, 111, 112, 113, 114, 115, 116, 117, 118, 119, 120, 121, 122, 123, 124, 125, 126, 127, 128, 129, 130, 131, 132, 133, 134, 135, 136, 137, 138, 139, 140, 141, 142, 143, 144, 145, 146, 147, 148, 149, 150, 151, 152, 153, 154, 155, 156, 157, 158, 159],
      "AcquisitionTime": ["091906.660000", "091908.150000", "091909.640000", "091911.130000", "091912.620000", "091914.110000", "091915.600000", "091917.090000", "091918.580000", "091920.070000", "091921.560000", "091923.050000", "091924.540000", "091926.030000", "091927.520000", "091929.010000", "091930.500000", "091931.990000", "091933.480000", "091934.970000", "091936.460000", "091937.950000", "091939.440000", "091940.930000", "091942.420000", "091943.910000", "091945.400000", "091946.890000", "091948.380000", "091949.870000", "091951.360000", "091952.850000", "091954.340000", "091955.830000", "091957.320000", "091958.810000", "092000.300000", "092001.790000", "092003.280000", "092004.770000", "092006.260000", "092007.750000", "092009.240000", "092010.730000", "092012.220000", "092013.710000", "092015.200000", "092016.690000", "092018.180000", "092019.670000", "092021.160000", "092022.650000", "092024.140000", "092025.630000", "092027.120000", "092028.610000", "092030.100000", "092031.590000", "092033.080000", "092034.570000", "092036.060000", "092037.550000", "092039.040000", "092040.530000", "092042.020000", "092043.510000", "092045.000000", "092046.490000", "092047.980000", "092049.470000", "092050.960000", "092052.450000", "092053.940000", "092055.430000", "092056.920000", "092058.410000", "092059.900000", "092101.390000", "092102.880000", "092104.370000", "092105.860000", "092107.350000", "092108.840000", "092110.330000", "092111.820000", "092113.310000", "092114.800000", "092116.290000", "092117.780000", "092119.270000", "092120.760000", "092122.250000", "092123.740000", "092125.230000", "092126.720000", "092128.210000", "092129.700000", "092131.190000", "092132.680000", "092134.170000", "092135.660000", "092137.150000", "092138.640000", "092140.130000", "092141.620000", "092143.110000", "092144.600000", "092146.090000", "092147.580000", "092149.070000", "092150.560000", "092152.050000", "092153.540000", "092155.030000", "092156.520000", "092158.010000", "092159.500000", "092200.990000", "092202.480000", "092203.970000", "092205.460000", "092206.950000", "092208.440000", "092209.930000", "092211.420000", "092212.910000", "092214.400000", "092215.890000", "092217.380000", "092218.870000", "092220.360000", "092221.850000", "092223.340000", "092224.830000", "092226.320000", "092227.810000", "092229.300000", "092230.790000", "092232.280000", "092233.770000", "092235.260000", "092236.750000", "092238.240000", "092239.730000", "092241.220000", "092242.710000", "092244.200000", "092245.690000", "092247.180000", "092248.670000", "092250.160000", "092251.650000", "092253.140000", "092254.630000", "092256.120000", "092257.610000", "092259.100000", "092300.590000", "092302.080000"],
      "ContentTime": ["092021.971000", "092021.974000", "092021.977000", "092021.980000", "092021.983000", "092021.985000", "092021.988000", "092021.991000", "092021.994000", "092021.997000", "092022.001000", "092022.004000", "092022.016000", "092022.019000", "092022.022000", "092022.025000", "092022.027000", "092022.030000", "092022.033000", "092022.036000", "092022.039000", "092041.936000", "092041.939000", "092041.942000", "092041.945000", "092041.948000", "092041.950000", "092041.953000", "092041.956000", "092041.959000", "092041.962000", "092041.965000", "092041.967000", "092041.970000", "092041.973000", "092041.976000", "092041.978000", "092041.981000", "092041.984000", "092041.987000", "092041.990000", "092101.937000", "092101.940000", "092101.948000", "092101.951000", "092101.954000", "092101.957000", "092101.960000", "092101.962000", "092101.965000", "092101.968000", "092101.971000", "092101.974000", "092101.977000", "092101.979000", "092101.982000", "092101.985000", "092101.988000", "092101.991000", "092101.994000", "092101.996000", "092102.000000", "092121.937000", "092121.940000", "092121.943000", "092121.946000", "092121.948000", "092121.951000", "092121.954000", "092121.957000", "092121.960000", "092121.963000", "092121.966000", "092121.968000", "092121.971000", "092121.974000", "092121.977000", "092121.980000", "092121.982000", "092121.985000", "092121.988000", "092121.991000", "092141.937000", "092141.940000", "092141.943000", "092141.946000", "092141.948000", "092141.951000", "092141.954000", "092141.957000", "092141.960000", "092141.963000", "092141.966000", "092141.969000", "092141.972000", "092141.975000", "092141.977000", "092141.980000", "092141.983000", "092141.986000", "092141.989000", "092141.992000", "092221.936000", "092221.939000", "092221.942000", "092221.945000", "092221.948000", "092221.951000", "092221.954000", "092221.956000", "092221.959000", "092221.962000", "092221.965000", "092221.968000", "092221.970000", "092221.973000", "092221.976000", "092221.979000", "092221.982000", "092221.985000", "092221.988000", "092221.990000", "092221.993000", "092221.996000", "092222.000000", "092222.003000", "092222.006000", "092222.009000", "092222.011000", "092222.023000", "092301.936000", "092301.939000", "092301.942000", "092301.945000", "092301.948000", "092301.950000", "092301.953000", "092301.956000", "092301.959000", "092301.962000", "092301.965000", "092301.968000", "092301.970000", "092301.973000", "092301.976000", "092301.979000", "092301.982000", "092301.985000", "092301.987000", "092301.990000", "092301.993000", "092301.996000", "092302.000000", "092302.003000", "092302.006000", "092302.008000", "092302.011000", "092304.555000", "092304.558000"],
      "InstanceCreationTime": ["092021.971000", "092021.974000", "092021.977000", "092021.980000", "092021.983000", "092021.985000", "092021.988000", "092021.991000", "092021.994000", "092021.997000", "092022.001000", "092022.004000", "092022.016000", "092022.019000", "092022.022000", "092022.025000", "092022.027000", "092022.030000", "092022.033000", "092022.036000", "092022.039000", "092041.936000", "092041.939000", "092041.942000", "092041.945000", "092041.948000", "092041.950000", "092041.953000", "092041.956000", "092041.959000", "092041.962000", "092041.965000", "092041.967000", "092041.970000", "092041.973000", "092041.976000", "092041.978000", "092041.981000", "092041.984000", "092041.987000", "092041.990000", "092101.937000", "092101.940000", "092101.948000", "092101.951000", "092101.954000", "092101.957000", "092101.960000", "092101.962000", "092101.965000", "092101.968000", "092101.971000", "092101.974000", "092101.977000", "092101.979000", "092101.982000", "092101.985000", "092101.988000", "092101.991000", "092101.994000", "092101.996000", "092102.000000", "092121.937000", "092121.940000", "092121.943000", "092121.946000", "092121.948000", "092121.951000", "092121.954000", "092121.957000", "092121.960000", "092121.963000", "092121.966000", "092121.968000", "092121.971000", "092121.974000", "092121.977000", "092121.980000", "092121.982000", "092121.985000", "092121.988000", "092121.991000", "092141.937000", "092141.940000", "092141.943000", "092141.946000", "092141.948000", "092141.951000", "092141.954000", "092141.957000", "092141.960000", "092141.963000", "092141.966000", "092141.969000", "092141.972000", "092141.975000", "092141.977000", "092141.980000", "092141.983000", "092141.986000", "092141.989000", "092141.992000", "092221.936000", "092221.939000", "092221.942000", "092221.945000", "092221.948000", "092221.951000", "092221.954000", "092221.956000", "092221.959000", "092221.962000", "092221.965000", "092221.968000", "092221.970000", "092221.973000", "092221.976000", "092221.979000", "092221.982000", "092221.985000", "092221.988000", "092221.990000", "092221.993000", "092221.996000", "092222.000000", "092222.003000", "092222.006000", "092222.009000", "092222.011000", "092222.023000", "092301.936000", "092301.939000", "092301.942000", "092301.945000", "092301.948000", "092301.950000", "092301.953000", "092301.956000", "092301.959000", "092301.962000", "092301.965000", "092301.968000", "092301.970000", "092301.973000", "092301.976000", "092301.979000", "092301.982000", "092301.985000", "092301.987000", "092301.990000", "092301.993000", "092301.996000", "092302.000000", "092302.003000", "092302.006000", "092302.008000", "092302.011000", "092304.555000", "092304.558000"],
      "InstanceNumber": [1, 2, 3, 4, 5, 6, 7, 8, 9, 10, 11, 12, 13, 14, 15, 16, 17, 18, 19, 20, 21, 22, 23, 24, 25, 26, 27, 28, 29, 30, 31, 32, 33, 34, 35, 36, 37, 38, 39, 40, 41, 42, 43, 44, 45, 46, 47, 48, 49, 50, 51, 52, 53, 54, 55, 56, 57, 58, 59, 60, 61, 62, 63, 64, 65, 66, 67, 68, 69, 70, 71, 72, 73, 74, 75, 76, 77, 78, 79, 80, 81, 82, 83, 84, 85, 86, 87, 88, 89, 90, 91, 92, 93, 94, 95, 96, 97, 98, 99, 100, 101, 102, 103, 104, 105, 106, 107, 108, 109, 110, 111, 112, 113, 114, 115, 116, 117, 118, 119, 120, 121, 122, 123, 124, 125, 126, 127, 128, 129, 130, 131, 132, 133, 134, 135, 136, 137, 138, 139, 140, 141, 142, 143, 144, 145, 146, 147, 148, 149, 150, 151, 152, 153, 154, 155, 156, 157, 158, 159],
      "LargestImagePixelValue": [42426, 40714, 40711, 39021, 39917, 39902, 38045, 38362, 38309, 37658, 38428, 39088, 39717, 40029, 38955, 38311, 37929, 38098, 38951, 38557, 39701, 40619, 40113, 39451, 39179, 40015, 39245, 38491, 37960, 38132, 38442, 39828, 39437, 40478, 40571, 38740, 39091, 39742, 39221, 40414, 38908, 39430, 39816, 39349, 40400, 40579, 38684, 39598, 40471, 40316, 40831, 41346, 41044, 40389, 40306, 38592, 38976, 39743, 40234, 39143, 40012, 41114, 40286, 42049, 42412, 41456, 39593, 40252, 40634, 41001, 40758, 40586, 40810, 40740, 40078, 39701, 40166, 40886, 39972, 39104, 40072, 40901, 41342, 41465, 41469, 39459, 39648, 39659, 39337, 39143, 39752, 40715, 39442, 39617, 40114, 39932, 40178, 40379, 39859, 39453, 40048, 39403, 39204, 39930, 39138, 39340, 39223, 39449, 39820, 40206, 39550, 39162, 39822, 38609, 39260, 40326, 38070, 39609, 39120, 39930, 40760, 40854, 41394, 40386, 38618, 38290, 40325, 38822, 38420, 38056, 38459, 39400, 40159, 39771, 40144, 40575, 38025, 38217, 38442, 38946, 38725, 39155, 38739, 39069, 40601, 38920, 38459, 39223, 38821, 38755, 39285, 38635, 38739, 38812, 38861, 39727, 40137, 42261, 40434],
      "WindowCenter": [9945.0, 9889.0, 9881.0, 9885.0, 9896.0, 9889.0, 9878.0, 9876.0, 9861.0, 9838.0, 9826.0, 9828.0, 9819.0, 9831.0, 9838.0, 9849.0, 9844.0, 9843.0, 9855.0, 9851.0, 9855.0, 9849.0, 9844.0, 9847.0, 9840.0, 9850.0, 9853.0, 9851.0, 9837.0, 9820.0, 9824.0, 9842.0, 9845.0, 9850.0, 9848.0, 9826.0, 9839.0, 9847.0, 9848.0, 9866.0, 9856.0, 9863.0, 9856.0, 9855.0, 9867.0, 9882.0, 9876.0, 9863.0, 9858.0, 9850.0, 9855.0, 9852.0, 9827.0, 9805.0, 9820.0, 9829.0, 9831.0, 9827.0, 9824.0, 9813.0, 9830.0, 9843.0, 9840.0, 9856.0, 9875.0, 9881.0, 9876.0, 9867.0, 9847.0, 9836.0, 9828.0, 9826.0, 9817.0, 9816.0, 9820.0, 9826.0, 9831.0, 9844.0, 9850.0, 9848.0, 9837.0, 9830.0, 9827.0, 9830.0, 9847.0, 9835.0, 9828.0, 9817.0, 9819.0, 9827.0, 9840.0, 9853.0, 9837.0, 9834.0, 9830.0, 9830.0, 9837.0, 9839.0, 9834.0, 9828.0, 9841.0, 9837.0, 9836.0, 9843.0, 9837.0, 9844.0, 9870.0, 9859.0, 9841.0, 9835.0, 9836.0, 9838.0, 9843.0, 9825.0, 9829.0, 9853.0, 9849.0, 9868.0, 9854.0, 9857.0, 9853.0, 9836.0, 9817.0, 9795.0, 9785.0, 9801.0, 9835.0, 9835.0, 9822.0, 9806.0, 9803.0, 9808.0, 9820.0, 9823.0, 9831.0, 9854.0, 9842.0, 9835.0, 9816.0, 9804.0, 9802.0, 9801.0, 9795.0, 9800.0, 9823.0, 9823.0, 9838.0, 9837.0, 9814.0, 9819.0, 9825.0, 9828.0, 9828.0, 9819.0, 9827.0, 9846.0, 9855.0, 9814.0, 9874.0],
      "WindowWidth": [21359.0, 21202.0, 21161.0, 21162.0, 21180.0, 21162.0, 21140.0, 21134.0, 21100.0, 21051.0, 21018.0, 21017.0, 20997.0, 21021.0, 21044.0, 21074.0, 21068.0, 21066.0, 21085.0, 21082.0, 21084.0, 21065.0, 21056.0, 21063.0, 21052.0, 21066.0, 21079.0, 21081.0, 21050.0, 21013.0, 21019.0, 21051.0, 21062.0, 21069.0, 21061.0, 21021.0, 21049.0, 21065.0, 21069.0, 21103.0, 21089.0, 21101.0, 21085.0, 21082.0, 21109.0, 21141.0, 21134.0, 21104.0, 21083.0, 21067.0, 21073.0, 21063.0, 21010.0, 20965.0, 20996.0, 21026.0, 21033.0, 21023.0, 21011.0, 20992.0, 21023.0, 21047.0, 21042.0, 21068.0, 21110.0, 21128.0, 21126.0, 21104.0, 21057.0, 21027.0, 21011.0, 21007.0, 20986.0, 20984.0, 20997.0, 21017.0, 21028.0, 21053.0, 21070.0, 21070.0, 21045.0, 21019.0, 21008.0, 21011.0, 21048.0, 21034.0, 21019.0, 20995.0, 21001.0, 21020.0, 21047.0, 21073.0, 21044.0, 21032.0, 21019.0, 21016.0, 21034.0, 21040.0, 21033.0, 21021.0, 21045.0, 21042.0, 21044.0, 21057.0, 21046.0, 21061.0, 21113.0, 21093.0, 21051.0, 21034.0, 21036.0, 21043.0, 21053.0, 21019.0, 21028.0, 21077.0, 21074.0, 21113.0, 21078.0, 21077.0, 21062.0, 21024.0, 20979.0, 20935.0, 20924.0, 20961.0, 21029.0, 21038.0, 21013.0, 20978.0, 20966.0, 20973.0, 20995.0, 21003.0, 21019.0, 21069.0, 21056.0, 21042.0, 20999.0, 20968.0, 20962.0, 20959.0, 20944.0, 20953.0, 20993.0, 21003.0, 21043.0, 21040.0, 20993.0, 21000.0, 21010.0, 21019.0, 21018.0, 20998.0, 21012.0, 21053.0, 21079.0, 20961.0, 21115.0]
    },
    "slices": {}
  }
}