{
  "AcquisitionMatrixPE": 104,
  "AcquisitionNumber": 1,
  "AcquisitionTime": "15:11:58.127500",
  "BandwidthPerPixelPhaseEncode": 17.17,
  "BaseResolution": 104,
  "BodyPartExamined": "BRAIN",
  "CoilString": "HC1-7;NC1_2",
  "ConsistencyInfo": "N4_VE11C_LATEST_20160120",
  "ConversionSoftware": "dcm2niix",
  "ConversionSoftwareVersion": "v1.0.20190720  (JP2:OpenJPEG) GCC7.3.0",
  "DerivedVendorReportedEchoSpacing": 0.000560011,
  "DeviceSerialNumber": "167006",
  "DwellTime": 2.1e-06,
  "EchoTime": 0.037,
  "EchoTrainLength": 104,
  "EffectiveEchoSpacing": 0.000560011,
  "FlipAngle": 52,
  "ImageComments": "Unaliased_MB4_PE3_LB",
  "ImageOrientationPatientDICOM": [0.999437, -0.0250428, 0.0223272, 0.0328055, 0.868902, -0.493896],
  "ImageType": [
    "ORIGINAL",
    "PRIMARY",
    "M",
    "MB",
    "ND",
    "MOSAIC"
],
  "ImagingFrequency": 123.259,
  "InPlanePhaseEncodingDirectionDICOM": "COL",
  "InstitutionAddress": "Chemin_Queen-Mary_4565_Montreal_District_CA_H3W_1W5",
  "InstitutionName": "IUGM",
  "InstitutionalDepartmentName": "Department",
  "MRAcquisitionType": "2D",
  "MagneticFieldStrength": 3,
  "Manufacturer": "Siemens",
  "ManufacturersModelName": "Prisma_fit",
  "Modality": "MR",
  "MultibandAccelerationFactor": 4,
  "PartialFourier": 1,
  "PatientPosition": "HFS",
  "PercentPhaseFOV": 100,
  "PhaseEncodingDirection": "j",
  "PhaseEncodingSteps": 104,
  "PhaseResolution": 1,
  "PixelBandwidth": 2290,
  "ProcedureStepDescription": "hcptrt_generic",
  "ProtocolName": "func_task-gambling_run-2",
  "PulseSequenceDetails": "%CustomerSeq%_cmrr_mbep2d_bold",
  "ReceiveCoilActiveElements": "HC1-7;NC1,2",
  "ReceiveCoilName": "HeadNeck_64",
  "ReconMatrixPE": 104,
  "RepetitionTime": 1.49,
  "SAR": 0.0380847,
  "ScanOptions": "FS",
  "ScanningSequence": "EP",
  "SequenceName": "epfid2d1_104",
  "SequenceVariant": "SK_SS",
  "SeriesDescription": "func_task-gambling_run-2",
  "SeriesNumber": 27,
  "ShimSetting": [619, -7187, -8877, 420, -17, -147, 32, -28],
  "SliceThickness": 2,
  "SliceTiming": [0, 0.785, 0.1, 0.8825, 0.1975, 0.98, 0.295, 1.08, 0.3925, 1.1775, 0.49, 1.275, 0.59, 1.3725, 0.6875, 0, 0.785, 0.1, 0.8825, 0.1975, 0.98, 0.295, 1.08, 0.3925, 1.1775, 0.49, 1.275, 0.59, 1.3725, 0.6875, 0, 0.785, 0.1, 0.8825, 0.1975, 0.98, 0.295, 1.08, 0.3925, 1.1775, 0.49, 1.275, 0.59, 1.3725, 0.6875, 0, 0.785, 0.1, 0.8825, 0.1975, 0.98, 0.295, 1.08, 0.3925, 1.1775, 0.49, 1.275, 0.59, 1.3725, 0.6875],
  "SoftwareVersions": "syngo_MR_E11",
  "SpacingBetweenSlices": 2,
  "StationName": "MRC35049",
  "TaskName": "gambling",
  "TotalReadoutTime": 0.0576811,
  "TxRefAmp": 252.88,
  "WipMemBlock": "310c19a0-4c00-4039-b965-dbac729a7f53||Sequence: R016 ve11c/master r/e634e98; Dec 19 2017 11:00:25 by eja",
  "dcmmeta_affine": [
    [-1.9988740682601929, 0.06561094522476196, 0.014063178561627865, 99.08309936523438],
    [0.05008554458618164, 1.7378039360046387, -0.9887005686759949, -63.163970947265625],
    [0.04465431347489357, 0.9877917766571045, 1.7384687662124634, -102.57095336914062],
    [0.0, 0.0, 0.0, 1.0]
],
  "dcmmeta_reorient_transform": [
    [0.0, -1.0, 0.0, 103.0],
    [1.0, 0.0, 0.0, 0.0],
    [0.0, 0.0, 1.0, 0.0],
    [0.0, 0.0, 0.0, 1.0]
],
  "dcmmeta_shape": [104, 104, 60, 129],
  "dcmmeta_slice_dim": 2,
  "dcmmeta_version": 0.6,
  "global": {
    "const": {
      "AcquisitionMatrix": [104, 0, 0, 104],
      "AngioFlag": "N",
      "BitsAllocated": 16,
      "BitsStored": 16,
      "BodyPartExamined": "BRAIN",
      "Columns": 832,
      "EchoNumbers": 1,
      "EchoTime": 37.0,
      "EchoTrainLength": 104,
      "FlipAngle": 52.0,
      "HighBit": 15,
      "ImageOrientationPatient": [0.99943702035051, -0.025042771708, 0.02232715696342, 0.0328054737544, 0.86890198270667, -0.4938958851217],
      "ImagePositionPatient": [-857.31356618385, -730.15934308882, 342.47363412873],
      "ImageType": [
        "ORIGINAL",
        "PRIMARY",
        "M",
        "MB",
        "ND",
        "MOSAIC"
],
      "ImagedNucleus": "1H",
      "ImagingFrequency": 123.259473,
      "InPlanePhaseEncodingDirection": "COL",
      "MRAcquisitionType": "2D",
      "MagneticFieldStrength": 3.0,
      "Manufacturer": "SIEMENS",
      "ManufacturerModelName": "Prisma_fit",
      "Modality": "MR",
      "NumberOfAverages": 1.0,
      "NumberOfPhaseEncodingSteps": 104,
      "PercentPhaseFieldOfView": 100.0,
      "PercentSampling": 100.0,
      "PerformedProcedureStepStartTime": "142328.475000",
      "PhotometricInterpretation": "MONOCHROME2",
      "PixelBandwidth": 2290.0,
      "PixelRepresentation": 0,
      "PixelSpacing": [2.0, 2.0],
      "ProtocolName": "func_task-gambling_run-2",
      "RepetitionTime": 1490.0,
      "Rows": 832,
      "SAR": 0.03808465345774,
      "SamplesPerPixel": 1,
      "ScanOptions": "FS",
      "ScanningSequence": "EP",
      "SequenceName": "epfid2d1_104",
      "SequenceVariant": [
        "SK",
        "SS"
],
      "SeriesDescription": "func_task-gambling_run-2",
      "SeriesNumber": 27,
      "SeriesTime": "151324.326000",
      "SliceLocation": -57.236356219072,
      "SliceThickness": 2.0,
      "SmallestImagePixelValue": 0,
      "SoftwareVersions": "syngo MR E11",
      "SpacingBetweenSlices": 2.0000000348812,
      "SpecificCharacterSet": "ISO_IR 100",
      "StudyID": "1",
      "StudyTime": "142328.392000",
      "TransmitCoilName": "Body",
      "VariableFlipAngleFlag": "N",
      "WindowCenterWidthExplanation": "Algo1",
      "dBdt": 0.0},
    "slices": {}
  },
  "time": {
    "samples": {
      "AcquisitionNumber": [1, 2, 3, 4, 5, 6, 7, 8, 9, 10, 11, 12, 13, 14, 15, 16, 17, 18, 19, 20, 21, 22, 23, 24, 25, 26, 27, 28, 29, 30, 31, 32, 33, 34, 35, 36, 37, 38, 39, 40, 41, 42, 43, 44, 45, 46, 47, 48, 49, 50, 51, 52, 53, 54, 55, 56, 57, 58, 59, 60, 61, 62, 63, 64, 65, 66, 67, 68, 69, 70, 71, 72, 73, 74, 75, 76, 77, 78, 79, 80, 81, 82, 83, 84, 85, 86, 87, 88, 89, 90, 91, 92, 93, 94, 95, 96, 97, 98, 99, 100, 101, 102, 103, 104, 105, 106, 107, 108, 109, 110, 111, 112, 113, 114, 115, 116, 117, 118, 119, 120, 121, 122, 123, 124, 125, 126, 127, 128, 129],
      "AcquisitionTime": ["151158.127500", "151159.617500", "151201.107500", "151202.597500", "151204.087500", "151205.577500", "151207.067500", "151208.557500", "151210.047500", "151211.537500", "151213.027500", "151214.517500", "151216.007500", "151217.497500", "151218.987500", "151220.477500", "151221.967500", "151223.457500", "151224.947500", "151226.437500", "151227.927500", "151229.417500", "151230.907500", "151232.397500", "151233.887500", "151235.377500", "151236.867500", "151238.357500", "151239.847500", "151241.337500", "151242.827500", "151244.317500", "151245.807500", "151247.297500", "151248.787500", "151250.277500", "151251.767500", "151253.257500", "151254.747500", "151256.237500", "151257.727500", "151259.217500", "151300.707500", "151302.197500", "151303.687500", "151305.177500", "151306.667500", "151308.157500", "151309.647500", "151311.137500", "151312.627500", "151314.117500", "151315.607500", "151317.097500", "151318.587500", "151320.077500", "151321.567500", "151323.057500", "151324.547500", "151326.037500", "151327.527500", "151329.017500", "151330.507500", "151331.997500", "151333.487500", "151334.977500", "151336.467500", "151337.957500", "151339.447500", "151340.937500", "151342.427500", "151343.917500", "151345.407500", "151346.897500", "151348.387500", "151349.877500", "151351.367500", "151352.857500", "151354.347500", "151355.837500", "151357.327500", "151358.817500", "151400.307500", "151401.797500", "151403.287500", "151404.777500", "151406.267500", "151407.757500", "151409.247500", "151410.737500", "151412.227500", "151413.717500", "151415.207500", "151416.697500", "151418.187500", "151419.677500", "151421.167500", "151422.657500", "151424.147500", "151425.637500", "151427.127500", "151428.617500", "151430.107500", "151431.597500", "151433.087500", "151434.577500", "151436.067500", "151437.557500", "151439.047500", "151440.537500", "151442.027500", "151443.517500", "151445.007500", "151446.497500", "151447.987500", "151449.477500", "151450.967500", "151452.457500", "151453.947500", "151455.437500", "151456.927500", "151458.417500", "151459.907500", "151501.397500", "151502.887500", "151504.377500", "151505.867500", "151507.357500", "151508.847500"],
      "ContentTime": ["151324.329000", "151324.333000", "151324.336000", "151324.338000", "151324.341000", "151324.344000", "151324.347000", "151324.350000", "151324.352000", "151324.355000", "151324.358000", "151324.369000", "151324.371000", "151324.374000", "151324.377000", "151324.380000", "151324.383000", "151324.385000", "151324.394000", "151324.397000", "151324.400000", "151324.403000", "151324.406000", "151324.408000", "151324.411000", "151324.416000", "151324.419000", "151324.422000", "151324.425000", "151324.428000", "151324.430000", "151324.433000", "151324.436000", "151344.286000", "151344.289000", "151344.292000", "151344.295000", "151344.297000", "151344.300000", "151344.303000", "151344.306000", "151344.309000", "151344.311000", "151344.314000", "151344.317000", "151344.320000", "151344.323000", "151344.325000", "151344.328000", "151344.331000", "151344.334000", "151344.337000", "151344.340000", "151404.286000", "151404.289000", "151404.292000", "151404.295000", "151404.297000", "151404.300000", "151404.303000", "151404.306000", "151404.309000", "151404.311000", "151404.314000", "151404.317000", "151404.320000", "151404.323000", "151404.326000", "151404.328000", "151404.331000", "151404.334000", "151404.337000", "151404.340000", "151424.286000", "151424.289000", "151424.292000", "151424.295000", "151424.298000", "151424.300000", "151424.303000", "151424.306000", "151424.309000", "151424.312000", "151424.315000", "151424.317000", "151424.320000", "151424.323000", "151424.326000", "151424.328000", "151424.331000", "151424.334000", "151424.337000", "151424.340000", "151504.286000", "151504.289000", "151504.292000", "151504.295000", "151504.298000", "151504.300000", "151504.303000", "151504.306000", "151504.309000", "151504.312000", "151504.315000", "151504.318000", "151504.320000", "151504.323000", "151504.326000", "151504.329000", "151504.332000", "151504.335000", "151504.338000", "151504.340000", "151504.343000", "151504.346000", "151504.349000", "151504.352000", "151504.355000", "151504.357000", "151504.360000", "151504.363000", "151504.373000", "151504.376000", "151504.379000", "151511.428000", "151511.431000", "151511.434000", "151511.437000", "151511.448000"],
      "InstanceCreationTime": ["151324.329000", "151324.333000", "151324.336000", "151324.338000", "151324.341000", "151324.344000", "151324.347000", "151324.350000", "151324.352000", "151324.355000", "151324.358000", "151324.369000", "151324.371000", "151324.374000", "151324.377000", "151324.380000", "151324.383000", "151324.385000", "151324.394000", "151324.397000", "151324.400000", "151324.403000", "151324.406000", "151324.408000", "151324.411000", "151324.416000", "151324.419000", "151324.422000", "151324.425000", "151324.428000", "151324.430000", "151324.433000", "151324.436000", "151344.286000", "151344.289000", "151344.292000", "151344.295000", "151344.297000", "151344.300000", "151344.303000", "151344.306000", "151344.309000", "151344.311000", "151344.314000", "151344.317000", "151344.320000", "151344.323000", "151344.325000", "151344.328000", "151344.331000", "151344.334000", "151344.337000", "151344.340000", "151404.286000", "151404.289000", "151404.292000", "151404.295000", "151404.297000", "151404.300000", "151404.303000", "151404.306000", "151404.309000", "151404.311000", "151404.314000", "151404.317000", "151404.320000", "151404.323000", "151404.326000", "151404.328000", "151404.331000", "151404.334000", "151404.337000", "151404.340000", "151424.286000", "151424.289000", "151424.292000", "151424.295000", "151424.298000", "151424.300000", "151424.303000", "151424.306000", "151424.309000", "151424.312000", "151424.315000", "151424.317000", "151424.320000", "151424.323000", "151424.326000", "151424.328000", "151424.331000", "151424.334000", "151424.337000", "151424.340000", "151504.286000", "151504.289000", "151504.292000", "151504.295000", "151504.298000", "151504.300000", "151504.303000", "151504.306000", "151504.309000", "151504.312000", "151504.315000", "151504.318000", "151504.320000", "151504.323000", "151504.326000", "151504.329000", "151504.332000", "151504.335000", "151504.338000", "151504.340000", "151504.343000", "151504.346000", "151504.349000", "151504.352000", "151504.355000", "151504.357000", "151504.360000", "151504.363000", "151504.373000", "151504.376000", "151504.379000", "151511.428000", "151511.431000", "151511.434000", "151511.437000", "151511.448000"],
      "InstanceNumber": [1, 2, 3, 4, 5, 6, 7, 8, 9, 10, 11, 12, 13, 14, 15, 16, 17, 18, 19, 20, 21, 22, 23, 24, 25, 26, 27, 28, 29, 30, 31, 32, 33, 34, 35, 36, 37, 38, 39, 40, 41, 42, 43, 44, 45, 46, 47, 48, 49, 50, 51, 52, 53, 54, 55, 56, 57, 58, 59, 60, 61, 62, 63, 64, 65, 66, 67, 68, 69, 70, 71, 72, 73, 74, 75, 76, 77, 78, 79, 80, 81, 82, 83, 84, 85, 86, 87, 88, 89, 90, 91, 92, 93, 94, 95, 96, 97, 98, 99, 100, 101, 102, 103, 104, 105, 106, 107, 108, 109, 110, 111, 112, 113, 114, 115, 116, 117, 118, 119, 120, 121, 122, 123, 124, 125, 126, 127, 128, 129],
      "LargestImagePixelValue": [48676, 47215, 46234, 46308, 45229, 45287, 45492, 45141, 46007, 45549, 45690, 45844, 45827, 46260, 47648, 45672, 45435, 45792, 45570, 45555, 45597, 45706, 46033, 45325, 45994, 45308, 45373, 46097, 47651, 45719, 46274, 45398, 45599, 45463, 45688, 46302, 45674, 45617, 45480, 45215, 45085, 46168, 46221, 45764, 45682, 45442, 45557, 50830, 45927, 45881, 45354, 45733, 45395, 46274, 45692, 45517, 45105, 45267, 45179, 45751, 45463, 45634, 45618, 45730, 44515, 45256, 44596, 45007, 44918, 47079, 45065, 45328, 45263, 45450, 45123, 44945, 45815, 45057, 44865, 44908, 45176, 45464, 45237, 44871, 44885, 45296, 45139, 44902, 44782, 44997, 44637, 45862, 44570, 44954, 44621, 45052, 45376, 45268, 46178, 45044, 45589, 44221, 45409, 44497, 45395, 44638, 45151, 44552, 44610, 44711, 45135, 44458, 44863, 44390, 44863, 44399, 44395, 44790, 44989, 44679, 44979, 44676, 44764, 44898, 53123, 45076, 45215, 47289, 50224],
      "WindowCenter": [11290.0, 11237.0, 11198.0, 11201.0, 11182.0, 11170.0, 11156.0, 11141.0, 11150.0, 11154.0, 11172.0, 11179.0, 11172.0, 11175.0, 11174.0, 11155.0, 11163.0, 11171.0, 11157.0, 11148.0, 11137.0, 11143.0, 11145.0, 11144.0, 11148.0, 11139.0, 11129.0, 11134.0, 11168.0, 11165.0, 11160.0, 11141.0, 11127.0, 11115.0, 11136.0, 11161.0, 11157.0, 11154.0, 11146.0, 11132.0, 11131.0, 11134.0, 11139.0, 11142.0, 11149.0, 11147.0, 11149.0, 11194.0, 11148.0, 11138.0, 11135.0, 11144.0, 11155.0, 11165.0, 11148.0, 11140.0, 11120.0, 11130.0, 11144.0, 11159.0, 11136.0, 11115.0, 11110.0, 11119.0, 11128.0, 11156.0, 11152.0, 11145.0, 11136.0, 11153.0, 11134.0, 11140.0, 11150.0, 11160.0, 11158.0, 11148.0, 11159.0, 11155.0, 11159.0, 11159.0, 11158.0, 11159.0, 11141.0, 11138.0, 11147.0, 11155.0, 11148.0, 11140.0, 11138.0, 11147.0, 11150.0, 11152.0, 11134.0, 11133.0, 11130.0, 11139.0, 11149.0, 11140.0, 11161.0, 11147.0, 11154.0, 11148.0, 11165.0, 11146.0, 11145.0, 11129.0, 11137.0, 11136.0, 11143.0, 11150.0, 11156.0, 11150.0, 11149.0, 11143.0, 11141.0, 11132.0, 11151.0, 11169.0, 11173.0, 11144.0, 11137.0, 11130.0, 11139.0, 11146.0, 11213.0, 11149.0, 11149.0, 11174.0, 11197.0],
      "WindowWidth": [24324.0, 24170.0, 24053.0, 24047.0, 23997.0, 23964.0, 23928.0, 23894.0, 23911.0, 23923.0, 23968.0, 23979.0, 23964.0, 23977.0, 23968.0, 23928.0, 23947.0, 23963.0, 23931.0, 23913.0, 23881.0, 23898.0, 23902.0, 23900.0, 23907.0, 23887.0, 23864.0, 23877.0, 23960.0, 23957.0, 23932.0, 23891.0, 23858.0, 23832.0, 23876.0, 23941.0, 23931.0, 23916.0, 23901.0, 23869.0, 23870.0, 23873.0, 23884.0, 23891.0, 23912.0, 23903.0, 23911.0, 24009.0, 23909.0, 23881.0, 23874.0, 23891.0, 23925.0, 23942.0, 23905.0, 23890.0, 23843.0, 23862.0, 23896.0, 23928.0, 23878.0, 23828.0, 23815.0, 23834.0, 23859.0, 23920.0, 23918.0, 23896.0, 23876.0, 23923.0, 23875.0, 23887.0, 23909.0, 23937.0, 23941.0, 23910.0, 23938.0, 23928.0, 23937.0, 23933.0, 23931.0, 23944.0, 23893.0, 23886.0, 23911.0, 23932.0, 23910.0, 23891.0, 23882.0, 23903.0, 23914.0, 23914.0, 23877.0, 23872.0, 23864.0, 23887.0, 23908.0, 23887.0, 23936.0, 23905.0, 23922.0, 23913.0, 23957.0, 23911.0, 23902.0, 23871.0, 23883.0, 23884.0, 23902.0, 23915.0, 23928.0, 23914.0, 23909.0, 23899.0, 23892.0, 23870.0, 23921.0, 23956.0, 23963.0, 23898.0, 23880.0, 23864.0, 23887.0, 23918.0, 24044.0, 23918.0, 23917.0, 23979.0, 24020.0]
    },
    "slices": {}
  }
}