{
  "AcquisitionMatrixPE": 104,
  "AcquisitionNumber": 1,
  "AcquisitionTime": "14:45:30.682500",
  "BandwidthPerPixelPhaseEncode": 17.17,
  "BaseResolution": 104,
  "BodyPartExamined": "BRAIN",
  "CoilString": "HC1-7;NC1_2",
  "ConsistencyInfo": "N4_VE11C_LATEST_20160120",
  "ConversionSoftware": "dcm2niix",
  "ConversionSoftwareVersion": "v1.0.20190720  (JP2:OpenJPEG) GCC7.3.0",
  "DerivedVendorReportedEchoSpacing": 0.000560011,
  "DeviceSerialNumber": "167006",
  "DwellTime": 2.1e-06,
  "EchoTime": 0.037,
  "EchoTrainLength": 104,
  "EffectiveEchoSpacing": 0.000560011,
  "FlipAngle": 52,
  "ImageComments": "Unaliased_MB4_PE3_LB",
  "ImageOrientationPatientDICOM": [0.999437, -0.0250428, 0.0223272, 0.0328055, 0.868902, -0.493896],
  "ImageType": [
    "ORIGINAL",
    "PRIMARY",
    "M",
    "MB",
    "ND",
    "MOSAIC"
],
  "ImagingFrequency": 123.259,
  "InPlanePhaseEncodingDirectionDICOM": "COL",
  "InstitutionAddress": "Chemin_Queen-Mary_4565_Montreal_District_CA_H3W_1W5",
  "InstitutionName": "IUGM",
  "InstitutionalDepartmentName": "Department",
  "MRAcquisitionType": "2D",
  "MagneticFieldStrength": 3,
  "Manufacturer": "Siemens",
  "ManufacturersModelName": "Prisma_fit",
  "Modality": "MR",
  "MultibandAccelerationFactor": 4,
  "PartialFourier": 1,
  "PatientPosition": "HFS",
  "PercentPhaseFOV": 100,
  "PhaseEncodingDirection": "j",
  "PhaseEncodingSteps": 104,
  "PhaseResolution": 1,
  "PixelBandwidth": 2290,
  "ProcedureStepDescription": "hcptrt_generic",
  "ProtocolName": "func_task-wm_run-1",
  "PulseSequenceDetails": "%CustomerSeq%_cmrr_mbep2d_bold",
  "ReceiveCoilActiveElements": "HC1-7;NC1,2",
  "ReceiveCoilName": "HeadNeck_64",
  "ReconMatrixPE": 104,
  "RepetitionTime": 1.49,
  "SAR": 0.0382858,
  "ScanOptions": "FS",
  "ScanningSequence": "EP",
  "SequenceName": "epfid2d1_104",
  "SequenceVariant": "SK_SS",
  "SeriesDescription": "func_task-wm_run-1",
  "SeriesNumber": 15,
  "ShimSetting": [619, -7187, -8877, 420, -17, -147, 32, -28],
  "SliceThickness": 2,
  "SliceTiming": [0, 0.785, 0.0975, 0.8825, 0.1975, 0.98, 0.295, 1.0775, 0.3925, 1.1775, 0.49, 1.275, 0.5875, 1.3725, 0.6875, 0, 0.785, 0.0975, 0.8825, 0.1975, 0.98, 0.295, 1.0775, 0.3925, 1.1775, 0.49, 1.275, 0.5875, 1.3725, 0.6875, 0, 0.785, 0.0975, 0.8825, 0.1975, 0.98, 0.295, 1.0775, 0.3925, 1.1775, 0.49, 1.275, 0.5875, 1.3725, 0.6875, 0, 0.785, 0.0975, 0.8825, 0.1975, 0.98, 0.295, 1.0775, 0.3925, 1.1775, 0.49, 1.275, 0.5875, 1.3725, 0.6875],
  "SoftwareVersions": "syngo_MR_E11",
  "SpacingBetweenSlices": 2,
  "StationName": "MRC35049",
  "TaskName": "wm",
  "TotalReadoutTime": 0.0576811,
  "TxRefAmp": 252.88,
  "WipMemBlock": "a3cf82b1-3fc4-4d2b-8c17-4511a343548d||Sequence: R016 ve11c/master r/e634e98; Dec 19 2017 11:00:25 by eja",
  "dcmmeta_affine": [
    [-1.9988740682601929, 0.06561094522476196, 0.014063178561627865, 99.08309936523438],
    [0.05008554458618164, 1.7378039360046387, -0.9887005686759949, -63.163970947265625],
    [0.04465431347489357, 0.9877917766571045, 1.7384687662124634, -102.57095336914062],
    [0.0, 0.0, 0.0, 1.0]
],
  "dcmmeta_reorient_transform": [
    [0.0, -1.0, 0.0, 103.0],
    [1.0, 0.0, 0.0, 0.0],
    [0.0, 0.0, 1.0, 0.0],
    [0.0, 0.0, 0.0, 1.0]
],
  "dcmmeta_shape": [104, 104, 60, 202],
  "dcmmeta_slice_dim": 2,
  "dcmmeta_version": 0.6,
  "global": {
    "const": {
      "AcquisitionMatrix": [104, 0, 0, 104],
      "AngioFlag": "N",
      "BitsAllocated": 16,
      "BitsStored": 16,
      "BodyPartExamined": "BRAIN",
      "Columns": 832,
      "EchoNumbers": 1,
      "EchoTime": 37.0,
      "EchoTrainLength": 104,
      "FlipAngle": 52.0,
      "HighBit": 15,
      "ImageOrientationPatient": [0.99943702035051, -0.025042771708, 0.02232715696342, 0.0328054737544, 0.86890198270667, -0.4938958851217],
      "ImagePositionPatient": [-857.31356618385, -730.15934308882, 342.47363412873],
      "ImageType": [
        "ORIGINAL",
        "PRIMARY",
        "M",
        "MB",
        "ND",
        "MOSAIC"
],
      "ImagedNucleus": "1H",
      "ImagingFrequency": 123.259469,
      "InPlanePhaseEncodingDirection": "COL",
      "MRAcquisitionType": "2D",
      "MagneticFieldStrength": 3.0,
      "Manufacturer": "SIEMENS",
      "ManufacturerModelName": "Prisma_fit",
      "Modality": "MR",
      "NumberOfAverages": 1.0,
      "NumberOfPhaseEncodingSteps": 104,
      "PercentPhaseFieldOfView": 100.0,
      "PercentSampling": 100.0,
      "PerformedProcedureStepStartTime": "142328.475000",
      "PhotometricInterpretation": "MONOCHROME2",
      "PixelBandwidth": 2290.0,
      "PixelRepresentation": 0,
      "PixelSpacing": [2.0, 2.0],
      "ProtocolName": "func_task-wm_run-1",
      "RepetitionTime": 1490.0,
      "Rows": 832,
      "SAR": 0.03828583238364,
      "SamplesPerPixel": 1,
      "ScanOptions": "FS",
      "ScanningSequence": "EP",
      "SequenceName": "epfid2d1_104",
      "SequenceVariant": [
        "SK",
        "SS"
],
      "SeriesDescription": "func_task-wm_run-1",
      "SeriesNumber": 15,
      "SeriesTime": "144704.316000",
      "SliceLocation": -57.236356219072,
      "SliceThickness": 2.0,
      "SmallestImagePixelValue": 0,
      "SoftwareVersions": "syngo MR E11",
      "SpacingBetweenSlices": 2.0000000348812,
      "SpecificCharacterSet": "ISO_IR 100",
      "StudyID": "1",
      "StudyTime": "142328.392000",
      "TransmitCoilName": "Body",
      "VariableFlipAngleFlag": "N",
      "WindowCenterWidthExplanation": "Algo1",
      "dBdt": 0.0},
    "slices": {}
  },
  "time": {
    "samples": {
      "AcquisitionNumber": [1, 2, 3, 4, 5, 6, 7, 8, 9, 10, 11, 12, 13, 14, 15, 16, 17, 18, 19, 20, 21, 22, 23, 24, 25, 26, 27, 28, 29, 30, 31, 32, 33, 34, 35, 36, 37, 38, 39, 40, 41, 42, 43, 44, 45, 46, 47, 48, 49, 50, 51, 52, 53, 54, 55, 56, 57, 58, 59, 60, 61, 62, 63, 64, 65, 66, 67, 68, 69, 70, 71, 72, 73, 74, 75, 76, 77, 78, 79, 80, 81, 82, 83, 84, 85, 86, 87, 88, 89, 90, 91, 92, 93, 94, 95, 96, 97, 98, 99, 100, 101, 102, 103, 104, 105, 106, 107, 108, 109, 110, 111, 112, 113, 114, 115, 116, 117, 118, 119, 120, 121, 122, 123, 124, 125, 126, 127, 128, 129, 130, 131, 132, 133, 134, 135, 136, 137, 138, 139, 140, 141, 142, 143, 144, 145, 146, 147, 148, 149, 150, 151, 152, 153, 154, 155, 156, 157, 158, 159, 160, 161, 162, 163, 164, 165, 166, 167, 168, 169, 170, 171, 172, 173, 174, 175, 176, 177, 178, 179, 180, 181, 182, 183, 184, 185, 186, 187, 188, 189, 190, 191, 192, 193, 194, 195, 196, 197, 198, 199, 200, 201, 202],
      "AcquisitionTime": ["144530.682500", "144532.172500", "144533.662500", "144535.152500", "144536.642500", "144538.132500", "144539.622500", "144541.112500", "144542.602500", "144544.092500", "144545.582500", "144547.072500", "144548.562500", "144550.052500", "144551.542500", "144553.032500", "144554.522500", "144556.012500", "144557.502500", "144558.992500", "144600.482500", "144601.972500", "144603.462500", "144604.952500", "144606.442500", "144607.932500", "144609.422500", "144610.912500", "144612.402500", "144613.892500", "144615.382500", "144616.872500", "144618.362500", "144619.852500", "144621.342500", "144622.832500", "144624.322500", "144625.812500", "144627.302500", "144628.792500", "144630.282500", "144631.772500", "144633.262500", "144634.752500", "144636.242500", "144637.732500", "144639.222500", "144640.712500", "144642.202500", "144643.692500", "144645.182500", "144646.672500", "144648.162500", "144649.652500", "144651.142500", "144652.632500", "144654.122500", "144655.612500", "144657.102500", "144658.592500", "144700.082500", "144701.572500", "144703.062500", "144704.552500", "144706.042500", "144707.532500", "144709.022500", "144710.512500", "144712.002500", "144713.492500", "144714.982500", "144716.472500", "144717.962500", "144719.452500", "144720.942500", "144722.432500", "144723.922500", "144725.412500", "144726.902500", "144728.392500", "144729.882500", "144731.372500", "144732.862500", "144734.352500", "144735.842500", "144737.332500", "144738.822500", "144740.312500", "144741.802500", "144743.292500", "144744.782500", "144746.272500", "144747.762500", "144749.252500", "144750.742500", "144752.232500", "144753.722500", "144755.212500", "144756.702500", "144758.192500", "144759.682500", "144801.172500", "144802.662500", "144804.152500", "144805.642500", "144807.132500", "144808.622500", "144810.112500", "144811.602500", "144813.092500", "144814.582500", "144816.072500", "144817.562500", "144819.052500", "144820.542500", "144822.032500", "144823.522500", "144825.012500", "144826.502500", "144827.992500", "144829.482500", "144830.972500", "144832.462500", "144833.952500", "144835.442500", "144836.932500", "144838.422500", "144839.912500", "144841.402500", "144842.892500", "144844.382500", "144845.872500", "144847.362500", "144848.852500", "144850.342500", "144851.832500", "144853.322500", "144854.812500", "144856.302500", "144857.792500", "144859.282500", "144900.772500", "144902.262500", "144903.752500", "144905.242500", "144906.732500", "144908.222500", "144909.712500", "144911.202500", "144912.692500", "144914.182500", "144915.672500", "144917.162500", "144918.652500", "144920.142500", "144921.632500", "144923.122500", "144924.612500", "144926.102500", "144927.592500", "144929.082500", "144930.572500", "144932.062500", "144933.552500", "144935.042500", "144936.532500", "144938.022500", "144939.512500", "144941.002500", "144942.492500", "144943.982500", "144945.472500", "144946.962500", "144948.452500", "144949.942500", "144951.432500", "144952.922500", "144954.412500", "144955.902500", "144957.392500", "144958.882500", "145000.372500", "145001.862500", "145003.352500", "145004.842500", "145006.332500", "145007.822500", "145009.312500", "145010.802500", "145012.292500", "145013.782500", "145015.272500", "145016.762500", "145018.252500", "145019.742500", "145021.232500", "145022.722500", "145024.212500", "145025.702500", "145027.192500", "145028.682500", "145030.172500"],
      "ContentTime": ["144704.320000", "144704.324000", "144704.326000", "144704.330000", "144704.333000", "144704.335000", "144704.338000", "144704.341000", "144704.344000", "144704.353000", "144704.355000", "144704.358000", "144704.361000", "144704.364000", "144704.367000", "144704.369000", "144704.372000", "144704.375000", "144704.378000", "144704.381000", "144704.383000", "144704.386000", "144704.389000", "144704.392000", "144704.395000", "144704.397000", "144704.400000", "144704.403000", "144704.406000", "144704.409000", "144704.411000", "144704.414000", "144704.417000", "144704.420000", "144704.422000", "144704.425000", "144704.428000", "144704.431000", "144704.439000", "144724.286000", "144724.289000", "144724.292000", "144724.295000", "144724.298000", "144724.300000", "144724.303000", "144724.306000", "144724.309000", "144724.311000", "144724.314000", "144724.317000", "144724.320000", "144724.334000", "144724.337000", "144724.340000", "144724.343000", "144724.345000", "144724.348000", "144724.351000", "144724.354000", "144744.287000", "144744.290000", "144744.293000", "144744.295000", "144744.298000", "144744.301000", "144744.304000", "144744.307000", "144744.309000", "144744.312000", "144744.315000", "144744.318000", "144744.321000", "144744.324000", "144744.326000", "144744.329000", "144744.332000", "144744.335000", "144744.337000", "144744.340000", "144804.286000", "144804.289000", "144804.292000", "144804.294000", "144804.297000", "144804.300000", "144804.303000", "144804.306000", "144804.309000", "144804.311000", "144804.314000", "144804.317000", "144804.320000", "144804.323000", "144804.325000", "144804.328000", "144804.331000", "144804.334000", "144804.337000", "144804.339000", "144844.286000", "144844.289000", "144844.292000", "144844.295000", "144844.298000", "144844.300000", "144844.303000", "144844.306000", "144844.309000", "144844.312000", "144844.314000", "144844.317000", "144844.320000", "144844.323000", "144844.326000", "144844.328000", "144844.331000", "144844.334000", "144844.337000", "144844.340000", "144844.343000", "144844.345000", "144844.357000", "144844.359000", "144844.362000", "144844.365000", "144844.368000", "144844.371000", "144844.380000", "144924.286000", "144924.297000", "144924.300000", "144924.303000", "144924.306000", "144924.309000", "144924.312000", "144924.314000", "144924.317000", "144924.320000", "144924.323000", "144924.325000", "144924.328000", "144924.331000", "144924.334000", "144924.337000", "144924.340000", "144924.343000", "144924.345000", "144924.348000", "144924.351000", "144924.354000", "144924.357000", "144924.360000", "144924.362000", "144924.365000", "144924.368000", "145004.287000", "145004.290000", "145004.293000", "145004.296000", "145004.298000", "145004.301000", "145004.304000", "145004.307000", "145004.310000", "145004.312000", "145004.315000", "145004.318000", "145004.321000", "145004.323000", "145004.326000", "145004.329000", "145004.332000", "145004.335000", "145004.338000", "145004.341000", "145004.343000", "145004.366000", "145004.369000", "145004.371000", "145004.374000", "145004.377000", "145004.380000", "145032.170000", "145032.173000", "145032.177000", "145032.180000", "145032.183000", "145032.185000", "145032.188000", "145032.191000", "145032.194000", "145032.197000", "145032.200000", "145032.203000", "145032.206000", "145032.209000", "145032.212000", "145032.215000", "145032.218000", "145032.221000", "145032.224000"],
      "InstanceCreationTime": ["144704.320000", "144704.324000", "144704.326000", "144704.330000", "144704.333000", "144704.335000", "144704.338000", "144704.341000", "144704.344000", "144704.353000", "144704.355000", "144704.358000", "144704.361000", "144704.364000", "144704.367000", "144704.369000", "144704.372000", "144704.375000", "144704.378000", "144704.381000", "144704.383000", "144704.386000", "144704.389000", "144704.392000", "144704.395000", "144704.397000", "144704.400000", "144704.403000", "144704.406000", "144704.409000", "144704.411000", "144704.414000", "144704.417000", "144704.420000", "144704.422000", "144704.425000", "144704.428000", "144704.431000", "144704.439000", "144724.286000", "144724.289000", "144724.292000", "144724.295000", "144724.298000", "144724.300000", "144724.303000", "144724.306000", "144724.309000", "144724.311000", "144724.314000", "144724.317000", "144724.320000", "144724.334000", "144724.337000", "144724.340000", "144724.343000", "144724.345000", "144724.348000", "144724.351000", "144724.354000", "144744.287000", "144744.290000", "144744.293000", "144744.295000", "144744.298000", "144744.301000", "144744.304000", "144744.307000", "144744.309000", "144744.312000", "144744.315000", "144744.318000", "144744.321000", "144744.324000", "144744.326000", "144744.329000", "144744.332000", "144744.335000", "144744.337000", "144744.340000", "144804.286000", "144804.289000", "144804.292000", "144804.294000", "144804.297000", "144804.300000", "144804.303000", "144804.306000", "144804.309000", "144804.311000", "144804.314000", "144804.317000", "144804.320000", "144804.323000", "144804.325000", "144804.328000", "144804.331000", "144804.334000", "144804.337000", "144804.339000", "144844.286000", "144844.289000", "144844.292000", "144844.295000", "144844.298000", "144844.300000", "144844.303000", "144844.306000", "144844.309000", "144844.312000", "144844.314000", "144844.317000", "144844.320000", "144844.323000", "144844.326000", "144844.328000", "144844.331000", "144844.334000", "144844.337000", "144844.340000", "144844.343000", "144844.345000", "144844.357000", "144844.359000", "144844.362000", "144844.365000", "144844.368000", "144844.371000", "144844.380000", "144924.286000", "144924.297000", "144924.300000", "144924.303000", "144924.306000", "144924.309000", "144924.312000", "144924.314000", "144924.317000", "144924.320000", "144924.323000", "144924.325000", "144924.328000", "144924.331000", "144924.334000", "144924.337000", "144924.340000", "144924.343000", "144924.345000", "144924.348000", "144924.351000", "144924.354000", "144924.357000", "144924.360000", "144924.362000", "144924.365000", "144924.368000", "145004.287000", "145004.290000", "145004.293000", "145004.296000", "145004.298000", "145004.301000", "145004.304000", "145004.307000", "145004.310000", "145004.312000", "145004.315000", "145004.318000", "145004.321000", "145004.323000", "145004.326000", "145004.329000", "145004.332000", "145004.335000", "145004.338000", "145004.341000", "145004.343000", "145004.366000", "145004.369000", "145004.371000", "145004.374000", "145004.377000", "145004.380000", "145032.170000", "145032.173000", "145032.177000", "145032.180000", "145032.183000", "145032.185000", "145032.188000", "145032.191000", "145032.194000", "145032.197000", "145032.200000", "145032.203000", "145032.206000", "145032.209000", "145032.212000", "145032.215000", "145032.218000", "145032.221000", "145032.224000"],
      "InstanceNumber": [1, 2, 3, 4, 5, 6, 7, 8, 9, 10, 11, 12, 13, 14, 15, 16, 17, 18, 19, 20, 21, 22, 23, 24, 25, 26, 27, 28, 29, 30, 31, 32, 33, 34, 35, 36, 37, 38, 39, 40, 41, 42, 43, 44, 45, 46, 47, 48, 49, 50, 51, 52, 53, 54, 55, 56, 57, 58, 59, 60, 61, 62, 63, 64, 65, 66, 67, 68, 69, 70, 71, 72, 73, 74, 75, 76, 77, 78, 79, 80, 81, 82, 83, 84, 85, 86, 87, 88, 89, 90, 91, 92, 93, 94, 95, 96, 97, 98, 99, 100, 101, 102, 103, 104, 105, 106, 107, 108, 109, 110, 111, 112, 113, 114, 115, 116, 117, 118, 119, 120, 121, 122, 123, 124, 125, 126, 127, 128, 129, 130, 131, 132, 133, 134, 135, 136, 137, 138, 139, 140, 141, 142, 143, 144, 145, 146, 147, 148, 149, 150, 151, 152, 153, 154, 155, 156, 157, 158, 159, 160, 161, 162, 163, 164, 165, 166, 167, 168, 169, 170, 171, 172, 173, 174, 175, 176, 177, 178, 179, 180, 181, 182, 183, 184, 185, 186, 187, 188, 189, 190, 191, 192, 193, 194, 195, 196, 197, 198, 199, 200, 201, 202],
      "LargestImagePixelValue": [48131, 46461, 45521, 45308, 44769, 44542, 44411, 44807, 44503, 44490, 44122, 45092, 44625, 45643, 45131, 44936, 44252, 44530, 44456, 44748, 44352, 44860, 44435, 45310, 44422, 44265, 44141, 44552, 44645, 44912, 46076, 45364, 45318, 44889, 45153, 45299, 45916, 45625, 45808, 46258, 46091, 46020, 45825, 46200, 46110, 45685, 44916, 46500, 45173, 45863, 45015, 46789, 45800, 46149, 45971, 45796, 45856, 46225, 45849, 45652, 46720, 45864, 46802, 46557, 46457, 46447, 46533, 46412, 46826, 46519, 45953, 45870, 46338, 46342, 46276, 46972, 46220, 45718, 46033, 46367, 45288, 45948, 45069, 45489, 46309, 45489, 46034, 45342, 46112, 45321, 45768, 45856, 45237, 46235, 45463, 46102, 45878, 45387, 45291, 45626, 45802, 46279, 46159, 44881, 44864, 45025, 44036, 45958, 46270, 46505, 45612, 44658, 45291, 45169, 49859, 45220, 45934, 46350, 45965, 46191, 46330, 46204, 45435, 45045, 45030, 45339, 46019, 46115, 45266, 45562, 45360, 45347, 45965, 45872, 46001, 45673, 45731, 45924, 45114, 45166, 45353, 45628, 45509, 44773, 45611, 45118, 44931, 45612, 45902, 46949, 45888, 45442, 45133, 45723, 45664, 45705, 45446, 45524, 45616, 45498, 44977, 44757, 45243, 45342, 45944, 45078, 45825, 46387, 46485, 45447, 45566, 44806, 44992, 44905, 45515, 44851, 45145, 45220, 44885, 45376, 45036, 45554, 45524, 45469, 45295, 45047, 44898, 45815, 46305, 44897, 44806, 44940, 45850, 45935, 46372, 46002, 45333, 45059, 44631, 44736, 43958, 43692],
      "WindowCenter": [11285.0, 11208.0, 11179.0, 11175.0, 11176.0, 11178.0, 11180.0, 11194.0, 11204.0, 11211.0, 11214.0, 11227.0, 11237.0, 11252.0, 11243.0, 11231.0, 11224.0, 11237.0, 11239.0, 11230.0, 11212.0, 11201.0, 11199.0, 11204.0, 11203.0, 11209.0, 11203.0, 11207.0, 11196.0, 11191.0, 11199.0, 11193.0, 11193.0, 11190.0, 11194.0, 11193.0, 11197.0, 11200.0, 11199.0, 11202.0, 11196.0, 11198.0, 11201.0, 11213.0, 11204.0, 11206.0, 11191.0, 11202.0, 11182.0, 11176.0, 11159.0, 11179.0, 11197.0, 11213.0, 11202.0, 11197.0, 11184.0, 11187.0, 11188.0, 11192.0, 11196.0, 11192.0, 11201.0, 11197.0, 11199.0, 11196.0, 11195.0, 11197.0, 11207.0, 11213.0, 11208.0, 11200.0, 11204.0, 11198.0, 11196.0, 11209.0, 11197.0, 11192.0, 11202.0, 11205.0, 11203.0, 11206.0, 11199.0, 11205.0, 11223.0, 11214.0, 11218.0, 11214.0, 11217.0, 11211.0, 11216.0, 11210.0, 11199.0, 11203.0, 11198.0, 11190.0, 11186.0, 11195.0, 11197.0, 11205.0, 11194.0, 11190.0, 11211.0, 11194.0, 11154.0, 11145.0, 11159.0, 11203.0, 11206.0, 11194.0, 11177.0, 11165.0, 11178.0, 11174.0, 11228.0, 11187.0, 11206.0, 11226.0, 11232.0, 11227.0, 11222.0, 11222.0, 11240.0, 11247.0, 11242.0, 11236.0, 11232.0, 11224.0, 11211.0, 11211.0, 11218.0, 11220.0, 11215.0, 11215.0, 11216.0, 11222.0, 11218.0, 11222.0, 11206.0, 11210.0, 11211.0, 11214.0, 11207.0, 11206.0, 11213.0, 11202.0, 11192.0, 11188.0, 11177.0, 11183.0, 11171.0, 11167.0, 11177.0, 11196.0, 11191.0, 11179.0, 11171.0, 11177.0, 11194.0, 11211.0, 11211.0, 11204.0, 11203.0, 11189.0, 11190.0, 11176.0, 11188.0, 11191.0, 11190.0, 11181.0, 11180.0, 11176.0, 11179.0, 11176.0, 11193.0, 11183.0, 11190.0, 11193.0, 11194.0, 11205.0, 11200.0, 11199.0, 11191.0, 11197.0, 11190.0, 11185.0, 11184.0, 11195.0, 11183.0, 11171.0, 11184.0, 11177.0, 11171.0, 11166.0, 11164.0, 11166.0, 11177.0, 11187.0, 11225.0, 11229.0, 11170.0, 11129.0],
      "WindowWidth": [24329.0, 24114.0, 24027.0, 24009.0, 24005.0, 24007.0, 24010.0, 24040.0, 24062.0, 24075.0, 24087.0, 24112.0, 24139.0, 24169.0, 24156.0, 24131.0, 24115.0, 24142.0, 24148.0, 24125.0, 24083.0, 24057.0, 24054.0, 24064.0, 24064.0, 24078.0, 24065.0, 24074.0, 24046.0, 24035.0, 24053.0, 24038.0, 24035.0, 24032.0, 24039.0, 24036.0, 24043.0, 24050.0, 24047.0, 24052.0, 24038.0, 24043.0, 24057.0, 24080.0, 24059.0, 24063.0, 24031.0, 24055.0, 24015.0, 23997.0, 23957.0, 23998.0, 24041.0, 24074.0, 24048.0, 24037.0, 24011.0, 24014.0, 24016.0, 24026.0, 24033.0, 24029.0, 24045.0, 24033.0, 24046.0, 24036.0, 24031.0, 24036.0, 24058.0, 24078.0, 24064.0, 24046.0, 24051.0, 24041.0, 24032.0, 24071.0, 24037.0, 24028.0, 24047.0, 24054.0, 24054.0, 24060.0, 24048.0, 24061.0, 24095.0, 24079.0, 24086.0, 24081.0, 24084.0, 24070.0, 24083.0, 24067.0, 24044.0, 24049.0, 24043.0, 24016.0, 24013.0, 24034.0, 24040.0, 24055.0, 24034.0, 24020.0, 24072.0, 24031.0, 23939.0, 23916.0, 23946.0, 24043.0, 24047.0, 24012.0, 23978.0, 23953.0, 23983.0, 23979.0, 24097.0, 24009.0, 24053.0, 24097.0, 24111.0, 24102.0, 24087.0, 24091.0, 24142.0, 24151.0, 24140.0, 24125.0, 24112.0, 24101.0, 24068.0, 24067.0, 24083.0, 24093.0, 24076.0, 24074.0, 24079.0, 24093.0, 24084.0, 24091.0, 24061.0, 24067.0, 24071.0, 24073.0, 24056.0, 24058.0, 24070.0, 24049.0, 24030.0, 24013.0, 23984.0, 23993.0, 23972.0, 23964.0, 23987.0, 24035.0, 24022.0, 23988.0, 23971.0, 23986.0, 24025.0, 24078.0, 24071.0, 24054.0, 24056.0, 24011.0, 24014.0, 23987.0, 24015.0, 24018.0, 24018.0, 24001.0, 23994.0, 23988.0, 23991.0, 23989.0, 24022.0, 24003.0, 24018.0, 24028.0, 24027.0, 24049.0, 24041.0, 24039.0, 24019.0, 24033.0, 24014.0, 24007.0, 24003.0, 24034.0, 23998.0, 23975.0, 24004.0, 23987.0, 23969.0, 23960.0, 23951.0, 23958.0, 23986.0, 24013.0, 24104.0, 24112.0, 23983.0, 23887.0]
    },
    "slices": {}
  }
}