{
  "AcquisitionMatrixPE": 104,
  "AcquisitionNumber": 1,
  "AcquisitionTime": "14:27:52.722500",
  "BandwidthPerPixelPhaseEncode": 17.17,
  "BaseResolution": 104,
  "BodyPartExamined": "BRAIN",
  "CoilString": "HC1-7;NC1_2",
  "ConsistencyInfo": "N4_VE11C_LATEST_20160120",
  "ConversionSoftware": "dcm2niix",
  "ConversionSoftwareVersion": "v1.0.20190720  (JP2:OpenJPEG) GCC7.3.0",
  "DerivedVendorReportedEchoSpacing": 0.000560011,
  "DeviceSerialNumber": "167006",
  "DwellTime": 2.1e-06,
  "EchoTime": 0.037,
  "EchoTrainLength": 104,
  "EffectiveEchoSpacing": 0.000560011,
  "FlipAngle": 52,
  "ImageComments": "Unaliased_MB4_PE3_LB",
  "ImageOrientationPatientDICOM": [0.999437, -0.0250428, 0.0223272, 0.0328055, 0.868902, -0.493896],
  "ImageType": [
    "ORIGINAL",
    "PRIMARY",
    "M",
    "MB",
    "ND",
    "MOSAIC"
],
  "ImagingFrequency": 123.259,
  "InPlanePhaseEncodingDirectionDICOM": "COL",
  "InstitutionAddress": "Chemin_Queen-Mary_4565_Montreal_District_CA_H3W_1W5",
  "InstitutionName": "IUGM",
  "InstitutionalDepartmentName": "Department",
  "MRAcquisitionType": "2D",
  "MagneticFieldStrength": 3,
  "Manufacturer": "Siemens",
  "ManufacturersModelName": "Prisma_fit",
  "Modality": "MR",
  "MultibandAccelerationFactor": 4,
  "PartialFourier": 1,
  "PatientPosition": "HFS",
  "PercentPhaseFOV": 100,
  "PhaseEncodingDirection": "j",
  "PhaseEncodingSteps": 104,
  "PhaseResolution": 1,
  "PixelBandwidth": 2290,
  "ProcedureStepDescription": "hcptrt_generic",
  "ProtocolName": "func_task-motor_run-1",
  "PulseSequenceDetails": "%CustomerSeq%_cmrr_mbep2d_bold",
  "ReceiveCoilActiveElements": "HC1-7;NC1,2",
  "ReceiveCoilName": "HeadNeck_64",
  "ReconMatrixPE": 104,
  "RepetitionTime": 1.49,
  "SAR": 0.0381419,
  "ScanOptions": "FS",
  "ScanningSequence": "EP",
  "SequenceName": "epfid2d1_104",
  "SequenceVariant": "SK_SS",
  "SeriesDescription": "func_task-motor_run-1",
  "SeriesNumber": 7,
  "ShimSetting": [619, -7187, -8877, 420, -17, -147, 32, -28],
  "SliceThickness": 2,
  "SliceTiming": [0, 0.7825, 0.0975, 0.88, 0.195, 0.98, 0.2925, 1.0775, 0.39, 1.175, 0.49, 1.2725, 0.5875, 1.37, 0.685, 0, 0.7825, 0.0975, 0.88, 0.195, 0.98, 0.2925, 1.0775, 0.39, 1.175, 0.49, 1.2725, 0.5875, 1.37, 0.685, 0, 0.7825, 0.0975, 0.88, 0.195, 0.98, 0.2925, 1.0775, 0.39, 1.175, 0.49, 1.2725, 0.5875, 1.37, 0.685, 0, 0.7825, 0.0975, 0.88, 0.195, 0.98, 0.2925, 1.0775, 0.39, 1.175, 0.49, 1.2725, 0.5875, 1.37, 0.685],
  "SoftwareVersions": "syngo_MR_E11",
  "SpacingBetweenSlices": 2,
  "StationName": "MRC35049",
  "TaskName": "motor",
  "TotalReadoutTime": 0.0576811,
  "TxRefAmp": 252.88,
  "WipMemBlock": "94c8924a-255d-4ae8-9242-f67001f825b8||Sequence: R016 ve11c/master r/e634e98; Dec 19 2017 11:00:25 by eja",
  "dcmmeta_affine": [
    [-1.9988740682601929, 0.06561094522476196, 0.014063178561627865, 99.08309936523438],
    [0.05008554458618164, 1.7378039360046387, -0.9887005686759949, -63.163970947265625],
    [0.04465431347489357, 0.9877917766571045, 1.7384687662124634, -102.57095336914062],
    [0.0, 0.0, 0.0, 1.0]
],
  "dcmmeta_reorient_transform": [
    [0.0, -1.0, 0.0, 103.0],
    [1.0, 0.0, 0.0, 0.0],
    [0.0, 0.0, 1.0, 0.0],
    [0.0, 0.0, 0.0, 1.0]
],
  "dcmmeta_shape": [104, 104, 60, 144],
  "dcmmeta_slice_dim": 2,
  "dcmmeta_version": 0.6,
  "global": {
    "const": {
      "AcquisitionMatrix": [104, 0, 0, 104],
      "AngioFlag": "N",
      "BitsAllocated": 16,
      "BitsStored": 16,
      "BodyPartExamined": "BRAIN",
      "Columns": 832,
      "EchoNumbers": 1,
      "EchoTime": 37.0,
      "EchoTrainLength": 104,
      "FlipAngle": 52.0,
      "HighBit": 15,
      "ImageOrientationPatient": [0.99943702035051, -0.025042771708, 0.02232715696342, 0.0328054737544, 0.86890198270667, -0.4938958851217],
      "ImagePositionPatient": [-857.31356618385, -730.15934308882, 342.47363412873],
      "ImageType": [
        "ORIGINAL",
        "PRIMARY",
        "M",
        "MB",
        "ND",
        "MOSAIC"
],
      "ImagedNucleus": "1H",
      "ImagingFrequency": 123.259453,
      "InPlanePhaseEncodingDirection": "COL",
      "MRAcquisitionType": "2D",
      "MagneticFieldStrength": 3.0,
      "Manufacturer": "SIEMENS",
      "ManufacturerModelName": "Prisma_fit",
      "Modality": "MR",
      "NumberOfAverages": 1.0,
      "NumberOfPhaseEncodingSteps": 104,
      "PercentPhaseFieldOfView": 100.0,
      "PercentSampling": 100.0,
      "PerformedProcedureStepStartTime": "142328.475000",
      "PhotometricInterpretation": "MONOCHROME2",
      "PixelBandwidth": 2290.0,
      "PixelRepresentation": 0,
      "PixelSpacing": [2.0, 2.0],
      "ProtocolName": "func_task-motor_run-1",
      "RepetitionTime": 1490.0,
      "Rows": 832,
      "SAR": 0.0381418706798,
      "SamplesPerPixel": 1,
      "ScanOptions": "FS",
      "ScanningSequence": "EP",
      "SequenceName": "epfid2d1_104",
      "SequenceVariant": [
        "SK",
        "SS"
],
      "SeriesDescription": "func_task-motor_run-1",
      "SeriesNumber": 7,
      "SeriesTime": "142925.254000",
      "SliceLocation": -57.236356219072,
      "SliceThickness": 2.0,
      "SmallestImagePixelValue": 0,
      "SoftwareVersions": "syngo MR E11",
      "SpacingBetweenSlices": 2.0000000348812,
      "SpecificCharacterSet": "ISO_IR 100",
      "StudyID": "1",
      "StudyTime": "142328.392000",
      "TransmitCoilName": "Body",
      "VariableFlipAngleFlag": "N",
      "WindowCenterWidthExplanation": "Algo1",
      "dBdt": 0.0},
    "slices": {}
  },
  "time": {
    "samples": {
      "AcquisitionNumber": [1, 2, 3, 4, 5, 6, 7, 8, 9, 10, 11, 12, 13, 14, 15, 16, 17, 18, 19, 20, 21, 22, 23, 24, 25, 26, 27, 28, 29, 30, 31, 32, 33, 34, 35, 36, 37, 38, 39, 40, 41, 42, 43, 44, 45, 46, 47, 48, 49, 50, 51, 52, 53, 54, 55, 56, 57, 58, 59, 60, 61, 62, 63, 64, 65, 66, 67, 68, 69, 70, 71, 72, 73, 74, 75, 76, 77, 78, 79, 80, 81, 82, 83, 84, 85, 86, 87, 88, 89, 90, 91, 92, 93, 94, 95, 96, 97, 98, 99, 100, 101, 102, 103, 104, 105, 106, 107, 108, 109, 110, 111, 112, 113, 114, 115, 116, 117, 118, 119, 120, 121, 122, 123, 124, 125, 126, 127, 128, 129, 130, 131, 132, 133, 134, 135, 136, 137, 138, 139, 140, 141, 142, 143, 144],
      "AcquisitionTime": ["142752.722500", "142754.212500", "142755.702500", "142757.192500", "142758.682500", "142800.172500", "142801.662500", "142803.152500", "142804.642500", "142806.132500", "142807.622500", "142809.112500", "142810.602500", "142812.092500", "142813.582500", "142815.072500", "142816.562500", "142818.052500", "142819.542500", "142821.032500", "142822.522500", "142824.012500", "142825.502500", "142826.992500", "142828.482500", "142829.972500", "142831.462500", "142832.952500", "142834.442500", "142835.932500", "142837.422500", "142838.912500", "142840.402500", "142841.892500", "142843.382500", "142844.872500", "142846.362500", "142847.852500", "142849.342500", "142850.832500", "142852.322500", "142853.812500", "142855.302500", "142856.792500", "142858.282500", "142859.772500", "142901.262500", "142902.752500", "142904.242500", "142905.732500", "142907.222500", "142908.712500", "142910.202500", "142911.692500", "142913.182500", "142914.672500", "142916.162500", "142917.652500", "142919.142500", "142920.632500", "142922.122500", "142923.612500", "142925.102500", "142926.592500", "142928.082500", "142929.572500", "142931.062500", "142932.552500", "142934.042500", "142935.532500", "142937.022500", "142938.512500", "142940.002500", "142941.492500", "142942.982500", "142944.472500", "142945.962500", "142947.452500", "142948.942500", "142950.432500", "142951.922500", "142953.412500", "142954.902500", "142956.392500", "142957.882500", "142959.372500", "143000.862500", "143002.352500", "143003.842500", "143005.332500", "143006.822500", "143008.312500", "143009.802500", "143011.292500", "143012.782500", "143014.272500", "143015.762500", "143017.252500", "143018.742500", "143020.232500", "143021.722500", "143023.212500", "143024.702500", "143026.192500", "143027.682500", "143029.172500", "143030.662500", "143032.152500", "143033.642500", "143035.132500", "143036.622500", "143038.112500", "143039.602500", "143041.092500", "143042.582500", "143044.072500", "143045.562500", "143047.052500", "143048.542500", "143050.032500", "143051.522500", "143053.012500", "143054.502500", "143055.992500", "143057.482500", "143058.972500", "143100.462500", "143101.952500", "143103.442500", "143104.932500", "143106.422500", "143107.912500", "143109.402500", "143110.892500", "143112.382500", "143113.872500", "143115.362500", "143116.852500", "143118.342500", "143119.832500", "143121.322500", "143122.812500", "143124.302500", "143125.792500"],
      "ContentTime": ["142925.257000", "142925.260000", "142925.263000", "142925.266000", "142925.269000", "142925.271000", "142925.274000", "142925.277000", "142925.280000", "142925.283000", "142925.286000", "142925.289000", "142925.292000", "142925.294000", "142925.297000", "142925.300000", "142925.303000", "142925.305000", "142925.308000", "142925.320000", "142925.323000", "142925.325000", "142925.331000", "142925.334000", "142925.337000", "142925.340000", "142925.343000", "142925.346000", "142925.349000", "142925.351000", "142925.354000", "142925.357000", "142925.360000", "142925.362000", "142925.365000", "142945.215000", "142945.218000", "142945.220000", "142945.223000", "142945.234000", "142945.237000", "142945.239000", "142945.242000", "142945.245000", "142945.248000", "142945.251000", "142945.253000", "142945.262000", "142945.265000", "142945.268000", "142945.271000", "142945.274000", "142945.277000", "142945.279000", "142945.282000", "143005.215000", "143005.218000", "143005.220000", "143005.223000", "143005.234000", "143005.237000", "143005.240000", "143005.242000", "143005.245000", "143005.248000", "143005.251000", "143005.254000", "143005.257000", "143005.259000", "143005.262000", "143005.265000", "143005.268000", "143005.271000", "143005.274000", "143005.276000", "143005.279000", "143025.215000", "143025.218000", "143025.220000", "143025.223000", "143025.226000", "143025.229000", "143025.232000", "143025.234000", "143025.237000", "143025.240000", "143025.243000", "143025.246000", "143025.248000", "143025.251000", "143025.254000", "143025.257000", "143025.260000", "143025.262000", "143025.265000", "143025.268000", "143105.215000", "143105.218000", "143105.221000", "143105.223000", "143105.226000", "143105.229000", "143105.232000", "143105.235000", "143105.238000", "143105.240000", "143105.243000", "143105.246000", "143105.249000", "143105.252000", "143105.255000", "143105.257000", "143105.260000", "143105.263000", "143105.266000", "143105.269000", "143105.271000", "143105.274000", "143105.277000", "143105.280000", "143105.283000", "143105.285000", "143105.288000", "143105.291000", "143105.294000", "143105.297000", "143105.307000", "143105.310000", "143128.301000", "143128.305000", "143128.307000", "143128.314000", "143128.317000", "143128.320000", "143128.323000", "143128.326000", "143128.328000", "143128.331000", "143128.334000", "143128.337000", "143128.340000", "143128.352000", "143128.355000", "143128.358000"],
      "InstanceCreationTime": ["142925.257000", "142925.260000", "142925.263000", "142925.266000", "142925.269000", "142925.271000", "142925.274000", "142925.277000", "142925.280000", "142925.283000", "142925.286000", "142925.289000", "142925.292000", "142925.294000", "142925.297000", "142925.300000", "142925.303000", "142925.305000", "142925.308000", "142925.320000", "142925.323000", "142925.325000", "142925.331000", "142925.334000", "142925.337000", "142925.340000", "142925.343000", "142925.346000", "142925.349000", "142925.351000", "142925.354000", "142925.357000", "142925.360000", "142925.362000", "142925.365000", "142945.215000", "142945.218000", "142945.220000", "142945.223000", "142945.234000", "142945.237000", "142945.239000", "142945.242000", "142945.245000", "142945.248000", "142945.251000", "142945.253000", "142945.262000", "142945.265000", "142945.268000", "142945.271000", "142945.274000", "142945.277000", "142945.279000", "142945.282000", "143005.215000", "143005.218000", "143005.220000", "143005.223000", "143005.234000", "143005.237000", "143005.240000", "143005.242000", "143005.245000", "143005.248000", "143005.251000", "143005.254000", "143005.257000", "143005.259000", "143005.262000", "143005.265000", "143005.268000", "143005.271000", "143005.274000", "143005.276000", "143005.279000", "143025.215000", "143025.218000", "143025.220000", "143025.223000", "143025.226000", "143025.229000", "143025.232000", "143025.234000", "143025.237000", "143025.240000", "143025.243000", "143025.246000", "143025.248000", "143025.251000", "143025.254000", "143025.257000", "143025.260000", "143025.262000", "143025.265000", "143025.268000", "143105.215000", "143105.218000", "143105.221000", "143105.223000", "143105.226000", "143105.229000", "143105.232000", "143105.235000", "143105.238000", "143105.240000", "143105.243000", "143105.246000", "143105.249000", "143105.252000", "143105.255000", "143105.257000", "143105.260000", "143105.263000", "143105.266000", "143105.269000", "143105.271000", "143105.274000", "143105.277000", "143105.280000", "143105.283000", "143105.285000", "143105.288000", "143105.291000", "143105.294000", "143105.297000", "143105.307000", "143105.310000", "143128.301000", "143128.305000", "143128.307000", "143128.314000", "143128.317000", "143128.320000", "143128.323000", "143128.326000", "143128.328000", "143128.331000", "143128.334000", "143128.337000", "143128.340000", "143128.352000", "143128.355000", "143128.358000"],
      "InstanceNumber": [1, 2, 3, 4, 5, 6, 7, 8, 9, 10, 11, 12, 13, 14, 15, 16, 17, 18, 19, 20, 21, 22, 23, 24, 25, 26, 27, 28, 29, 30, 31, 32, 33, 34, 35, 36, 37, 38, 39, 40, 41, 42, 43, 44, 45, 46, 47, 48, 49, 50, 51, 52, 53, 54, 55, 56, 57, 58, 59, 60, 61, 62, 63, 64, 65, 66, 67, 68, 69, 70, 71, 72, 73, 74, 75, 76, 77, 78, 79, 80, 81, 82, 83, 84, 85, 86, 87, 88, 89, 90, 91, 92, 93, 94, 95, 96, 97, 98, 99, 100, 101, 102, 103, 104, 105, 106, 107, 108, 109, 110, 111, 112, 113, 114, 115, 116, 117, 118, 119, 120, 121, 122, 123, 124, 125, 126, 127, 128, 129, 130, 131, 132, 133, 134, 135, 136, 137, 138, 139, 140, 141, 142, 143, 144],
      "LargestImagePixelValue": [51205, 49493, 48736, 48608, 47536, 47456, 47138, 47151, 47565, 47290, 47866, 47429, 47962, 47646, 47445, 47736, 47522, 47311, 46635, 46389, 46901, 46233, 47322, 46545, 46478, 45953, 46786, 50048, 47319, 47050, 46906, 46950, 46742, 47159, 47409, 47228, 47549, 47336, 47267, 47313, 47046, 47314, 46665, 47260, 47330, 47072, 47112, 47889, 47631, 46529, 47103, 46875, 46690, 47610, 46990, 45893, 46858, 46845, 46654, 47738, 48251, 47982, 48507, 47967, 48066, 48104, 47354, 47289, 47549, 47897, 47271, 47200, 47296, 47774, 47529, 46139, 47467, 47976, 47299, 47191, 46847, 48544, 46600, 46951, 46119, 46674, 47281, 46923, 47098, 46956, 47443, 46856, 46214, 47580, 46550, 46828, 46755, 47063, 45896, 48379, 48435, 46547, 46527, 45761, 45303, 45125, 45045, 46693, 47520, 47195, 47295, 47625, 47710, 47252, 47360, 46157, 46169, 46093, 46497, 45836, 45596, 46069, 45820, 45672, 45189, 45739, 45815, 45527, 45810, 47077, 46387, 47725, 46546, 47264, 46521, 47454, 46200, 47148, 47675, 47198, 47673, 47763, 47086, 48049],
      "WindowCenter": [11424.0, 11367.0, 11341.0, 11340.0, 11335.0, 11336.0, 11336.0, 11327.0, 11325.0, 11324.0, 11335.0, 11333.0, 11329.0, 11323.0, 11316.0, 11324.0, 11314.0, 11316.0, 11332.0, 11338.0, 11342.0, 11334.0, 11342.0, 11328.0, 11329.0, 11321.0, 11339.0, 11362.0, 11350.0, 11334.0, 11345.0, 11333.0, 11316.0, 11311.0, 11315.0, 11340.0, 11355.0, 11357.0, 11360.0, 11344.0, 11329.0, 11321.0, 11309.0, 11321.0, 11324.0, 11333.0, 11351.0, 11362.0, 11370.0, 11371.0, 11385.0, 11379.0, 11372.0, 11375.0, 11360.0, 11346.0, 11347.0, 11352.0, 11343.0, 11351.0, 11349.0, 11340.0, 11342.0, 11344.0, 11348.0, 11341.0, 11325.0, 11320.0, 11310.0, 11320.0, 11331.0, 11332.0, 11313.0, 11299.0, 11298.0, 11295.0, 11316.0, 11343.0, 11360.0, 11346.0, 11318.0, 11327.0, 11321.0, 11326.0, 11318.0, 11325.0, 11324.0, 11318.0, 11323.0, 11326.0, 11321.0, 11309.0, 11301.0, 11321.0, 11329.0, 11336.0, 11340.0, 11332.0, 11325.0, 11383.0, 11362.0, 11313.0, 11328.0, 11336.0, 11336.0, 11308.0, 11294.0, 11302.0, 11298.0, 11311.0, 11313.0, 11317.0, 11314.0, 11311.0, 11313.0, 11319.0, 11339.0, 11362.0, 11370.0, 11370.0, 11358.0, 11361.0, 11351.0, 11352.0, 11351.0, 11357.0, 11345.0, 11340.0, 11329.0, 11334.0, 11323.0, 11330.0, 11316.0, 11323.0, 11318.0, 11336.0, 11319.0, 11320.0, 11311.0, 11317.0, 11336.0, 11326.0, 11303.0, 11308.0],
      "WindowWidth": [24655.0, 24487.0, 24410.0, 24401.0, 24384.0, 24386.0, 24383.0, 24361.0, 24356.0, 24351.0, 24374.0, 24371.0, 24361.0, 24348.0, 24334.0, 24356.0, 24328.0, 24330.0, 24380.0, 24388.0, 24396.0, 24382.0, 24401.0, 24376.0, 24374.0, 24358.0, 24400.0, 24441.0, 24420.0, 24374.0, 24399.0, 24371.0, 24330.0, 24322.0, 24327.0, 24386.0, 24420.0, 24426.0, 24435.0, 24396.0, 24361.0, 24339.0, 24312.0, 24338.0, 24349.0, 24366.0, 24411.0, 24437.0, 24463.0, 24467.0, 24501.0, 24488.0, 24470.0, 24476.0, 24440.0, 24414.0, 24412.0, 24423.0, 24399.0, 24410.0, 24409.0, 24384.0, 24383.0, 24387.0, 24401.0, 24387.0, 24348.0, 24339.0, 24309.0, 24336.0, 24360.0, 24362.0, 24319.0, 24285.0, 24288.0, 24284.0, 24330.0, 24390.0, 24434.0, 24400.0, 24332.0, 24361.0, 24345.0, 24351.0, 24334.0, 24356.0, 24343.0, 24327.0, 24338.0, 24344.0, 24328.0, 24303.0, 24284.0, 24331.0, 24355.0, 24369.0, 24390.0, 24365.0, 24354.0, 24492.0, 24439.0, 24328.0, 24365.0, 24384.0, 24390.0, 24319.0, 24279.0, 24299.0, 24284.0, 24318.0, 24319.0, 24331.0, 24320.0, 24317.0, 24319.0, 24337.0, 24385.0, 24439.0, 24455.0, 24466.0, 24437.0, 24447.0, 24420.0, 24423.0, 24422.0, 24439.0, 24405.0, 24396.0, 24367.0, 24373.0, 24349.0, 24360.0, 24331.0, 24347.0, 24338.0, 24374.0, 24339.0, 24346.0, 24318.0, 24331.0, 24388.0, 24351.0, 24300.0, 24308.0]
    },
    "slices": {}
  }
}