{
  "AcquisitionMatrixPE": 104,
  "AcquisitionNumber": 1,
  "AcquisitionTime": "14:32:30.852500",
  "BandwidthPerPixelPhaseEncode": 17.17,
  "BaseResolution": 104,
  "BodyPartExamined": "BRAIN",
  "CoilString": "HC1-7;NC1_2",
  "ConsistencyInfo": "N4_VE11C_LATEST_20160120",
  "ConversionSoftware": "dcm2niix",
  "ConversionSoftwareVersion": "v1.0.20190720  (JP2:OpenJPEG) GCC7.3.0",
  "DerivedVendorReportedEchoSpacing": 0.000560011,
  "DeviceSerialNumber": "167006",
  "DwellTime": 2.1e-06,
  "EchoTime": 0.037,
  "EchoTrainLength": 104,
  "EffectiveEchoSpacing": 0.000560011,
  "FlipAngle": 52,
  "ImageComments": "Unaliased_MB4_PE3_LB",
  "ImageOrientationPatientDICOM": [0.999437, -0.0250428, 0.0223272, 0.0328055, 0.868902, -0.493896],
  "ImageType": [
    "ORIGINAL",
    "PRIMARY",
    "M",
    "MB",
    "ND",
    "MOSAIC"
],
  "ImagingFrequency": 123.259,
  "InPlanePhaseEncodingDirectionDICOM": "COL",
  "InstitutionAddress": "Chemin_Queen-Mary_4565_Montreal_District_CA_H3W_1W5",
  "InstitutionName": "IUGM",
  "InstitutionalDepartmentName": "Department",
  "MRAcquisitionType": "2D",
  "MagneticFieldStrength": 3,
  "Manufacturer": "Siemens",
  "ManufacturersModelName": "Prisma_fit",
  "Modality": "MR",
  "MultibandAccelerationFactor": 4,
  "PartialFourier": 1,
  "PatientPosition": "HFS",
  "PercentPhaseFOV": 100,
  "PhaseEncodingDirection": "j",
  "PhaseEncodingSteps": 104,
  "PhaseResolution": 1,
  "PixelBandwidth": 2290,
  "ProcedureStepDescription": "hcptrt_generic",
  "ProtocolName": "func_task-social_run-1",
  "PulseSequenceDetails": "%CustomerSeq%_cmrr_mbep2d_bold",
  "ReceiveCoilActiveElements": "HC1-7;NC1,2",
  "ReceiveCoilName": "HeadNeck_64",
  "ReconMatrixPE": 104,
  "RepetitionTime": 1.49,
  "SAR": 0.0381241,
  "ScanOptions": "FS",
  "ScanningSequence": "EP",
  "SequenceName": "epfid2d1_104",
  "SequenceVariant": "SK_SS",
  "SeriesDescription": "func_task-social_run-1",
  "SeriesNumber": 9,
  "ShimSetting": [619, -7187, -8877, 420, -17, -147, 32, -28],
  "SliceThickness": 2,
  "SliceTiming": [0, 0.785, 0.0975, 0.8825, 0.1975, 0.98, 0.295, 1.0775, 0.3925, 1.1775, 0.49, 1.275, 0.5875, 1.3725, 0.6875, 0, 0.785, 0.0975, 0.8825, 0.1975, 0.98, 0.295, 1.0775, 0.3925, 1.1775, 0.49, 1.275, 0.5875, 1.3725, 0.6875, 0, 0.785, 0.0975, 0.8825, 0.1975, 0.98, 0.295, 1.0775, 0.3925, 1.1775, 0.49, 1.275, 0.5875, 1.3725, 0.6875, 0, 0.785, 0.0975, 0.8825, 0.1975, 0.98, 0.295, 1.0775, 0.3925, 1.1775, 0.49, 1.275, 0.5875, 1.3725, 0.6875],
  "SoftwareVersions": "syngo_MR_E11",
  "SpacingBetweenSlices": 2,
  "StationName": "MRC35049",
  "TaskName": "social",
  "TotalReadoutTime": 0.0576811,
  "TxRefAmp": 252.88,
  "WipMemBlock": "448d6bfb-0976-4dc4-934f-0fcbbe17ace0||Sequence: R016 ve11c/master r/e634e98; Dec 19 2017 11:00:25 by eja",
  "dcmmeta_affine": [
    [-1.9988740682601929, 0.06561094522476196, 0.014063178561627865, 99.08309936523438],
    [0.05008554458618164, 1.7378039360046387, -0.9887005686759949, -63.163970947265625],
    [0.04465431347489357, 0.9877917766571045, 1.7384687662124634, -102.57095336914062],
    [0.0, 0.0, 0.0, 1.0]
],
  "dcmmeta_reorient_transform": [
    [0.0, -1.0, 0.0, 103.0],
    [1.0, 0.0, 0.0, 0.0],
    [0.0, 0.0, 1.0, 0.0],
    [0.0, 0.0, 0.0, 1.0]
],
  "dcmmeta_shape": [104, 104, 60, 139],
  "dcmmeta_slice_dim": 2,
  "dcmmeta_version": 0.6,
  "global": {
    "const": {
      "AcquisitionMatrix": [104, 0, 0, 104],
      "AngioFlag": "N",
      "BitsAllocated": 16,
      "BitsStored": 16,
      "BodyPartExamined": "BRAIN",
      "Columns": 832,
      "EchoNumbers": 1,
      "EchoTime": 37.0,
      "EchoTrainLength": 104,
      "FlipAngle": 52.0,
      "HighBit": 15,
      "ImageOrientationPatient": [0.99943702035051, -0.025042771708, 0.02232715696342, 0.0328054737544, 0.86890198270667, -0.4938958851217],
      "ImagePositionPatient": [-857.31356618385, -730.15934308882, 342.47363412873],
      "ImageType": [
        "ORIGINAL",
        "PRIMARY",
        "M",
        "MB",
        "ND",
        "MOSAIC"
],
      "ImagedNucleus": "1H",
      "ImagingFrequency": 123.259455,
      "InPlanePhaseEncodingDirection": "COL",
      "MRAcquisitionType": "2D",
      "MagneticFieldStrength": 3.0,
      "Manufacturer": "SIEMENS",
      "ManufacturerModelName": "Prisma_fit",
      "Modality": "MR",
      "NumberOfAverages": 1.0,
      "NumberOfPhaseEncodingSteps": 104,
      "PercentPhaseFieldOfView": 100.0,
      "PercentSampling": 100.0,
      "PerformedProcedureStepStartTime": "142328.475000",
      "PhotometricInterpretation": "MONOCHROME2",
      "PixelBandwidth": 2290.0,
      "PixelRepresentation": 0,
      "PixelSpacing": [2.0, 2.0],
      "ProtocolName": "func_task-social_run-1",
      "RepetitionTime": 1490.0,
      "Rows": 832,
      "SAR": 0.03812410488931,
      "SamplesPerPixel": 1,
      "ScanOptions": "FS",
      "ScanningSequence": "EP",
      "SequenceName": "epfid2d1_104",
      "SequenceVariant": [
        "SK",
        "SS"
],
      "SeriesDescription": "func_task-social_run-1",
      "SeriesNumber": 9,
      "SeriesTime": "143344.316000",
      "SliceLocation": -57.236356219072,
      "SliceThickness": 2.0,
      "SmallestImagePixelValue": 0,
      "SoftwareVersions": "syngo MR E11",
      "SpacingBetweenSlices": 2.0000000348812,
      "SpecificCharacterSet": "ISO_IR 100",
      "StudyID": "1",
      "StudyTime": "142328.392000",
      "TransmitCoilName": "Body",
      "VariableFlipAngleFlag": "N",
      "WindowCenterWidthExplanation": "Algo1",
      "dBdt": 0.0},
    "slices": {}
  },
  "time": {
    "samples": {
      "AcquisitionNumber": [1, 2, 3, 4, 5, 6, 7, 8, 9, 10, 11, 12, 13, 14, 15, 16, 17, 18, 19, 20, 21, 22, 23, 24, 25, 26, 27, 28, 29, 30, 31, 32, 33, 34, 35, 36, 37, 38, 39, 40, 41, 42, 43, 44, 45, 46, 47, 48, 49, 50, 51, 52, 53, 54, 55, 56, 57, 58, 59, 60, 61, 62, 63, 64, 65, 66, 67, 68, 69, 70, 71, 72, 73, 74, 75, 76, 77, 78, 79, 80, 81, 82, 83, 84, 85, 86, 87, 88, 89, 90, 91, 92, 93, 94, 95, 96, 97, 98, 99, 100, 101, 102, 103, 104, 105, 106, 107, 108, 109, 110, 111, 112, 113, 114, 115, 116, 117, 118, 119, 120, 121, 122, 123, 124, 125, 126, 127, 128, 129, 130, 131, 132, 133, 134, 135, 136, 137, 138, 139],
      "AcquisitionTime": ["143230.852500", "143232.342500", "143233.832500", "143235.322500", "143236.812500", "143238.302500", "143239.792500", "143241.282500", "143242.772500", "143244.262500", "143245.752500", "143247.242500", "143248.732500", "143250.222500", "143251.712500", "143253.202500", "143254.692500", "143256.182500", "143257.672500", "143259.162500", "143300.652500", "143302.142500", "143303.632500", "143305.122500", "143306.612500", "143308.102500", "143309.592500", "143311.082500", "143312.572500", "143314.062500", "143315.552500", "143317.042500", "143318.532500", "143320.022500", "143321.512500", "143323.002500", "143324.492500", "143325.982500", "143327.472500", "143328.962500", "143330.452500", "143331.942500", "143333.432500", "143334.922500", "143336.412500", "143337.902500", "143339.392500", "143340.882500", "143342.372500", "143343.862500", "143345.352500", "143346.842500", "143348.332500", "143349.822500", "143351.312500", "143352.802500", "143354.292500", "143355.782500", "143357.272500", "143358.762500", "143400.252500", "143401.742500", "143403.232500", "143404.722500", "143406.212500", "143407.702500", "143409.192500", "143410.682500", "143412.172500", "143413.662500", "143415.152500", "143416.642500", "143418.132500", "143419.622500", "143421.112500", "143422.602500", "143424.092500", "143425.582500", "143427.072500", "143428.562500", "143430.052500", "143431.542500", "143433.032500", "143434.522500", "143436.012500", "143437.502500", "143438.992500", "143440.482500", "143441.972500", "143443.462500", "143444.952500", "143446.442500", "143447.932500", "143449.422500", "143450.912500", "143452.402500", "143453.892500", "143455.382500", "143456.872500", "143458.362500", "143459.852500", "143501.342500", "143502.832500", "143504.322500", "143505.812500", "143507.302500", "143508.792500", "143510.282500", "143511.772500", "143513.262500", "143514.752500", "143516.242500", "143517.732500", "143519.222500", "143520.712500", "143522.202500", "143523.692500", "143525.182500", "143526.672500", "143528.162500", "143529.652500", "143531.142500", "143532.632500", "143534.122500", "143535.612500", "143537.102500", "143538.592500", "143540.082500", "143541.572500", "143543.062500", "143544.552500", "143546.042500", "143547.532500", "143549.022500", "143550.512500", "143552.002500", "143553.492500", "143554.982500", "143556.472500"],
      "ContentTime": ["143344.319000", "143344.340000", "143344.343000", "143344.346000", "143344.349000", "143344.353000", "143344.355000", "143344.358000", "143344.361000", "143344.364000", "143344.370000", "143344.373000", "143344.375000", "143344.384000", "143344.387000", "143344.390000", "143344.393000", "143344.395000", "143344.406000", "143344.409000", "143404.286000", "143404.289000", "143404.292000", "143404.295000", "143404.297000", "143404.300000", "143404.303000", "143404.306000", "143404.308000", "143404.311000", "143404.314000", "143404.317000", "143404.320000", "143404.323000", "143404.325000", "143404.328000", "143404.331000", "143404.334000", "143404.336000", "143404.339000", "143404.342000", "143424.286000", "143424.289000", "143424.292000", "143424.295000", "143424.297000", "143424.300000", "143424.303000", "143424.306000", "143424.309000", "143424.311000", "143424.314000", "143424.331000", "143424.346000", "143424.349000", "143424.351000", "143424.354000", "143424.357000", "143424.360000", "143424.363000", "143424.372000", "143444.286000", "143444.289000", "143444.292000", "143444.294000", "143444.304000", "143444.307000", "143444.310000", "143444.312000", "143444.315000", "143444.318000", "143444.321000", "143444.324000", "143444.327000", "143444.329000", "143444.332000", "143444.335000", "143444.338000", "143444.341000", "143444.344000", "143444.346000", "143504.286000", "143504.289000", "143504.292000", "143504.295000", "143504.298000", "143504.300000", "143504.303000", "143504.306000", "143504.309000", "143504.311000", "143504.314000", "143504.317000", "143504.320000", "143504.323000", "143504.325000", "143504.328000", "143504.331000", "143504.334000", "143504.336000", "143504.339000", "143504.342000", "143544.286000", "143544.289000", "143544.292000", "143544.295000", "143544.298000", "143544.300000", "143544.303000", "143544.306000", "143544.309000", "143544.312000", "143544.315000", "143544.317000", "143544.320000", "143544.323000", "143544.326000", "143544.328000", "143544.331000", "143544.342000", "143544.344000", "143544.347000", "143544.350000", "143544.353000", "143544.356000", "143544.358000", "143544.361000", "143544.364000", "143544.367000", "143558.235000", "143558.238000", "143558.241000", "143558.243000", "143558.246000", "143558.249000", "143558.252000", "143558.255000", "143558.258000", "143558.260000"],
      "InstanceCreationTime": ["143344.319000", "143344.340000", "143344.343000", "143344.346000", "143344.349000", "143344.353000", "143344.355000", "143344.358000", "143344.361000", "143344.364000", "143344.370000", "143344.373000", "143344.375000", "143344.384000", "143344.387000", "143344.390000", "143344.393000", "143344.395000", "143344.406000", "143344.409000", "143404.286000", "143404.289000", "143404.292000", "143404.295000", "143404.297000", "143404.300000", "143404.303000", "143404.306000", "143404.308000", "143404.311000", "143404.314000", "143404.317000", "143404.320000", "143404.323000", "143404.325000", "143404.328000", "143404.331000", "143404.334000", "143404.336000", "143404.339000", "143404.342000", "143424.286000", "143424.289000", "143424.292000", "143424.295000", "143424.297000", "143424.300000", "143424.303000", "143424.306000", "143424.309000", "143424.311000", "143424.314000", "143424.331000", "143424.346000", "143424.349000", "143424.351000", "143424.354000", "143424.357000", "143424.360000", "143424.363000", "143424.372000", "143444.286000", "143444.289000", "143444.292000", "143444.294000", "143444.304000", "143444.307000", "143444.310000", "143444.312000", "143444.315000", "143444.318000", "143444.321000", "143444.324000", "143444.327000", "143444.329000", "143444.332000", "143444.335000", "143444.338000", "143444.341000", "143444.344000", "143444.346000", "143504.286000", "143504.289000", "143504.292000", "143504.295000", "143504.298000", "143504.300000", "143504.303000", "143504.306000", "143504.309000", "143504.311000", "143504.314000", "143504.317000", "143504.320000", "143504.323000", "143504.325000", "143504.328000", "143504.331000", "143504.334000", "143504.336000", "143504.339000", "143504.342000", "143544.286000", "143544.289000", "143544.292000", "143544.295000", "143544.298000", "143544.300000", "143544.303000", "143544.306000", "143544.309000", "143544.312000", "143544.315000", "143544.317000", "143544.320000", "143544.323000", "143544.326000", "143544.328000", "143544.331000", "143544.342000", "143544.344000", "143544.347000", "143544.350000", "143544.353000", "143544.356000", "143544.358000", "143544.361000", "143544.364000", "143544.367000", "143558.235000", "143558.238000", "143558.241000", "143558.243000", "143558.246000", "143558.249000", "143558.252000", "143558.255000", "143558.258000", "143558.260000"],
      "InstanceNumber": [1, 2, 3, 4, 5, 6, 7, 8, 9, 10, 11, 12, 13, 14, 15, 16, 17, 18, 19, 20, 21, 22, 23, 24, 25, 26, 27, 28, 29, 30, 31, 32, 33, 34, 35, 36, 37, 38, 39, 40, 41, 42, 43, 44, 45, 46, 47, 48, 49, 50, 51, 52, 53, 54, 55, 56, 57, 58, 59, 60, 61, 62, 63, 64, 65, 66, 67, 68, 69, 70, 71, 72, 73, 74, 75, 76, 77, 78, 79, 80, 81, 82, 83, 84, 85, 86, 87, 88, 89, 90, 91, 92, 93, 94, 95, 96, 97, 98, 99, 100, 101, 102, 103, 104, 105, 106, 107, 108, 109, 110, 111, 112, 113, 114, 115, 116, 117, 118, 119, 120, 121, 122, 123, 124, 125, 126, 127, 128, 129, 130, 131, 132, 133, 134, 135, 136, 137, 138, 139],
      "LargestImagePixelValue": [49668, 48774, 47064, 47129, 46560, 45975, 45981, 46743, 46422, 46967, 46628, 46540, 46905, 46552, 46831, 45754, 46331, 45639, 46678, 45619, 46731, 46362, 46839, 45886, 45079, 46799, 45657, 46189, 45604, 46924, 45919, 46657, 45447, 46325, 46569, 45911, 45765, 45918, 46115, 45628, 46694, 45410, 46551, 44917, 46315, 45551, 45721, 45491, 45098, 45542, 46195, 45541, 45937, 46994, 45408, 45653, 44714, 46269, 44614, 46079, 45123, 46445, 45484, 46424, 45964, 46577, 46185, 47030, 46229, 46311, 45566, 45969, 46123, 44813, 44259, 47030, 44799, 46148, 44896, 46362, 45287, 45695, 45197, 45893, 45091, 45752, 44802, 45901, 45392, 45698, 45309, 45588, 45795, 45268, 45707, 45096, 45157, 44667, 45750, 46257, 44845, 44428, 46005, 45463, 46428, 45829, 45858, 46217, 45784, 45601, 45421, 45594, 46114, 45882, 45394, 46164, 44835, 45845, 45103, 46150, 44970, 46034, 44780, 46434, 47019, 45755, 45129, 46718, 44657, 46561, 45843, 46820, 45595, 46159, 46434, 45828, 44916, 46551, 45614],
      "WindowCenter": [11417.0, 11369.0, 11338.0, 11322.0, 11306.0, 11308.0, 11313.0, 11314.0, 11299.0, 11296.0, 11290.0, 11299.0, 11308.0, 11305.0, 11310.0, 11295.0, 11297.0, 11283.0, 11283.0, 11274.0, 11283.0, 11284.0, 11284.0, 11279.0, 11265.0, 11288.0, 11275.0, 11263.0, 11256.0, 11275.0, 11275.0, 11278.0, 11265.0, 11269.0, 11275.0, 11262.0, 11264.0, 11273.0, 11280.0, 11274.0, 11274.0, 11262.0, 11272.0, 11260.0, 11274.0, 11271.0, 11280.0, 11290.0, 11299.0, 11308.0, 11281.0, 11228.0, 11278.0, 11327.0, 11324.0, 11308.0, 11271.0, 11263.0, 11237.0, 11253.0, 11252.0, 11268.0, 11257.0, 11267.0, 11267.0, 11267.0, 11268.0, 11267.0, 11260.0, 11258.0, 11252.0, 11261.0, 11275.0, 11294.0, 11299.0, 11320.0, 11279.0, 11272.0, 11255.0, 11284.0, 11286.0, 11292.0, 11275.0, 11276.0, 11264.0, 11265.0, 11258.0, 11272.0, 11282.0, 11280.0, 11268.0, 11261.0, 11262.0, 11259.0, 11265.0, 11267.0, 11272.0, 11274.0, 11281.0, 11286.0, 11274.0, 11279.0, 11292.0, 11273.0, 11271.0, 11262.0, 11267.0, 11274.0, 11272.0, 11268.0, 11269.0, 11269.0, 11278.0, 11278.0, 11277.0, 11275.0, 11258.0, 11267.0, 11263.0, 11266.0, 11257.0, 11259.0, 11256.0, 11281.0, 11292.0, 11300.0, 11301.0, 11301.0, 11264.0, 11273.0, 11262.0, 11274.0, 11273.0, 11276.0, 11289.0, 11277.0, 11269.0, 11275.0, 11277.0],
      "WindowWidth": [24658.0, 24505.0, 24416.0, 24366.0, 24320.0, 24320.0, 24329.0, 24330.0, 24299.0, 24287.0, 24273.0, 24295.0, 24314.0, 24310.0, 24320.0, 24290.0, 24290.0, 24260.0, 24255.0, 24238.0, 24257.0, 24260.0, 24261.0, 24259.0, 24219.0, 24270.0, 24242.0, 24210.0, 24196.0, 24239.0, 24243.0, 24247.0, 24219.0, 24226.0, 24243.0, 24209.0, 24214.0, 24235.0, 24249.0, 24235.0, 24232.0, 24209.0, 24230.0, 24208.0, 24238.0, 24230.0, 24253.0, 24281.0, 24296.0, 24323.0, 24263.0, 24131.0, 24248.0, 24359.0, 24358.0, 24321.0, 24234.0, 24205.0, 24149.0, 24185.0, 24188.0, 24222.0, 24199.0, 24218.0, 24219.0, 24221.0, 24222.0, 24220.0, 24203.0, 24197.0, 24185.0, 24205.0, 24239.0, 24286.0, 24301.0, 24352.0, 24258.0, 24232.0, 24197.0, 24261.0, 24267.0, 24278.0, 24240.0, 24240.0, 24215.0, 24213.0, 24197.0, 24229.0, 24257.0, 24248.0, 24222.0, 24209.0, 24214.0, 24205.0, 24217.0, 24221.0, 24233.0, 24241.0, 24257.0, 24263.0, 24242.0, 24258.0, 24279.0, 24236.0, 24227.0, 24213.0, 24221.0, 24241.0, 24231.0, 24224.0, 24225.0, 24226.0, 24242.0, 24247.0, 24245.0, 24239.0, 24203.0, 24218.0, 24211.0, 24216.0, 24203.0, 24201.0, 24196.0, 24245.0, 24272.0, 24293.0, 24300.0, 24295.0, 24216.0, 24231.0, 24212.0, 24238.0, 24239.0, 24241.0, 24275.0, 24242.0, 24235.0, 24235.0, 24241.0]
    },
    "slices": {}
  }
}