{
  "AcquisitionMatrixPE": 104,
  "AcquisitionNumber": 1,
  "AcquisitionTime": "15:20:41.772500",
  "BandwidthPerPixelPhaseEncode": 17.17,
  "BaseResolution": 104,
  "BodyPartExamined": "BRAIN",
  "CoilString": "HC1-7;NC1_2",
  "ConsistencyInfo": "N4_VE11C_LATEST_20160120",
  "ConversionSoftware": "dcm2niix",
  "ConversionSoftwareVersion": "v1.0.20190720  (JP2:OpenJPEG) GCC7.3.0",
  "DerivedVendorReportedEchoSpacing": 0.000560011,
  "DeviceSerialNumber": "167006",
  "DwellTime": 2.1e-06,
  "EchoTime": 0.037,
  "EchoTrainLength": 104,
  "EffectiveEchoSpacing": 0.000560011,
  "FlipAngle": 52,
  "ImageComments": "Unaliased_MB4_PE3_LB",
  "ImageOrientationPatientDICOM": [0.999437, -0.0250428, 0.0223272, 0.0328055, 0.868902, -0.493896],
  "ImageType": [
    "ORIGINAL",
    "PRIMARY",
    "M",
    "MB",
    "ND",
    "MOSAIC"
],
  "ImagingFrequency": 123.259,
  "InPlanePhaseEncodingDirectionDICOM": "COL",
  "InstitutionAddress": "Chemin_Queen-Mary_4565_Montreal_District_CA_H3W_1W5",
  "InstitutionName": "IUGM",
  "InstitutionalDepartmentName": "Department",
  "MRAcquisitionType": "2D",
  "MagneticFieldStrength": 3,
  "Manufacturer": "Siemens",
  "ManufacturersModelName": "Prisma_fit",
  "Modality": "MR",
  "MultibandAccelerationFactor": 4,
  "PartialFourier": 1,
  "PatientPosition": "HFS",
  "PercentPhaseFOV": 100,
  "PhaseEncodingDirection": "j",
  "PhaseEncodingSteps": 104,
  "PhaseResolution": 1,
  "PixelBandwidth": 2290,
  "ProcedureStepDescription": "hcptrt_generic",
  "ProtocolName": "func_task-language_run-2",
  "PulseSequenceDetails": "%CustomerSeq%_cmrr_mbep2d_bold",
  "ReceiveCoilActiveElements": "HC1-7;NC1,2",
  "ReceiveCoilName": "HeadNeck_64",
  "ReconMatrixPE": 104,
  "RepetitionTime": 1.49,
  "SAR": 0.0381887,
  "ScanOptions": "FS",
  "ScanningSequence": "EP",
  "SequenceName": "epfid2d1_104",
  "SequenceVariant": "SK_SS",
  "SeriesDescription": "func_task-language_run-2",
  "SeriesNumber": 31,
  "ShimSetting": [619, -7187, -8877, 420, -17, -147, 32, -28],
  "SliceThickness": 2,
  "SliceTiming": [0, 0.7825, 0.0975, 0.88, 0.195, 0.98, 0.2925, 1.0775, 0.39, 1.175, 0.49, 1.2725, 0.5875, 1.37, 0.685, 0, 0.7825, 0.0975, 0.88, 0.195, 0.98, 0.2925, 1.0775, 0.39, 1.175, 0.49, 1.2725, 0.5875, 1.37, 0.685, 0, 0.7825, 0.0975, 0.88, 0.195, 0.98, 0.2925, 1.0775, 0.39, 1.175, 0.49, 1.2725, 0.5875, 1.37, 0.685, 0, 0.7825, 0.0975, 0.88, 0.195, 0.98, 0.2925, 1.0775, 0.39, 1.175, 0.49, 1.2725, 0.5875, 1.37, 0.685],
  "SoftwareVersions": "syngo_MR_E11",
  "SpacingBetweenSlices": 2,
  "StationName": "MRC35049",
  "TaskName": "language",
  "TotalReadoutTime": 0.0576811,
  "TxRefAmp": 252.88,
  "WipMemBlock": "64537538-a3a5-4380-bd02-d11bf298cfdc||Sequence: R016 ve11c/master r/e634e98; Dec 19 2017 11:00:25 by eja",
  "dcmmeta_affine": [
    [-1.9988740682601929, 0.06561094522476196, 0.014063178561627865, 99.08309936523438],
    [0.05008554458618164, 1.7378039360046387, -0.9887005686759949, -63.163970947265625],
    [0.04465431347489357, 0.9877917766571045, 1.7384687662124634, -102.57095336914062],
    [0.0, 0.0, 0.0, 1.0]
],
  "dcmmeta_reorient_transform": [
    [0.0, -1.0, 0.0, 103.0],
    [1.0, 0.0, 0.0, 0.0],
    [0.0, 0.0, 1.0, 0.0],
    [0.0, 0.0, 0.0, 1.0]
],
  "dcmmeta_shape": [104, 104, 60, 159],
  "dcmmeta_slice_dim": 2,
  "dcmmeta_version": 0.6,
  "global": {
    "const": {
      "AcquisitionMatrix": [104, 0, 0, 104],
      "AngioFlag": "N",
      "BitsAllocated": 16,
      "BitsStored": 16,
      "BodyPartExamined": "BRAIN",
      "Columns": 832,
      "EchoNumbers": 1,
      "EchoTime": 37.0,
      "EchoTrainLength": 104,
      "FlipAngle": 52.0,
      "HighBit": 15,
      "ImageOrientationPatient": [0.99943702035051, -0.025042771708, 0.02232715696342, 0.0328054737544, 0.86890198270667, -0.4938958851217],
      "ImagePositionPatient": [-857.31356618385, -730.15934308882, 342.47363412873],
      "ImageType": [
        "ORIGINAL",
        "PRIMARY",
        "M",
        "MB",
        "ND",
        "MOSAIC"
],
      "ImagedNucleus": "1H",
      "ImagingFrequency": 123.259476,
      "InPlanePhaseEncodingDirection": "COL",
      "MRAcquisitionType": "2D",
      "MagneticFieldStrength": 3.0,
      "Manufacturer": "SIEMENS",
      "ManufacturerModelName": "Prisma_fit",
      "Modality": "MR",
      "NumberOfAverages": 1.0,
      "NumberOfPhaseEncodingSteps": 104,
      "PercentPhaseFieldOfView": 100.0,
      "PercentSampling": 100.0,
      "PerformedProcedureStepStartTime": "142328.475000",
      "PhotometricInterpretation": "MONOCHROME2",
      "PixelBandwidth": 2290.0,
      "PixelRepresentation": 0,
      "PixelSpacing": [2.0, 2.0],
      "ProtocolName": "func_task-language_run-2",
      "RepetitionTime": 1490.0,
      "Rows": 832,
      "SAR": 0.03818874642748,
      "SamplesPerPixel": 1,
      "ScanOptions": "FS",
      "ScanningSequence": "EP",
      "SequenceName": "epfid2d1_104",
      "SequenceVariant": [
        "SK",
        "SS"
],
      "SeriesDescription": "func_task-language_run-2",
      "SeriesNumber": 31,
      "SeriesTime": "152145.244000",
      "SliceLocation": -57.236356219072,
      "SliceThickness": 2.0,
      "SmallestImagePixelValue": 0,
      "SoftwareVersions": "syngo MR E11",
      "SpacingBetweenSlices": 2.0000000348812,
      "SpecificCharacterSet": "ISO_IR 100",
      "StudyID": "1",
      "StudyTime": "142328.392000",
      "TransmitCoilName": "Body",
      "VariableFlipAngleFlag": "N",
      "WindowCenterWidthExplanation": "Algo1",
      "dBdt": 0.0},
    "slices": {}
  },
  "time": {
    "samples": {
      "AcquisitionNumber": [1, 2, 3, 4, 5, 6, 7, 8, 9, 10, 11, 12, 13, 14, 15, 16, 17, 18, 19, 20, 21, 22, 23, 24, 25, 26, 27, 28, 29, 30, 31, 32, 33, 34, 35, 36, 37, 38, 39, 40, 41, 42, 43, 44, 45, 46, 47, 48, 49, 50, 51, 52, 53, 54, 55, 56, 57, 58, 59, 60, 61, 62, 63, 64, 65, 66, 67, 68, 69, 70, 71, 72, 73, 74, 75, 76, 77, 78, 79, 80, 81, 82, 83, 84, 85, 86, 87, 88, 89, 90, 91, 92, 93, 94, 95, 96, 97, 98, 99, 100, 101, 102, 103, 104, 105, 106, 107, 108, 109, 110, 111, 112, 113, 114, 115, 116, 117, 118, 119, 120, 121, 122, 123, 124, 125, 126, 127, 128, 129, 130, 131, 132, 133, 134, 135, 136, 137, 138, 139, 140, 141, 142, 143, 144, 145, 146, 147, 148, 149, 150, 151, 152, 153, 154, 155, 156, 157, 158, 159],
      "AcquisitionTime": ["152041.772500", "152043.262500", "152044.752500", "152046.242500", "152047.732500", "152049.222500", "152050.712500", "152052.202500", "152053.692500", "152055.182500", "152056.672500", "152058.162500", "152059.652500", "152101.142500", "152102.632500", "152104.122500", "152105.612500", "152107.102500", "152108.592500", "152110.082500", "152111.572500", "152113.062500", "152114.552500", "152116.042500", "152117.532500", "152119.022500", "152120.512500", "152122.002500", "152123.492500", "152124.982500", "152126.472500", "152127.962500", "152129.452500", "152130.942500", "152132.432500", "152133.922500", "152135.412500", "152136.902500", "152138.392500", "152139.882500", "152141.372500", "152142.862500", "152144.352500", "152145.842500", "152147.332500", "152148.822500", "152150.312500", "152151.802500", "152153.292500", "152154.782500", "152156.272500", "152157.762500", "152159.252500", "152200.742500", "152202.232500", "152203.722500", "152205.212500", "152206.702500", "152208.192500", "152209.682500", "152211.172500", "152212.662500", "152214.152500", "152215.642500", "152217.132500", "152218.622500", "152220.112500", "152221.602500", "152223.092500", "152224.582500", "152226.072500", "152227.562500", "152229.052500", "152230.542500", "152232.032500", "152233.522500", "152235.012500", "152236.502500", "152237.992500", "152239.482500", "152240.972500", "152242.462500", "152243.952500", "152245.442500", "152246.932500", "152248.422500", "152249.912500", "152251.402500", "152252.892500", "152254.382500", "152255.872500", "152257.362500", "152258.852500", "152300.342500", "152301.832500", "152303.322500", "152304.812500", "152306.302500", "152307.792500", "152309.282500", "152310.772500", "152312.262500", "152313.752500", "152315.242500", "152316.732500", "152318.222500", "152319.712500", "152321.202500", "152322.692500", "152324.182500", "152325.672500", "152327.162500", "152328.652500", "152330.142500", "152331.632500", "152333.122500", "152334.612500", "152336.102500", "152337.592500", "152339.082500", "152340.572500", "152342.062500", "152343.552500", "152345.042500", "152346.532500", "152348.022500", "152349.512500", "152351.002500", "152352.492500", "152353.982500", "152355.472500", "152356.962500", "152358.452500", "152359.942500", "152401.432500", "152402.922500", "152404.412500", "152405.902500", "152407.392500", "152408.882500", "152410.372500", "152411.862500", "152413.352500", "152414.842500", "152416.332500", "152417.822500", "152419.312500", "152420.802500", "152422.292500", "152423.782500", "152425.272500", "152426.762500", "152428.252500", "152429.742500", "152431.232500", "152432.722500", "152434.212500", "152435.702500", "152437.192500"],
      "ContentTime": ["152145.247000", "152145.250000", "152145.253000", "152145.264000", "152145.267000", "152145.270000", "152145.273000", "152145.276000", "152205.215000", "152205.219000", "152205.222000", "152205.225000", "152205.228000", "152205.237000", "152205.240000", "152205.243000", "152205.245000", "152205.248000", "152205.251000", "152205.254000", "152205.257000", "152205.259000", "152205.268000", "152205.271000", "152205.274000", "152205.277000", "152205.279000", "152205.282000", "152225.216000", "152225.219000", "152225.221000", "152225.224000", "152225.227000", "152225.230000", "152225.233000", "152225.236000", "152225.239000", "152225.241000", "152225.244000", "152225.247000", "152225.250000", "152225.253000", "152225.256000", "152225.259000", "152225.262000", "152225.265000", "152225.268000", "152225.270000", "152245.215000", "152245.218000", "152245.221000", "152245.224000", "152245.226000", "152245.229000", "152245.232000", "152245.235000", "152245.238000", "152245.241000", "152245.244000", "152245.247000", "152245.249000", "152245.252000", "152245.255000", "152245.258000", "152245.261000", "152245.264000", "152245.268000", "152245.271000", "152305.216000", "152305.220000", "152305.223000", "152305.226000", "152305.229000", "152305.232000", "152305.235000", "152305.237000", "152305.240000", "152305.252000", "152305.255000", "152305.258000", "152305.261000", "152305.264000", "152305.267000", "152305.269000", "152305.272000", "152305.275000", "152305.278000", "152305.281000", "152325.215000", "152325.218000", "152325.221000", "152325.223000", "152325.226000", "152325.229000", "152325.232000", "152325.235000", "152325.238000", "152325.240000", "152325.243000", "152325.246000", "152325.249000", "152325.252000", "152325.255000", "152325.258000", "152325.261000", "152325.263000", "152325.266000", "152325.269000", "152325.272000", "152405.215000", "152405.225000", "152405.228000", "152405.231000", "152405.233000", "152405.237000", "152405.239000", "152405.242000", "152405.245000", "152405.248000", "152405.251000", "152405.254000", "152405.256000", "152405.260000", "152405.262000", "152405.265000", "152405.268000", "152405.271000", "152405.274000", "152405.277000", "152405.280000", "152405.282000", "152405.285000", "152405.288000", "152405.291000", "152405.294000", "152405.297000", "152439.479000", "152439.482000", "152439.485000", "152439.488000", "152439.499000", "152439.502000", "152439.504000", "152439.507000", "152439.510000", "152439.513000", "152439.516000", "152439.519000", "152439.522000", "152439.525000", "152439.528000", "152439.531000", "152439.534000", "152439.537000", "152439.540000", "152439.543000", "152439.546000", "152439.549000", "152439.552000"],
      "InstanceCreationTime": ["152145.247000", "152145.250000", "152145.253000", "152145.264000", "152145.267000", "152145.270000", "152145.273000", "152145.276000", "152205.215000", "152205.219000", "152205.222000", "152205.225000", "152205.228000", "152205.237000", "152205.240000", "152205.243000", "152205.245000", "152205.248000", "152205.251000", "152205.254000", "152205.257000", "152205.259000", "152205.268000", "152205.271000", "152205.274000", "152205.277000", "152205.279000", "152205.282000", "152225.216000", "152225.219000", "152225.221000", "152225.224000", "152225.227000", "152225.230000", "152225.233000", "152225.236000", "152225.239000", "152225.241000", "152225.244000", "152225.247000", "152225.250000", "152225.253000", "152225.256000", "152225.259000", "152225.262000", "152225.265000", "152225.268000", "152225.270000", "152245.215000", "152245.218000", "152245.221000", "152245.224000", "152245.226000", "152245.229000", "152245.232000", "152245.235000", "152245.238000", "152245.241000", "152245.244000", "152245.247000", "152245.249000", "152245.252000", "152245.255000", "152245.258000", "152245.261000", "152245.264000", "152245.268000", "152245.271000", "152305.216000", "152305.220000", "152305.223000", "152305.226000", "152305.229000", "152305.232000", "152305.235000", "152305.237000", "152305.240000", "152305.252000", "152305.255000", "152305.258000", "152305.261000", "152305.264000", "152305.267000", "152305.269000", "152305.272000", "152305.275000", "152305.278000", "152305.281000", "152325.215000", "152325.218000", "152325.221000", "152325.223000", "152325.226000", "152325.229000", "152325.232000", "152325.235000", "152325.238000", "152325.240000", "152325.243000", "152325.246000", "152325.249000", "152325.252000", "152325.255000", "152325.258000", "152325.261000", "152325.263000", "152325.266000", "152325.269000", "152325.272000", "152405.215000", "152405.225000", "152405.228000", "152405.231000", "152405.233000", "152405.237000", "152405.239000", "152405.242000", "152405.245000", "152405.248000", "152405.251000", "152405.254000", "152405.256000", "152405.260000", "152405.262000", "152405.265000", "152405.268000", "152405.271000", "152405.274000", "152405.277000", "152405.280000", "152405.282000", "152405.285000", "152405.288000", "152405.291000", "152405.294000", "152405.297000", "152439.479000", "152439.482000", "152439.485000", "152439.488000", "152439.499000", "152439.502000", "152439.504000", "152439.507000", "152439.510000", "152439.513000", "152439.516000", "152439.519000", "152439.522000", "152439.525000", "152439.528000", "152439.531000", "152439.534000", "152439.537000", "152439.540000", "152439.543000", "152439.546000", "152439.549000", "152439.552000"],
      "InstanceNumber": [1, 2, 3, 4, 5, 6, 7, 8, 9, 10, 11, 12, 13, 14, 15, 16, 17, 18, 19, 20, 21, 22, 23, 24, 25, 26, 27, 28, 29, 30, 31, 32, 33, 34, 35, 36, 37, 38, 39, 40, 41, 42, 43, 44, 45, 46, 47, 48, 49, 50, 51, 52, 53, 54, 55, 56, 57, 58, 59, 60, 61, 62, 63, 64, 65, 66, 67, 68, 69, 70, 71, 72, 73, 74, 75, 76, 77, 78, 79, 80, 81, 82, 83, 84, 85, 86, 87, 88, 89, 90, 91, 92, 93, 94, 95, 96, 97, 98, 99, 100, 101, 102, 103, 104, 105, 106, 107, 108, 109, 110, 111, 112, 113, 114, 115, 116, 117, 118, 119, 120, 121, 122, 123, 124, 125, 126, 127, 128, 129, 130, 131, 132, 133, 134, 135, 136, 137, 138, 139, 140, 141, 142, 143, 144, 145, 146, 147, 148, 149, 150, 151, 152, 153, 154, 155, 156, 157, 158, 159],
      "LargestImagePixelValue": [47015, 45560, 45017, 44234, 44655, 46547, 44316, 43698, 43817, 43683, 43380, 43577, 43494, 43661, 44079, 43628, 43745, 43527, 43530, 43517, 43781, 43753, 44282, 43504, 44091, 43821, 43676, 44137, 43648, 43909, 43840, 43700, 43702, 43955, 43663, 43544, 43579, 44208, 44342, 43964, 43943, 43698, 44516, 44179, 44522, 44264, 44508, 44432, 44071, 44033, 44003, 43960, 43819, 44427, 44557, 44024, 44145, 43723, 44108, 43723, 44505, 44079, 44458, 44245, 44364, 44117, 44287, 44475, 45258, 44399, 44323, 44792, 44327, 44629, 44918, 44347, 44549, 44050, 44969, 44275, 44331, 44003, 44552, 44093, 44980, 44427, 46877, 44913, 45164, 45384, 45379, 45686, 45292, 45397, 44999, 44372, 43946, 44032, 43895, 43807, 44098, 46309, 43926, 43960, 44326, 44374, 44298, 44231, 44325, 44112, 44175, 44391, 44090, 46697, 44212, 45226, 44210, 44582, 45608, 44690, 44148, 44640, 44587, 44194, 44377, 44184, 44381, 43766, 44791, 45277, 45126, 44922, 44615, 44237, 44252, 45280, 43410, 43731, 45876, 46746, 46875, 45301, 45007, 45504, 45263, 44908, 44396, 43838, 44111, 43489, 46680, 44252, 45199, 50873, 51657, 44758, 45109, 44684, 45471],
      "WindowCenter": [11246.0, 11184.0, 11150.0, 11142.0, 11155.0, 11160.0, 11122.0, 11105.0, 11101.0, 11100.0, 11097.0, 11107.0, 11117.0, 11128.0, 11135.0, 11120.0, 11120.0, 11114.0, 11123.0, 11127.0, 11125.0, 11113.0, 11108.0, 11089.0, 11091.0, 11092.0, 11093.0, 11100.0, 11092.0, 11083.0, 11091.0, 11089.0, 11092.0, 11088.0, 11086.0, 11084.0, 11093.0, 11107.0, 11122.0, 11110.0, 11095.0, 11091.0, 11104.0, 11096.0, 11095.0, 11099.0, 11106.0, 11114.0, 11108.0, 11097.0, 11104.0, 11093.0, 11092.0, 11095.0, 11107.0, 11105.0, 11108.0, 11094.0, 11101.0, 11090.0, 11094.0, 11101.0, 11106.0, 11102.0, 11105.0, 11109.0, 11110.0, 11121.0, 11131.0, 11117.0, 11101.0, 11105.0, 11113.0, 11108.0, 11115.0, 11106.0, 11107.0, 11104.0, 11125.0, 11114.0, 11121.0, 11101.0, 11105.0, 11103.0, 11115.0, 11113.0, 11145.0, 11113.0, 11109.0, 11108.0, 11114.0, 11120.0, 11107.0, 11099.0, 11094.0, 11100.0, 11110.0, 11112.0, 11105.0, 11101.0, 11110.0, 11136.0, 11115.0, 11112.0, 11108.0, 11109.0, 11108.0, 11111.0, 11125.0, 11129.0, 11123.0, 11120.0, 11108.0, 11139.0, 11115.0, 11122.0, 11125.0, 11131.0, 11137.0, 11118.0, 11102.0, 11115.0, 11127.0, 11137.0, 11143.0, 11131.0, 11122.0, 11116.0, 11134.0, 11158.0, 11141.0, 11097.0, 11074.0, 11058.0, 11092.0, 11119.0, 11091.0, 11088.0, 11117.0, 11119.0, 11148.0, 11151.0, 11153.0, 11145.0, 11125.0, 11124.0, 11132.0, 11144.0, 11153.0, 11151.0, 11193.0, 11163.0, 11182.0, 11220.0, 11231.0, 11198.0, 11173.0, 11107.0, 11065.0],
      "WindowWidth": [24207.0, 24027.0, 23930.0, 23896.0, 23919.0, 23923.0, 23836.0, 23793.0, 23784.0, 23780.0, 23783.0, 23800.0, 23825.0, 23851.0, 23867.0, 23832.0, 23832.0, 23821.0, 23843.0, 23859.0, 23852.0, 23819.0, 23802.0, 23764.0, 23765.0, 23771.0, 23774.0, 23786.0, 23783.0, 23745.0, 23771.0, 23762.0, 23769.0, 23759.0, 23762.0, 23757.0, 23770.0, 23796.0, 23829.0, 23802.0, 23772.0, 23759.0, 23791.0, 23772.0, 23770.0, 23788.0, 23796.0, 23815.0, 23804.0, 23777.0, 23793.0, 23770.0, 23768.0, 23771.0, 23809.0, 23810.0, 23803.0, 23767.0, 23776.0, 23761.0, 23764.0, 23781.0, 23800.0, 23782.0, 23794.0, 23807.0, 23803.0, 23833.0, 23854.0, 23816.0, 23781.0, 23786.0, 23806.0, 23794.0, 23819.0, 23798.0, 23807.0, 23796.0, 23845.0, 23821.0, 23842.0, 23781.0, 23792.0, 23798.0, 23810.0, 23808.0, 23886.0, 23811.0, 23794.0, 23791.0, 23799.0, 23817.0, 23788.0, 23772.0, 23771.0, 23780.0, 23802.0, 23804.0, 23790.0, 23777.0, 23801.0, 23866.0, 23818.0, 23806.0, 23797.0, 23802.0, 23802.0, 23806.0, 23842.0, 23846.0, 23834.0, 23822.0, 23800.0, 23871.0, 23823.0, 23835.0, 23851.0, 23856.0, 23862.0, 23818.0, 23784.0, 23818.0, 23839.0, 23859.0, 23882.0, 23848.0, 23825.0, 23820.0, 23870.0, 23916.0, 23872.0, 23772.0, 23724.0, 23680.0, 23754.0, 23821.0, 23751.0, 23743.0, 23818.0, 23814.0, 23877.0, 23890.0, 23892.0, 23869.0, 23826.0, 23827.0, 23840.0, 23882.0, 23896.0, 23897.0, 23995.0, 23925.0, 23982.0, 24056.0, 24084.0, 24027.0, 23969.0, 23819.0, 23714.0]
    },
    "slices": {}
  }
}