{
  "AcquisitionMatrixPE": 104,
  "AcquisitionNumber": 1,
  "AcquisitionTime": "15:16:18.395000",
  "BandwidthPerPixelPhaseEncode": 17.17,
  "BaseResolution": 104,
  "BodyPartExamined": "BRAIN",
  "CoilString": "HC1-7;NC1_2",
  "ConsistencyInfo": "N4_VE11C_LATEST_20160120",
  "ConversionSoftware": "dcm2niix",
  "ConversionSoftwareVersion": "v1.0.20190720  (JP2:OpenJPEG) GCC7.3.0",
  "DerivedVendorReportedEchoSpacing": 0.000560011,
  "DeviceSerialNumber": "167006",
  "DwellTime": 2.1e-06,
  "EchoTime": 0.037,
  "EchoTrainLength": 104,
  "EffectiveEchoSpacing": 0.000560011,
  "FlipAngle": 52,
  "ImageComments": "Unaliased_MB4_PE3_LB",
  "ImageOrientationPatientDICOM": [0.999437, -0.0250428, 0.0223272, 0.0328055, 0.868902, -0.493896],
  "ImageType": [
    "ORIGINAL",
    "PRIMARY",
    "M",
    "MB",
    "ND",
    "MOSAIC"
],
  "ImagingFrequency": 123.259,
  "InPlanePhaseEncodingDirectionDICOM": "COL",
  "InstitutionAddress": "Chemin_Queen-Mary_4565_Montreal_District_CA_H3W_1W5",
  "InstitutionName": "IUGM",
  "InstitutionalDepartmentName": "Department",
  "MRAcquisitionType": "2D",
  "MagneticFieldStrength": 3,
  "Manufacturer": "Siemens",
  "ManufacturersModelName": "Prisma_fit",
  "Modality": "MR",
  "MultibandAccelerationFactor": 4,
  "PartialFourier": 1,
  "PatientPosition": "HFS",
  "PercentPhaseFOV": 100,
  "PhaseEncodingDirection": "j",
  "PhaseEncodingSteps": 104,
  "PhaseResolution": 1,
  "PixelBandwidth": 2290,
  "ProcedureStepDescription": "hcptrt_generic",
  "ProtocolName": "func_task-social_run-2",
  "PulseSequenceDetails": "%CustomerSeq%_cmrr_mbep2d_bold",
  "ReceiveCoilActiveElements": "HC1-7;NC1,2",
  "ReceiveCoilName": "HeadNeck_64",
  "ReconMatrixPE": 104,
  "RepetitionTime": 1.49,
  "SAR": 0.0381241,
  "ScanOptions": "FS",
  "ScanningSequence": "EP",
  "SequenceName": "epfid2d1_104",
  "SequenceVariant": "SK_SS",
  "SeriesDescription": "func_task-social_run-2",
  "SeriesNumber": 29,
  "ShimSetting": [619, -7187, -8877, 420, -17, -147, 32, -28],
  "SliceThickness": 2,
  "SliceTiming": [0, 0.785, 0.1, 0.8825, 0.1975, 0.98, 0.295, 1.08, 0.3925, 1.1775, 0.49, 1.275, 0.59, 1.3725, 0.6875, 0, 0.785, 0.1, 0.8825, 0.1975, 0.98, 0.295, 1.08, 0.3925, 1.1775, 0.49, 1.275, 0.59, 1.3725, 0.6875, 0, 0.785, 0.1, 0.8825, 0.1975, 0.98, 0.295, 1.08, 0.3925, 1.1775, 0.49, 1.275, 0.59, 1.3725, 0.6875, 0, 0.785, 0.1, 0.8825, 0.1975, 0.98, 0.295, 1.08, 0.3925, 1.1775, 0.49, 1.275, 0.59, 1.3725, 0.6875],
  "SoftwareVersions": "syngo_MR_E11",
  "SpacingBetweenSlices": 2,
  "StationName": "MRC35049",
  "TaskName": "social",
  "TotalReadoutTime": 0.0576811,
  "TxRefAmp": 252.88,
  "WipMemBlock": "7b8aaec4-a95f-41ea-93ce-dbc43280401c||Sequence: R016 ve11c/master r/e634e98; Dec 19 2017 11:00:25 by eja",
  "dcmmeta_affine": [
    [-1.9988740682601929, 0.06561094522476196, 0.014063178561627865, 99.08309936523438],
    [0.05008554458618164, 1.7378039360046387, -0.9887005686759949, -63.163970947265625],
    [0.04465431347489357, 0.9877917766571045, 1.7384687662124634, -102.57095336914062],
    [0.0, 0.0, 0.0, 1.0]
],
  "dcmmeta_reorient_transform": [
    [0.0, -1.0, 0.0, 103.0],
    [1.0, 0.0, 0.0, 0.0],
    [0.0, 0.0, 1.0, 0.0],
    [0.0, 0.0, 0.0, 1.0]
],
  "dcmmeta_shape": [104, 104, 60, 139],
  "dcmmeta_slice_dim": 2,
  "dcmmeta_version": 0.6,
  "global": {
    "const": {
      "AcquisitionMatrix": [104, 0, 0, 104],
      "AngioFlag": "N",
      "BitsAllocated": 16,
      "BitsStored": 16,
      "BodyPartExamined": "BRAIN",
      "Columns": 832,
      "EchoNumbers": 1,
      "EchoTime": 37.0,
      "EchoTrainLength": 104,
      "FlipAngle": 52.0,
      "HighBit": 15,
      "ImageOrientationPatient": [0.99943702035051, -0.025042771708, 0.02232715696342, 0.0328054737544, 0.86890198270667, -0.4938958851217],
      "ImagePositionPatient": [-857.31356618385, -730.15934308882, 342.47363412873],
      "ImageType": [
        "ORIGINAL",
        "PRIMARY",
        "M",
        "MB",
        "ND",
        "MOSAIC"
],
      "ImagedNucleus": "1H",
      "ImagingFrequency": 123.259474,
      "InPlanePhaseEncodingDirection": "COL",
      "MRAcquisitionType": "2D",
      "MagneticFieldStrength": 3.0,
      "Manufacturer": "SIEMENS",
      "ManufacturerModelName": "Prisma_fit",
      "Modality": "MR",
      "NumberOfAverages": 1.0,
      "NumberOfPhaseEncodingSteps": 104,
      "PercentPhaseFieldOfView": 100.0,
      "PercentSampling": 100.0,
      "PerformedProcedureStepStartTime": "142328.475000",
      "PhotometricInterpretation": "MONOCHROME2",
      "PixelBandwidth": 2290.0,
      "PixelRepresentation": 0,
      "PixelSpacing": [2.0, 2.0],
      "ProtocolName": "func_task-social_run-2",
      "RepetitionTime": 1490.0,
      "Rows": 832,
      "SAR": 0.03812410488931,
      "SamplesPerPixel": 1,
      "ScanOptions": "FS",
      "ScanningSequence": "EP",
      "SequenceName": "epfid2d1_104",
      "SequenceVariant": [
        "SK",
        "SS"
],
      "SeriesDescription": "func_task-social_run-2",
      "SeriesNumber": 29,
      "SeriesTime": "151733.401000",
      "SliceLocation": -57.236356219072,
      "SliceThickness": 2.0,
      "SmallestImagePixelValue": 0,
      "SoftwareVersions": "syngo MR E11",
      "SpacingBetweenSlices": 2.0000000348812,
      "SpecificCharacterSet": "ISO_IR 100",
      "StudyID": "1",
      "StudyTime": "142328.392000",
      "TransmitCoilName": "Body",
      "VariableFlipAngleFlag": "N",
      "WindowCenterWidthExplanation": "Algo1",
      "dBdt": 0.0},
    "slices": {}
  },
  "time": {
    "samples": {
      "AcquisitionNumber": [1, 2, 3, 4, 5, 6, 7, 8, 9, 10, 11, 12, 13, 14, 15, 16, 17, 18, 19, 20, 21, 22, 23, 24, 25, 26, 27, 28, 29, 30, 31, 32, 33, 34, 35, 36, 37, 38, 39, 40, 41, 42, 43, 44, 45, 46, 47, 48, 49, 50, 51, 52, 53, 54, 55, 56, 57, 58, 59, 60, 61, 62, 63, 64, 65, 66, 67, 68, 69, 70, 71, 72, 73, 74, 75, 76, 77, 78, 79, 80, 81, 82, 83, 84, 85, 86, 87, 88, 89, 90, 91, 92, 93, 94, 95, 96, 97, 98, 99, 100, 101, 102, 103, 104, 105, 106, 107, 108, 109, 110, 111, 112, 113, 114, 115, 116, 117, 118, 119, 120, 121, 122, 123, 124, 125, 126, 127, 128, 129, 130, 131, 132, 133, 134, 135, 136, 137, 138, 139],
      "AcquisitionTime": ["151618.395000", "151619.885000", "151621.375000", "151622.865000", "151624.355000", "151625.845000", "151627.335000", "151628.825000", "151630.315000", "151631.805000", "151633.295000", "151634.785000", "151636.275000", "151637.765000", "151639.255000", "151640.745000", "151642.235000", "151643.725000", "151645.215000", "151646.705000", "151648.195000", "151649.685000", "151651.175000", "151652.665000", "151654.155000", "151655.645000", "151657.135000", "151658.625000", "151700.115000", "151701.605000", "151703.095000", "151704.585000", "151706.075000", "151707.565000", "151709.055000", "151710.545000", "151712.035000", "151713.525000", "151715.015000", "151716.505000", "151717.995000", "151719.485000", "151720.975000", "151722.465000", "151723.955000", "151725.445000", "151726.935000", "151728.425000", "151729.915000", "151731.405000", "151732.895000", "151734.385000", "151735.875000", "151737.365000", "151738.855000", "151740.345000", "151741.835000", "151743.325000", "151744.815000", "151746.305000", "151747.795000", "151749.285000", "151750.775000", "151752.265000", "151753.755000", "151755.245000", "151756.735000", "151758.225000", "151759.715000", "151801.205000", "151802.695000", "151804.185000", "151805.675000", "151807.165000", "151808.655000", "151810.145000", "151811.635000", "151813.125000", "151814.615000", "151816.105000", "151817.595000", "151819.085000", "151820.575000", "151822.065000", "151823.555000", "151825.045000", "151826.535000", "151828.025000", "151829.515000", "151831.005000", "151832.495000", "151833.985000", "151835.475000", "151836.965000", "151838.455000", "151839.945000", "151841.435000", "151842.925000", "151844.415000", "151845.905000", "151847.395000", "151848.885000", "151850.375000", "151851.865000", "151853.355000", "151854.845000", "151856.335000", "151857.825000", "151859.315000", "151900.805000", "151902.295000", "151903.785000", "151905.275000", "151906.765000", "151908.255000", "151909.745000", "151911.235000", "151912.725000", "151914.215000", "151915.705000", "151917.195000", "151918.685000", "151920.175000", "151921.665000", "151923.155000", "151924.645000", "151926.135000", "151927.625000", "151929.115000", "151930.605000", "151932.095000", "151933.585000", "151935.075000", "151936.565000", "151938.055000", "151939.545000", "151941.035000", "151942.525000", "151944.015000"],
      "ContentTime": ["151733.404000", "151733.407000", "151733.410000", "151733.419000", "151733.422000", "151733.425000", "151733.428000", "151733.431000", "151733.433000", "151733.436000", "151733.439000", "151733.442000", "151733.445000", "151733.449000", "151733.452000", "151733.455000", "151733.458000", "151733.460000", "151733.463000", "151733.466000", "151753.373000", "151753.376000", "151753.379000", "151753.381000", "151753.384000", "151753.387000", "151753.390000", "151753.393000", "151753.396000", "151753.399000", "151753.402000", "151753.404000", "151753.407000", "151753.410000", "151753.413000", "151753.416000", "151753.418000", "151753.421000", "151753.424000", "151753.427000", "151813.373000", "151813.376000", "151813.379000", "151813.381000", "151813.390000", "151813.392000", "151813.395000", "151813.398000", "151813.401000", "151813.404000", "151813.406000", "151813.409000", "151813.412000", "151813.415000", "151813.418000", "151813.420000", "151813.423000", "151813.426000", "151813.429000", "151813.432000", "151813.434000", "151833.373000", "151833.376000", "151833.379000", "151833.382000", "151833.385000", "151833.388000", "151833.391000", "151833.393000", "151833.396000", "151833.399000", "151833.402000", "151833.404000", "151833.407000", "151833.410000", "151833.413000", "151833.416000", "151833.418000", "151833.421000", "151833.424000", "151833.427000", "151853.373000", "151853.376000", "151853.379000", "151853.382000", "151853.384000", "151853.387000", "151853.390000", "151853.393000", "151853.396000", "151853.411000", "151853.414000", "151853.416000", "151853.419000", "151853.422000", "151853.425000", "151853.428000", "151853.430000", "151853.433000", "151853.436000", "151853.439000", "151933.374000", "151933.377000", "151933.380000", "151933.383000", "151933.386000", "151933.388000", "151933.391000", "151933.394000", "151933.397000", "151933.400000", "151933.403000", "151933.406000", "151933.409000", "151933.412000", "151933.414000", "151933.417000", "151933.420000", "151933.423000", "151933.426000", "151933.429000", "151933.431000", "151933.434000", "151933.437000", "151933.445000", "151933.448000", "151933.451000", "151933.453000", "151933.456000", "151933.459000", "151945.808000", "151945.812000", "151945.815000", "151945.817000", "151945.820000", "151945.823000", "151945.826000", "151945.829000", "151945.832000"],
      "InstanceCreationTime": ["151733.404000", "151733.407000", "151733.410000", "151733.419000", "151733.422000", "151733.425000", "151733.428000", "151733.431000", "151733.433000", "151733.436000", "151733.439000", "151733.442000", "151733.445000", "151733.449000", "151733.452000", "151733.455000", "151733.458000", "151733.460000", "151733.463000", "151733.466000", "151753.373000", "151753.376000", "151753.379000", "151753.381000", "151753.384000", "151753.387000", "151753.390000", "151753.393000", "151753.396000", "151753.399000", "151753.402000", "151753.404000", "151753.407000", "151753.410000", "151753.413000", "151753.416000", "151753.418000", "151753.421000", "151753.424000", "151753.427000", "151813.373000", "151813.376000", "151813.379000", "151813.381000", "151813.390000", "151813.392000", "151813.395000", "151813.398000", "151813.401000", "151813.404000", "151813.406000", "151813.409000", "151813.412000", "151813.415000", "151813.418000", "151813.420000", "151813.423000", "151813.426000", "151813.429000", "151813.432000", "151813.434000", "151833.373000", "151833.376000", "151833.379000", "151833.382000", "151833.385000", "151833.388000", "151833.391000", "151833.393000", "151833.396000", "151833.399000", "151833.402000", "151833.404000", "151833.407000", "151833.410000", "151833.413000", "151833.416000", "151833.418000", "151833.421000", "151833.424000", "151833.427000", "151853.373000", "151853.376000", "151853.379000", "151853.382000", "151853.384000", "151853.387000", "151853.390000", "151853.393000", "151853.396000", "151853.411000", "151853.414000", "151853.416000", "151853.419000", "151853.422000", "151853.425000", "151853.428000", "151853.430000", "151853.433000", "151853.436000", "151853.439000", "151933.374000", "151933.377000", "151933.380000", "151933.383000", "151933.386000", "151933.388000", "151933.391000", "151933.394000", "151933.397000", "151933.400000", "151933.403000", "151933.406000", "151933.409000", "151933.412000", "151933.414000", "151933.417000", "151933.420000", "151933.423000", "151933.426000", "151933.429000", "151933.431000", "151933.434000", "151933.437000", "151933.445000", "151933.448000", "151933.451000", "151933.453000", "151933.456000", "151933.459000", "151945.808000", "151945.812000", "151945.815000", "151945.817000", "151945.820000", "151945.823000", "151945.826000", "151945.829000", "151945.832000"],
      "InstanceNumber": [1, 2, 3, 4, 5, 6, 7, 8, 9, 10, 11, 12, 13, 14, 15, 16, 17, 18, 19, 20, 21, 22, 23, 24, 25, 26, 27, 28, 29, 30, 31, 32, 33, 34, 35, 36, 37, 38, 39, 40, 41, 42, 43, 44, 45, 46, 47, 48, 49, 50, 51, 52, 53, 54, 55, 56, 57, 58, 59, 60, 61, 62, 63, 64, 65, 66, 67, 68, 69, 70, 71, 72, 73, 74, 75, 76, 77, 78, 79, 80, 81, 82, 83, 84, 85, 86, 87, 88, 89, 90, 91, 92, 93, 94, 95, 96, 97, 98, 99, 100, 101, 102, 103, 104, 105, 106, 107, 108, 109, 110, 111, 112, 113, 114, 115, 116, 117, 118, 119, 120, 121, 122, 123, 124, 125, 126, 127, 128, 129, 130, 131, 132, 133, 134, 135, 136, 137, 138, 139],
      "LargestImagePixelValue": [48164, 46162, 45518, 44419, 44295, 44217, 43856, 43828, 43937, 43458, 44008, 48575, 44257, 44376, 43535, 44007, 43620, 43516, 44021, 44452, 43902, 44722, 51314, 44066, 43670, 44309, 44239, 44516, 44503, 44356, 44099, 44157, 43942, 43685, 43665, 44086, 46024, 43760, 43755, 43931, 43587, 44007, 44018, 44386, 44222, 45365, 44043, 44133, 44478, 44095, 43994, 44121, 44727, 44229, 44589, 44582, 44267, 44752, 44356, 44002, 43690, 43724, 43851, 43987, 44251, 44231, 45731, 44266, 44146, 43879, 44491, 48437, 43924, 44360, 43032, 43248, 43353, 43506, 44612, 44943, 45481, 45127, 45792, 45113, 44833, 45313, 44636, 45639, 44343, 44947, 45063, 44642, 45187, 45479, 45257, 47483, 45481, 45213, 44931, 45232, 44721, 44992, 44706, 44979, 44759, 44599, 46102, 45038, 44405, 45056, 46809, 44764, 44897, 45180, 44597, 44984, 44527, 44338, 44389, 45586, 44916, 44217, 49227, 44788, 44776, 48166, 44864, 44386, 44281, 45382, 49068, 43891, 45150, 44920, 52879, 48380, 48495, 44429, 44186],
      "WindowCenter": [11279.0, 11194.0, 11163.0, 11144.0, 11153.0, 11156.0, 11154.0, 11140.0, 11135.0, 11136.0, 11149.0, 11191.0, 11152.0, 11159.0, 11149.0, 11151.0, 11139.0, 11139.0, 11153.0, 11154.0, 11142.0, 11158.0, 11213.0, 11152.0, 11141.0, 11144.0, 11134.0, 11116.0, 11113.0, 11104.0, 11107.0, 11115.0, 11116.0, 11115.0, 11118.0, 11130.0, 11156.0, 11121.0, 11110.0, 11108.0, 11101.0, 11107.0, 11103.0, 11102.0, 11100.0, 11119.0, 11094.0, 11094.0, 11094.0, 11110.0, 11111.0, 11105.0, 11114.0, 11108.0, 11111.0, 11097.0, 11080.0, 11083.0, 11100.0, 11112.0, 11115.0, 11112.0, 11108.0, 11115.0, 11122.0, 11115.0, 11133.0, 11105.0, 11106.0, 11133.0, 11135.0, 11135.0, 11060.0, 11081.0, 11104.0, 11121.0, 11104.0, 11090.0, 11088.0, 11086.0, 11098.0, 11107.0, 11113.0, 11104.0, 11102.0, 11107.0, 11098.0, 11125.0, 11129.0, 11149.0, 11157.0, 11146.0, 11142.0, 11137.0, 11130.0, 11155.0, 11148.0, 11147.0, 11145.0, 11157.0, 11140.0, 11127.0, 11118.0, 11128.0, 11132.0, 11135.0, 11150.0, 11134.0, 11121.0, 11128.0, 11138.0, 11114.0, 11116.0, 11121.0, 11118.0, 11119.0, 11110.0, 11101.0, 11099.0, 11105.0, 11112.0, 11125.0, 11165.0, 11122.0, 11104.0, 11137.0, 11102.0, 11104.0, 11114.0, 11124.0, 11143.0, 11087.0, 11093.0, 11092.0, 11169.0, 11142.0, 11164.0, 11146.0, 11109.0],
      "WindowWidth": [24277.0, 24039.0, 23955.0, 23895.0, 23908.0, 23913.0, 23905.0, 23875.0, 23860.0, 23863.0, 23890.0, 23985.0, 23902.0, 23917.0, 23899.0, 23900.0, 23873.0, 23875.0, 23907.0, 23907.0, 23887.0, 23916.0, 24035.0, 23908.0, 23882.0, 23881.0, 23859.0, 23817.0, 23811.0, 23792.0, 23801.0, 23818.0, 23819.0, 23816.0, 23824.0, 23850.0, 23919.0, 23834.0, 23805.0, 23804.0, 23786.0, 23800.0, 23786.0, 23784.0, 23782.0, 23832.0, 23772.0, 23762.0, 23767.0, 23815.0, 23810.0, 23794.0, 23818.0, 23800.0, 23805.0, 23778.0, 23737.0, 23741.0, 23780.0, 23811.0, 23816.0, 23811.0, 23799.0, 23817.0, 23829.0, 23815.0, 23861.0, 23790.0, 23801.0, 23863.0, 23864.0, 23865.0, 23697.0, 23742.0, 23798.0, 23836.0, 23789.0, 23751.0, 23743.0, 23743.0, 23770.0, 23795.0, 23806.0, 23790.0, 23783.0, 23793.0, 23776.0, 23847.0, 23852.0, 23891.0, 23913.0, 23888.0, 23882.0, 23867.0, 23853.0, 23913.0, 23898.0, 23895.0, 23890.0, 23911.0, 23874.0, 23843.0, 23821.0, 23842.0, 23860.0, 23871.0, 23900.0, 23863.0, 23834.0, 23850.0, 23874.0, 23819.0, 23827.0, 23833.0, 23833.0, 23827.0, 23811.0, 23791.0, 23786.0, 23794.0, 23814.0, 23840.0, 23929.0, 23836.0, 23792.0, 23877.0, 23792.0, 23793.0, 23817.0, 23839.0, 23884.0, 23760.0, 23770.0, 23764.0, 23938.0, 23884.0, 23940.0, 23907.0, 23828.0]
    },
    "slices": {}
  }
}