{
  "AcquisitionMatrixPE": 104,
  "AcquisitionNumber": 1,
  "AcquisitionTime": "15:07:26.642500",
  "BandwidthPerPixelPhaseEncode": 17.17,
  "BaseResolution": 104,
  "BodyPartExamined": "BRAIN",
  "CoilString": "HC1-7;NC1_2",
  "ConsistencyInfo": "N4_VE11C_LATEST_20160120",
  "ConversionSoftware": "dcm2niix",
  "ConversionSoftwareVersion": "v1.0.20190720  (JP2:OpenJPEG) GCC7.3.0",
  "DerivedVendorReportedEchoSpacing": 0.000560011,
  "DeviceSerialNumber": "167006",
  "DwellTime": 2.1e-06,
  "EchoTime": 0.037,
  "EchoTrainLength": 104,
  "EffectiveEchoSpacing": 0.000560011,
  "FlipAngle": 52,
  "ImageComments": "Unaliased_MB4_PE3_LB",
  "ImageOrientationPatientDICOM": [0.999437, -0.0250428, 0.0223272, 0.0328055, 0.868902, -0.493896],
  "ImageType": [
    "ORIGINAL",
    "PRIMARY",
    "M",
    "MB",
    "ND",
    "MOSAIC"
],
  "ImagingFrequency": 123.259,
  "InPlanePhaseEncodingDirectionDICOM": "COL",
  "InstitutionAddress": "Chemin_Queen-Mary_4565_Montreal_District_CA_H3W_1W5",
  "InstitutionName": "IUGM",
  "InstitutionalDepartmentName": "Department",
  "MRAcquisitionType": "2D",
  "MagneticFieldStrength": 3,
  "Manufacturer": "Siemens",
  "ManufacturersModelName": "Prisma_fit",
  "Modality": "MR",
  "MultibandAccelerationFactor": 4,
  "PartialFourier": 1,
  "PatientPosition": "HFS",
  "PercentPhaseFOV": 100,
  "PhaseEncodingDirection": "j",
  "PhaseEncodingSteps": 104,
  "PhaseResolution": 1,
  "PixelBandwidth": 2290,
  "ProcedureStepDescription": "hcptrt_generic",
  "ProtocolName": "func_task-motor_run-2",
  "PulseSequenceDetails": "%CustomerSeq%_cmrr_mbep2d_bold",
  "ReceiveCoilActiveElements": "HC1-7;NC1,2",
  "ReceiveCoilName": "HeadNeck_64",
  "ReconMatrixPE": 104,
  "RepetitionTime": 1.49,
  "SAR": 0.0381419,
  "ScanOptions": "FS",
  "ScanningSequence": "EP",
  "SequenceName": "epfid2d1_104",
  "SequenceVariant": "SK_SS",
  "SeriesDescription": "func_task-motor_run-2",
  "SeriesNumber": 25,
  "ShimSetting": [619, -7187, -8877, 420, -17, -147, 32, -28],
  "SliceThickness": 2,
  "SliceTiming": [0, 0.785, 0.0975, 0.8825, 0.195, 0.98, 0.295, 1.0775, 0.3925, 1.175, 0.49, 1.275, 0.5875, 1.3725, 0.685, 0, 0.785, 0.0975, 0.8825, 0.195, 0.98, 0.295, 1.0775, 0.3925, 1.175, 0.49, 1.275, 0.5875, 1.3725, 0.685, 0, 0.785, 0.0975, 0.8825, 0.195, 0.98, 0.295, 1.0775, 0.3925, 1.175, 0.49, 1.275, 0.5875, 1.3725, 0.685, 0, 0.785, 0.0975, 0.8825, 0.195, 0.98, 0.295, 1.0775, 0.3925, 1.175, 0.49, 1.275, 0.5875, 1.3725, 0.685],
  "SoftwareVersions": "syngo_MR_E11",
  "SpacingBetweenSlices": 2,
  "StationName": "MRC35049",
  "TaskName": "motor",
  "TotalReadoutTime": 0.0576811,
  "TxRefAmp": 252.88,
  "WipMemBlock": "6c290827-6497-4f70-886b-12d0108df276||Sequence: R016 ve11c/master r/e634e98; Dec 19 2017 11:00:25 by eja",
  "dcmmeta_affine": [
    [-1.9988740682601929, 0.06561094522476196, 0.014063178561627865, 99.08309936523438],
    [0.05008554458618164, 1.7378039360046387, -0.9887005686759949, -63.163970947265625],
    [0.04465431347489357, 0.9877917766571045, 1.7384687662124634, -102.57095336914062],
    [0.0, 0.0, 0.0, 1.0]
],
  "dcmmeta_reorient_transform": [
    [0.0, -1.0, 0.0, 103.0],
    [1.0, 0.0, 0.0, 0.0],
    [0.0, 0.0, 1.0, 0.0],
    [0.0, 0.0, 0.0, 1.0]
],
  "dcmmeta_shape": [104, 104, 60, 144],
  "dcmmeta_slice_dim": 2,
  "dcmmeta_version": 0.6,
  "global": {
    "const": {
      "AcquisitionMatrix": [104, 0, 0, 104],
      "AngioFlag": "N",
      "BitsAllocated": 16,
      "BitsStored": 16,
      "BodyPartExamined": "BRAIN",
      "Columns": 832,
      "EchoNumbers": 1,
      "EchoTime": 37.0,
      "EchoTrainLength": 104,
      "FlipAngle": 52.0,
      "HighBit": 15,
      "ImageOrientationPatient": [0.99943702035051, -0.025042771708, 0.02232715696342, 0.0328054737544, 0.86890198270667, -0.4938958851217],
      "ImagePositionPatient": [-857.31356618385, -730.15934308882, 342.47363412873],
      "ImageType": [
        "ORIGINAL",
        "PRIMARY",
        "M",
        "MB",
        "ND",
        "MOSAIC"
],
      "ImagedNucleus": "1H",
      "ImagingFrequency": 123.259472,
      "InPlanePhaseEncodingDirection": "COL",
      "MRAcquisitionType": "2D",
      "MagneticFieldStrength": 3.0,
      "Manufacturer": "SIEMENS",
      "ManufacturerModelName": "Prisma_fit",
      "Modality": "MR",
      "NumberOfAverages": 1.0,
      "NumberOfPhaseEncodingSteps": 104,
      "PercentPhaseFieldOfView": 100.0,
      "PercentSampling": 100.0,
      "PerformedProcedureStepStartTime": "142328.475000",
      "PhotometricInterpretation": "MONOCHROME2",
      "PixelBandwidth": 2290.0,
      "PixelRepresentation": 0,
      "PixelSpacing": [2.0, 2.0],
      "ProtocolName": "func_task-motor_run-2",
      "RepetitionTime": 1490.0,
      "Rows": 832,
      "SAR": 0.0381418706798,
      "SamplesPerPixel": 1,
      "ScanOptions": "FS",
      "ScanningSequence": "EP",
      "SequenceName": "epfid2d1_104",
      "SequenceVariant": [
        "SK",
        "SS"
],
      "SeriesDescription": "func_task-motor_run-2",
      "SeriesNumber": 25,
      "SeriesTime": "150845.244000",
      "SliceLocation": -57.236356219072,
      "SliceThickness": 2.0,
      "SmallestImagePixelValue": 0,
      "SoftwareVersions": "syngo MR E11",
      "SpacingBetweenSlices": 2.0000000348812,
      "SpecificCharacterSet": "ISO_IR 100",
      "StudyID": "1",
      "StudyTime": "142328.392000",
      "TransmitCoilName": "Body",
      "VariableFlipAngleFlag": "N",
      "WindowCenterWidthExplanation": "Algo1",
      "dBdt": 0.0},
    "slices": {}
  },
  "time": {
    "samples": {
      "AcquisitionNumber": [1, 2, 3, 4, 5, 6, 7, 8, 9, 10, 11, 12, 13, 14, 15, 16, 17, 18, 19, 20, 21, 22, 23, 24, 25, 26, 27, 28, 29, 30, 31, 32, 33, 34, 35, 36, 37, 38, 39, 40, 41, 42, 43, 44, 45, 46, 47, 48, 49, 50, 51, 52, 53, 54, 55, 56, 57, 58, 59, 60, 61, 62, 63, 64, 65, 66, 67, 68, 69, 70, 71, 72, 73, 74, 75, 76, 77, 78, 79, 80, 81, 82, 83, 84, 85, 86, 87, 88, 89, 90, 91, 92, 93, 94, 95, 96, 97, 98, 99, 100, 101, 102, 103, 104, 105, 106, 107, 108, 109, 110, 111, 112, 113, 114, 115, 116, 117, 118, 119, 120, 121, 122, 123, 124, 125, 126, 127, 128, 129, 130, 131, 132, 133, 134, 135, 136, 137, 138, 139, 140, 141, 142, 143, 144],
      "AcquisitionTime": ["150726.642500", "150728.132500", "150729.622500", "150731.112500", "150732.602500", "150734.092500", "150735.582500", "150737.072500", "150738.562500", "150740.052500", "150741.542500", "150743.032500", "150744.522500", "150746.012500", "150747.502500", "150748.992500", "150750.482500", "150751.972500", "150753.462500", "150754.952500", "150756.442500", "150757.932500", "150759.422500", "150800.912500", "150802.402500", "150803.892500", "150805.382500", "150806.872500", "150808.362500", "150809.852500", "150811.342500", "150812.832500", "150814.322500", "150815.812500", "150817.302500", "150818.792500", "150820.282500", "150821.772500", "150823.262500", "150824.752500", "150826.242500", "150827.732500", "150829.222500", "150830.712500", "150832.202500", "150833.692500", "150835.182500", "150836.672500", "150838.162500", "150839.652500", "150841.142500", "150842.632500", "150844.122500", "150845.612500", "150847.102500", "150848.592500", "150850.082500", "150851.572500", "150853.062500", "150854.552500", "150856.042500", "150857.532500", "150859.022500", "150900.512500", "150902.002500", "150903.492500", "150904.982500", "150906.472500", "150907.962500", "150909.452500", "150910.942500", "150912.432500", "150913.922500", "150915.412500", "150916.902500", "150918.392500", "150919.882500", "150921.372500", "150922.862500", "150924.352500", "150925.842500", "150927.332500", "150928.822500", "150930.312500", "150931.802500", "150933.292500", "150934.782500", "150936.272500", "150937.762500", "150939.252500", "150940.742500", "150942.232500", "150943.722500", "150945.212500", "150946.702500", "150948.192500", "150949.682500", "150951.172500", "150952.662500", "150954.152500", "150955.642500", "150957.132500", "150958.622500", "151000.112500", "151001.602500", "151003.092500", "151004.582500", "151006.072500", "151007.562500", "151009.052500", "151010.542500", "151012.032500", "151013.522500", "151015.012500", "151016.502500", "151017.992500", "151019.482500", "151020.972500", "151022.462500", "151023.952500", "151025.442500", "151026.932500", "151028.422500", "151029.912500", "151031.402500", "151032.892500", "151034.382500", "151035.872500", "151037.362500", "151038.852500", "151040.342500", "151041.832500", "151043.322500", "151044.812500", "151046.302500", "151047.792500", "151049.282500", "151050.772500", "151052.262500", "151053.752500", "151055.242500", "151056.732500", "151058.222500", "151059.712500"],
      "ContentTime": ["150845.247000", "150845.254000", "150845.262000", "150845.265000", "150845.271000", "150845.274000", "150845.277000", "150845.279000", "150845.282000", "150845.285000", "150845.288000", "150845.291000", "150845.300000", "150845.303000", "150845.306000", "150845.308000", "150845.311000", "150845.314000", "150845.317000", "150845.320000", "150845.322000", "150845.325000", "150845.328000", "150845.331000", "150905.215000", "150905.218000", "150905.221000", "150905.223000", "150905.226000", "150905.229000", "150905.232000", "150905.235000", "150905.237000", "150905.240000", "150905.243000", "150905.246000", "150905.248000", "150905.251000", "150905.254000", "150905.267000", "150905.270000", "150905.273000", "150905.276000", "150905.279000", "150925.215000", "150925.218000", "150925.221000", "150925.223000", "150925.226000", "150925.229000", "150925.232000", "150925.234000", "150925.237000", "150925.240000", "150925.243000", "150925.246000", "150925.248000", "150925.257000", "150925.260000", "150925.263000", "150925.266000", "150925.276000", "150925.279000", "150925.282000", "150945.215000", "150945.218000", "150945.221000", "150945.223000", "150945.226000", "150945.229000", "150945.232000", "150945.234000", "150945.237000", "150945.240000", "150945.243000", "150945.246000", "150945.249000", "150945.251000", "150945.254000", "150945.257000", "150945.260000", "150945.263000", "150945.265000", "150945.268000", "151005.215000", "151005.218000", "151005.221000", "151005.224000", "151005.226000", "151005.229000", "151005.237000", "151005.240000", "151005.243000", "151005.246000", "151005.249000", "151005.251000", "151005.254000", "151005.257000", "151005.260000", "151005.263000", "151005.266000", "151005.268000", "151005.271000", "151005.274000", "151005.277000", "151045.215000", "151045.223000", "151045.226000", "151045.229000", "151045.232000", "151045.234000", "151045.237000", "151045.240000", "151045.243000", "151045.246000", "151045.249000", "151045.252000", "151045.263000", "151045.265000", "151045.269000", "151045.272000", "151045.275000", "151045.278000", "151045.280000", "151045.283000", "151045.286000", "151045.289000", "151045.292000", "151045.294000", "151045.297000", "151045.300000", "151045.303000", "151102.174000", "151102.177000", "151102.180000", "151102.183000", "151102.186000", "151102.189000", "151102.192000", "151102.195000", "151102.198000", "151102.201000", "151102.204000", "151102.207000"],
      "InstanceCreationTime": ["150845.247000", "150845.254000", "150845.262000", "150845.265000", "150845.271000", "150845.274000", "150845.277000", "150845.279000", "150845.282000", "150845.285000", "150845.288000", "150845.291000", "150845.300000", "150845.303000", "150845.306000", "150845.308000", "150845.311000", "150845.314000", "150845.317000", "150845.320000", "150845.322000", "150845.325000", "150845.328000", "150845.331000", "150905.215000", "150905.218000", "150905.221000", "150905.223000", "150905.226000", "150905.229000", "150905.232000", "150905.235000", "150905.237000", "150905.240000", "150905.243000", "150905.246000", "150905.248000", "150905.251000", "150905.254000", "150905.267000", "150905.270000", "150905.273000", "150905.276000", "150905.279000", "150925.215000", "150925.218000", "150925.221000", "150925.223000", "150925.226000", "150925.229000", "150925.232000", "150925.234000", "150925.237000", "150925.240000", "150925.243000", "150925.246000", "150925.248000", "150925.257000", "150925.260000", "150925.263000", "150925.266000", "150925.276000", "150925.279000", "150925.282000", "150945.215000", "150945.218000", "150945.221000", "150945.223000", "150945.226000", "150945.229000", "150945.232000", "150945.234000", "150945.237000", "150945.240000", "150945.243000", "150945.246000", "150945.249000", "150945.251000", "150945.254000", "150945.257000", "150945.260000", "150945.263000", "150945.265000", "150945.268000", "151005.215000", "151005.218000", "151005.221000", "151005.224000", "151005.226000", "151005.229000", "151005.237000", "151005.240000", "151005.243000", "151005.246000", "151005.249000", "151005.251000", "151005.254000", "151005.257000", "151005.260000", "151005.263000", "151005.266000", "151005.268000", "151005.271000", "151005.274000", "151005.277000", "151045.215000", "151045.223000", "151045.226000", "151045.229000", "151045.232000", "151045.234000", "151045.237000", "151045.240000", "151045.243000", "151045.246000", "151045.249000", "151045.252000", "151045.263000", "151045.265000", "151045.269000", "151045.272000", "151045.275000", "151045.278000", "151045.280000", "151045.283000", "151045.286000", "151045.289000", "151045.292000", "151045.294000", "151045.297000", "151045.300000", "151045.303000", "151102.174000", "151102.177000", "151102.180000", "151102.183000", "151102.186000", "151102.189000", "151102.192000", "151102.195000", "151102.198000", "151102.201000", "151102.204000", "151102.207000"],
      "InstanceNumber": [1, 2, 3, 4, 5, 6, 7, 8, 9, 10, 11, 12, 13, 14, 15, 16, 17, 18, 19, 20, 21, 22, 23, 24, 25, 26, 27, 28, 29, 30, 31, 32, 33, 34, 35, 36, 37, 38, 39, 40, 41, 42, 43, 44, 45, 46, 47, 48, 49, 50, 51, 52, 53, 54, 55, 56, 57, 58, 59, 60, 61, 62, 63, 64, 65, 66, 67, 68, 69, 70, 71, 72, 73, 74, 75, 76, 77, 78, 79, 80, 81, 82, 83, 84, 85, 86, 87, 88, 89, 90, 91, 92, 93, 94, 95, 96, 97, 98, 99, 100, 101, 102, 103, 104, 105, 106, 107, 108, 109, 110, 111, 112, 113, 114, 115, 116, 117, 118, 119, 120, 121, 122, 123, 124, 125, 126, 127, 128, 129, 130, 131, 132, 133, 134, 135, 136, 137, 138, 139, 140, 141, 142, 143, 144],
      "LargestImagePixelValue": [48072, 47086, 45913, 45280, 45416, 45563, 44937, 45516, 45159, 44649, 44666, 44559, 44940, 45460, 45035, 45071, 45240, 45041, 46172, 46078, 45635, 45939, 46006, 46345, 45991, 46456, 45908, 45013, 45577, 46143, 45836, 46218, 46143, 45951, 46032, 45693, 45906, 45197, 45384, 51078, 45475, 46187, 45766, 46140, 45627, 45640, 45606, 45972, 45170, 44924, 44976, 44838, 45221, 46054, 49170, 45910, 44928, 45355, 45104, 44926, 45429, 45358, 45003, 45139, 45480, 45117, 45410, 44842, 45119, 46164, 46593, 46782, 46923, 46467, 46390, 45946, 46071, 45560, 45653, 45980, 45450, 45643, 46001, 45741, 45780, 46485, 50915, 45909, 45850, 45270, 45072, 45681, 45322, 45734, 45169, 44815, 46827, 45389, 44779, 45061, 45177, 44983, 45771, 45416, 45688, 45435, 45735, 45065, 45383, 45292, 45821, 45020, 45481, 45192, 45200, 45364, 45651, 45219, 45149, 44647, 46443, 47042, 46194, 46238, 46711, 46259, 46270, 46540, 45973, 44661, 44951, 44781, 45619, 45497, 45446, 45681, 45624, 45553, 45094, 51442, 47255, 56801, 52548, 53730],
      "WindowCenter": [11353.0, 11312.0, 11259.0, 11240.0, 11237.0, 11230.0, 11218.0, 11214.0, 11212.0, 11218.0, 11227.0, 11232.0, 11227.0, 11224.0, 11216.0, 11207.0, 11207.0, 11197.0, 11218.0, 11223.0, 11225.0, 11222.0, 11214.0, 11222.0, 11214.0, 11213.0, 11192.0, 11170.0, 11176.0, 11183.0, 11190.0, 11189.0, 11179.0, 11166.0, 11152.0, 11151.0, 11165.0, 11172.0, 11189.0, 11263.0, 11224.0, 11231.0, 11224.0, 11224.0, 11217.0, 11216.0, 11218.0, 11217.0, 11205.0, 11194.0, 11196.0, 11187.0, 11191.0, 11217.0, 11253.0, 11216.0, 11188.0, 11183.0, 11185.0, 11194.0, 11197.0, 11200.0, 11193.0, 11187.0, 11188.0, 11182.0, 11182.0, 11179.0, 11195.0, 11215.0, 11220.0, 11215.0, 11191.0, 11177.0, 11182.0, 11185.0, 11198.0, 11206.0, 11222.0, 11229.0, 11218.0, 11240.0, 11252.0, 11247.0, 11231.0, 11241.0, 11276.0, 11224.0, 11218.0, 11216.0, 11211.0, 11216.0, 11212.0, 11219.0, 11212.0, 11214.0, 11230.0, 11212.0, 11211.0, 11218.0, 11217.0, 11207.0, 11193.0, 11186.0, 11198.0, 11203.0, 11201.0, 11183.0, 11182.0, 11204.0, 11230.0, 11233.0, 11226.0, 11219.0, 11210.0, 11205.0, 11200.0, 11194.0, 11196.0, 11206.0, 11220.0, 11232.0, 11221.0, 11218.0, 11229.0, 11218.0, 11218.0, 11219.0, 11213.0, 11193.0, 11192.0, 11194.0, 11189.0, 11176.0, 11168.0, 11165.0, 11182.0, 11201.0, 11209.0, 11283.0, 11237.0, 11315.0, 11279.0, 11248.0],
      "WindowWidth": [24471.0, 24343.0, 24202.0, 24143.0, 24129.0, 24107.0, 24082.0, 24067.0, 24073.0, 24080.0, 24098.0, 24118.0, 24101.0, 24096.0, 24073.0, 24055.0, 24059.0, 24031.0, 24086.0, 24093.0, 24098.0, 24089.0, 24071.0, 24091.0, 24072.0, 24069.0, 24024.0, 23979.0, 23979.0, 23993.0, 24009.0, 24006.0, 23983.0, 23955.0, 23923.0, 23922.0, 23953.0, 23975.0, 24012.0, 24177.0, 24093.0, 24106.0, 24089.0, 24094.0, 24075.0, 24077.0, 24082.0, 24081.0, 24052.0, 24024.0, 24033.0, 24010.0, 24012.0, 24066.0, 24153.0, 24072.0, 24008.0, 23992.0, 23998.0, 24025.0, 24024.0, 24032.0, 24016.0, 24002.0, 24001.0, 23988.0, 23988.0, 23988.0, 24017.0, 24058.0, 24068.0, 24063.0, 24006.0, 23974.0, 23985.0, 23998.0, 24027.0, 24051.0, 24088.0, 24103.0, 24081.0, 24128.0, 24156.0, 24148.0, 24109.0, 24130.0, 24208.0, 24099.0, 24075.0, 24074.0, 24053.0, 24061.0, 24059.0, 24072.0, 24054.0, 24059.0, 24099.0, 24055.0, 24061.0, 24070.0, 24071.0, 24044.0, 24012.0, 23994.0, 24018.0, 24032.0, 24027.0, 23994.0, 23985.0, 24044.0, 24102.0, 24104.0, 24086.0, 24080.0, 24052.0, 24037.0, 24021.0, 24005.0, 24011.0, 24051.0, 24069.0, 24100.0, 24077.0, 24066.0, 24096.0, 24070.0, 24070.0, 24072.0, 24065.0, 24019.0, 24011.0, 24019.0, 24004.0, 23971.0, 23953.0, 23945.0, 23984.0, 24026.0, 24047.0, 24228.0, 24128.0, 24293.0, 24217.0, 24136.0]
    },
    "slices": {}
  }
}