{
  "AcquisitionMatrixPE": 104,
  "AcquisitionNumber": 1,
  "AcquisitionTime": "14:55:31.922500",
  "BandwidthPerPixelPhaseEncode": 17.17,
  "BaseResolution": 104,
  "BodyPartExamined": "BRAIN",
  "CoilString": "HC1-7;NC1_2",
  "ConsistencyInfo": "N4_VE11C_LATEST_20160120",
  "ConversionSoftware": "dcm2niix",
  "ConversionSoftwareVersion": "v1.0.20190720  (JP2:OpenJPEG) GCC7.3.0",
  "DerivedVendorReportedEchoSpacing": 0.000560011,
  "DeviceSerialNumber": "167006",
  "DwellTime": 2.1e-06,
  "EchoTime": 0.037,
  "EchoTrainLength": 104,
  "EffectiveEchoSpacing": 0.000560011,
  "FlipAngle": 52,
  "ImageComments": "Unaliased_MB4_PE3_LB",
  "ImageOrientationPatientDICOM": [0.999437, -0.0250428, 0.0223272, 0.0328055, 0.868902, -0.493896],
  "ImageType": [
    "ORIGINAL",
    "PRIMARY",
    "M",
    "MB",
    "ND",
    "MOSAIC"
],
  "ImagingFrequency": 123.259,
  "InPlanePhaseEncodingDirectionDICOM": "COL",
  "InstitutionAddress": "Chemin_Queen-Mary_4565_Montreal_District_CA_H3W_1W5",
  "InstitutionName": "IUGM",
  "InstitutionalDepartmentName": "Department",
  "MRAcquisitionType": "2D",
  "MagneticFieldStrength": 3,
  "Manufacturer": "Siemens",
  "ManufacturersModelName": "Prisma_fit",
  "Modality": "MR",
  "MultibandAccelerationFactor": 4,
  "PartialFourier": 1,
  "PatientPosition": "HFS",
  "PercentPhaseFOV": 100,
  "PhaseEncodingDirection": "j",
  "PhaseEncodingSteps": 104,
  "PhaseResolution": 1,
  "PixelBandwidth": 2290,
  "ProcedureStepDescription": "hcptrt_generic",
  "ProtocolName": "func_task-gambling_run-1",
  "PulseSequenceDetails": "%CustomerSeq%_cmrr_mbep2d_bold",
  "ReceiveCoilActiveElements": "HC1-7;NC1,2",
  "ReceiveCoilName": "HeadNeck_64",
  "ReconMatrixPE": 104,
  "RepetitionTime": 1.49,
  "SAR": 0.0380847,
  "ScanOptions": "FS",
  "ScanningSequence": "EP",
  "SequenceName": "epfid2d1_104",
  "SequenceVariant": "SK_SS",
  "SeriesDescription": "func_task-gambling_run-1",
  "SeriesNumber": 19,
  "ShimSetting": [619, -7187, -8877, 420, -17, -147, 32, -28],
  "SliceThickness": 2,
  "SliceTiming": [0, 0.785, 0.0975, 0.8825, 0.195, 0.98, 0.295, 1.0775, 0.3925, 1.175, 0.49, 1.2725, 0.5875, 1.3725, 0.685, 0, 0.785, 0.0975, 0.8825, 0.195, 0.98, 0.295, 1.0775, 0.3925, 1.175, 0.49, 1.2725, 0.5875, 1.3725, 0.685, 0, 0.785, 0.0975, 0.8825, 0.195, 0.98, 0.295, 1.0775, 0.3925, 1.175, 0.49, 1.2725, 0.5875, 1.3725, 0.685, 0, 0.785, 0.0975, 0.8825, 0.195, 0.98, 0.295, 1.0775, 0.3925, 1.175, 0.49, 1.2725, 0.5875, 1.3725, 0.685],
  "SoftwareVersions": "syngo_MR_E11",
  "SpacingBetweenSlices": 2,
  "StationName": "MRC35049",
  "TaskName": "gambling",
  "TotalReadoutTime": 0.0576811,
  "TxRefAmp": 252.88,
  "WipMemBlock": "edde62ea-2533-46ed-9ca9-75ed09ee11bd||Sequence: R016 ve11c/master r/e634e98; Dec 19 2017 11:00:25 by eja",
  "dcmmeta_affine": [
    [-1.9988740682601929, 0.06561094522476196, 0.014063178561627865, 99.08309936523438],
    [0.05008554458618164, 1.7378039360046387, -0.9887005686759949, -63.163970947265625],
    [0.04465431347489357, 0.9877917766571045, 1.7384687662124634, -102.57095336914062],
    [0.0, 0.0, 0.0, 1.0]
],
  "dcmmeta_reorient_transform": [
    [0.0, -1.0, 0.0, 103.0],
    [1.0, 0.0, 0.0, 0.0],
    [0.0, 0.0, 1.0, 0.0],
    [0.0, 0.0, 0.0, 1.0]
],
  "dcmmeta_shape": [104, 104, 60, 129],
  "dcmmeta_slice_dim": 2,
  "dcmmeta_version": 0.6,
  "global": {
    "const": {
      "AcquisitionMatrix": [104, 0, 0, 104],
      "AngioFlag": "N",
      "BitsAllocated": 16,
      "BitsStored": 16,
      "BodyPartExamined": "BRAIN",
      "Columns": 832,
      "EchoNumbers": 1,
      "EchoTime": 37.0,
      "EchoTrainLength": 104,
      "FlipAngle": 52.0,
      "HighBit": 15,
      "ImageOrientationPatient": [0.99943702035051, -0.025042771708, 0.02232715696342, 0.0328054737544, 0.86890198270667, -0.4938958851217],
      "ImagePositionPatient": [-857.31356618385, -730.15934308882, 342.47363412873],
      "ImageType": [
        "ORIGINAL",
        "PRIMARY",
        "M",
        "MB",
        "ND",
        "MOSAIC"
],
      "ImagedNucleus": "1H",
      "ImagingFrequency": 123.259468,
      "InPlanePhaseEncodingDirection": "COL",
      "MRAcquisitionType": "2D",
      "MagneticFieldStrength": 3.0,
      "Manufacturer": "SIEMENS",
      "ManufacturerModelName": "Prisma_fit",
      "Modality": "MR",
      "NumberOfAverages": 1.0,
      "NumberOfPhaseEncodingSteps": 104,
      "PercentPhaseFieldOfView": 100.0,
      "PercentSampling": 100.0,
      "PerformedProcedureStepStartTime": "142328.475000",
      "PhotometricInterpretation": "MONOCHROME2",
      "PixelBandwidth": 2290.0,
      "PixelRepresentation": 0,
      "PixelSpacing": [2.0, 2.0],
      "ProtocolName": "func_task-gambling_run-1",
      "RepetitionTime": 1490.0,
      "Rows": 832,
      "SAR": 0.03808465345774,
      "SamplesPerPixel": 1,
      "ScanOptions": "FS",
      "ScanningSequence": "EP",
      "SequenceName": "epfid2d1_104",
      "SequenceVariant": [
        "SK",
        "SS"
],
      "SeriesDescription": "func_task-gambling_run-1",
      "SeriesNumber": 19,
      "SeriesTime": "145705.240000",
      "SliceLocation": -57.236356219072,
      "SliceThickness": 2.0,
      "SmallestImagePixelValue": 0,
      "SoftwareVersions": "syngo MR E11",
      "SpacingBetweenSlices": 2.0000000348812,
      "SpecificCharacterSet": "ISO_IR 100",
      "StudyID": "1",
      "StudyTime": "142328.392000",
      "TransmitCoilName": "Body",
      "VariableFlipAngleFlag": "N",
      "WindowCenterWidthExplanation": "Algo1",
      "dBdt": 0.0},
    "slices": {}
  },
  "time": {
    "samples": {
      "AcquisitionNumber": [1, 2, 3, 4, 5, 6, 7, 8, 9, 10, 11, 12, 13, 14, 15, 16, 17, 18, 19, 20, 21, 22, 23, 24, 25, 26, 27, 28, 29, 30, 31, 32, 33, 34, 35, 36, 37, 38, 39, 40, 41, 42, 43, 44, 45, 46, 47, 48, 49, 50, 51, 52, 53, 54, 55, 56, 57, 58, 59, 60, 61, 62, 63, 64, 65, 66, 67, 68, 69, 70, 71, 72, 73, 74, 75, 76, 77, 78, 79, 80, 81, 82, 83, 84, 85, 86, 87, 88, 89, 90, 91, 92, 93, 94, 95, 96, 97, 98, 99, 100, 101, 102, 103, 104, 105, 106, 107, 108, 109, 110, 111, 112, 113, 114, 115, 116, 117, 118, 119, 120, 121, 122, 123, 124, 125, 126, 127, 128, 129],
      "AcquisitionTime": ["145531.922500", "145533.412500", "145534.902500", "145536.392500", "145537.882500", "145539.372500", "145540.862500", "145542.352500", "145543.842500", "145545.332500", "145546.822500", "145548.312500", "145549.802500", "145551.292500", "145552.782500", "145554.272500", "145555.762500", "145557.252500", "145558.742500", "145600.232500", "145601.722500", "145603.212500", "145604.702500", "145606.192500", "145607.682500", "145609.172500", "145610.662500", "145612.152500", "145613.642500", "145615.132500", "145616.622500", "145618.112500", "145619.602500", "145621.092500", "145622.582500", "145624.072500", "145625.562500", "145627.052500", "145628.542500", "145630.032500", "145631.522500", "145633.012500", "145634.502500", "145635.992500", "145637.482500", "145638.972500", "145640.462500", "145641.952500", "145643.442500", "145644.932500", "145646.422500", "145647.912500", "145649.402500", "145650.892500", "145652.382500", "145653.872500", "145655.362500", "145656.852500", "145658.342500", "145659.832500", "145701.322500", "145702.812500", "145704.302500", "145705.792500", "145707.282500", "145708.772500", "145710.262500", "145711.752500", "145713.242500", "145714.732500", "145716.222500", "145717.712500", "145719.202500", "145720.692500", "145722.182500", "145723.672500", "145725.162500", "145726.652500", "145728.142500", "145729.632500", "145731.122500", "145732.612500", "145734.102500", "145735.592500", "145737.082500", "145738.572500", "145740.062500", "145741.552500", "145743.042500", "145744.532500", "145746.022500", "145747.512500", "145749.002500", "145750.492500", "145751.982500", "145753.472500", "145754.962500", "145756.452500", "145757.942500", "145759.432500", "145800.922500", "145802.412500", "145803.902500", "145805.392500", "145806.882500", "145808.372500", "145809.862500", "145811.352500", "145812.842500", "145814.332500", "145815.822500", "145817.312500", "145818.802500", "145820.292500", "145821.782500", "145823.272500", "145824.762500", "145826.252500", "145827.742500", "145829.232500", "145830.722500", "145832.212500", "145833.702500", "145835.192500", "145836.682500", "145838.172500", "145839.662500", "145841.152500", "145842.642500"],
      "ContentTime": ["145705.243000", "145705.246000", "145705.249000", "145705.252000", "145705.256000", "145705.259000", "145705.262000", "145705.265000", "145705.267000", "145705.270000", "145705.273000", "145705.276000", "145705.279000", "145705.282000", "145705.284000", "145705.287000", "145705.290000", "145705.293000", "145705.296000", "145705.298000", "145705.301000", "145705.304000", "145705.307000", "145705.310000", "145705.318000", "145705.321000", "145705.335000", "145705.338000", "145705.348000", "145705.351000", "145705.353000", "145705.356000", "145705.359000", "145705.362000", "145705.365000", "145705.368000", "145705.371000", "145705.373000", "145705.376000", "145725.215000", "145725.218000", "145725.221000", "145725.223000", "145725.226000", "145725.229000", "145725.232000", "145725.235000", "145725.238000", "145725.241000", "145725.243000", "145725.246000", "145725.249000", "145725.252000", "145725.255000", "145725.258000", "145725.261000", "145725.263000", "145725.266000", "145725.269000", "145745.215000", "145745.218000", "145745.221000", "145745.223000", "145745.226000", "145745.229000", "145745.232000", "145745.235000", "145745.238000", "145745.241000", "145745.243000", "145745.246000", "145745.249000", "145745.252000", "145745.255000", "145745.258000", "145745.260000", "145745.263000", "145745.266000", "145745.269000", "145805.215000", "145805.218000", "145805.221000", "145805.224000", "145805.226000", "145805.229000", "145805.232000", "145805.235000", "145805.238000", "145805.240000", "145805.243000", "145805.246000", "145805.249000", "145805.252000", "145805.254000", "145805.257000", "145805.260000", "145805.263000", "145805.266000", "145805.268000", "145805.271000", "145845.227000", "145845.230000", "145845.233000", "145845.235000", "145845.238000", "145845.247000", "145845.250000", "145845.253000", "145845.256000", "145845.259000", "145845.262000", "145845.264000", "145845.267000", "145845.271000", "145845.274000", "145845.277000", "145845.280000", "145845.283000", "145845.286000", "145845.298000", "145845.301000", "145845.304000", "145845.307000", "145845.309000", "145845.312000", "145845.315000", "145845.318000", "145845.321000", "145845.324000"],
      "InstanceCreationTime": ["145705.243000", "145705.246000", "145705.249000", "145705.252000", "145705.256000", "145705.259000", "145705.262000", "145705.265000", "145705.267000", "145705.270000", "145705.273000", "145705.276000", "145705.279000", "145705.282000", "145705.284000", "145705.287000", "145705.290000", "145705.293000", "145705.296000", "145705.298000", "145705.301000", "145705.304000", "145705.307000", "145705.310000", "145705.318000", "145705.321000", "145705.335000", "145705.338000", "145705.348000", "145705.351000", "145705.353000", "145705.356000", "145705.359000", "145705.362000", "145705.365000", "145705.368000", "145705.371000", "145705.373000", "145705.376000", "145725.215000", "145725.218000", "145725.221000", "145725.223000", "145725.226000", "145725.229000", "145725.232000", "145725.235000", "145725.238000", "145725.241000", "145725.243000", "145725.246000", "145725.249000", "145725.252000", "145725.255000", "145725.258000", "145725.261000", "145725.263000", "145725.266000", "145725.269000", "145745.215000", "145745.218000", "145745.221000", "145745.223000", "145745.226000", "145745.229000", "145745.232000", "145745.235000", "145745.238000", "145745.241000", "145745.243000", "145745.246000", "145745.249000", "145745.252000", "145745.255000", "145745.258000", "145745.260000", "145745.263000", "145745.266000", "145745.269000", "145805.215000", "145805.218000", "145805.221000", "145805.224000", "145805.226000", "145805.229000", "145805.232000", "145805.235000", "145805.238000", "145805.240000", "145805.243000", "145805.246000", "145805.249000", "145805.252000", "145805.254000", "145805.257000", "145805.260000", "145805.263000", "145805.266000", "145805.268000", "145805.271000", "145845.227000", "145845.230000", "145845.233000", "145845.235000", "145845.238000", "145845.247000", "145845.250000", "145845.253000", "145845.256000", "145845.259000", "145845.262000", "145845.264000", "145845.267000", "145845.271000", "145845.274000", "145845.277000", "145845.280000", "145845.283000", "145845.286000", "145845.298000", "145845.301000", "145845.304000", "145845.307000", "145845.309000", "145845.312000", "145845.315000", "145845.318000", "145845.321000", "145845.324000"],
      "InstanceNumber": [1, 2, 3, 4, 5, 6, 7, 8, 9, 10, 11, 12, 13, 14, 15, 16, 17, 18, 19, 20, 21, 22, 23, 24, 25, 26, 27, 28, 29, 30, 31, 32, 33, 34, 35, 36, 37, 38, 39, 40, 41, 42, 43, 44, 45, 46, 47, 48, 49, 50, 51, 52, 53, 54, 55, 56, 57, 58, 59, 60, 61, 62, 63, 64, 65, 66, 67, 68, 69, 70, 71, 72, 73, 74, 75, 76, 77, 78, 79, 80, 81, 82, 83, 84, 85, 86, 87, 88, 89, 90, 91, 92, 93, 94, 95, 96, 97, 98, 99, 100, 101, 102, 103, 104, 105, 106, 107, 108, 109, 110, 111, 112, 113, 114, 115, 116, 117, 118, 119, 120, 121, 122, 123, 124, 125, 126, 127, 128, 129],
      "LargestImagePixelValue": [49530, 48320, 47520, 47089, 47252, 47052, 46571, 46233, 46268, 46317, 46032, 46416, 46150, 45921, 46479, 45959, 46890, 46447, 46614, 46104, 46615, 46277, 46188, 46163, 46505, 46567, 48567, 46663, 46485, 46184, 46468, 46367, 46484, 46211, 46411, 46755, 47361, 46763, 46515, 46365, 46744, 46432, 46383, 46846, 46773, 46461, 46281, 46632, 46985, 46735, 46585, 46399, 46272, 46332, 46542, 46098, 46197, 46732, 47236, 46431, 46608, 46756, 46341, 47142, 46828, 47133, 46499, 46902, 46856, 46281, 46852, 46972, 46563, 46505, 46744, 46911, 46716, 46631, 46660, 47245, 47195, 46539, 46614, 47079, 46836, 47120, 46801, 46773, 46833, 46723, 46767, 45349, 45964, 47032, 46587, 46518, 45771, 45604, 45982, 46151, 47002, 47506, 46939, 46838, 46817, 46752, 46818, 46675, 46860, 46822, 47840, 46943, 46844, 46800, 46319, 45166, 44982, 45870, 46354, 46022, 45973, 46009, 46229, 47110, 46548, 45939, 46327, 48627, 46925],
      "WindowCenter": [11375.0, 11307.0, 11259.0, 11233.0, 11221.0, 11220.0, 11213.0, 11215.0, 11223.0, 11223.0, 11228.0, 11230.0, 11223.0, 11229.0, 11225.0, 11220.0, 11229.0, 11223.0, 11240.0, 11226.0, 11225.0, 11215.0, 11210.0, 11219.0, 11226.0, 11232.0, 11246.0, 11223.0, 11218.0, 11211.0, 11216.0, 11222.0, 11224.0, 11223.0, 11233.0, 11224.0, 11207.0, 11204.0, 11220.0, 11229.0, 11225.0, 11222.0, 11225.0, 11224.0, 11226.0, 11209.0, 11207.0, 11213.0, 11227.0, 11232.0, 11240.0, 11242.0, 11231.0, 11227.0, 11228.0, 11224.0, 11236.0, 11251.0, 11258.0, 11240.0, 11229.0, 11223.0, 11210.0, 11221.0, 11224.0, 11237.0, 11239.0, 11235.0, 11226.0, 11236.0, 11229.0, 11226.0, 11208.0, 11195.0, 11213.0, 11230.0, 11228.0, 11233.0, 11234.0, 11231.0, 11238.0, 11231.0, 11236.0, 11234.0, 11217.0, 11218.0, 11224.0, 11233.0, 11235.0, 11242.0, 11259.0, 11218.0, 11178.0, 11166.0, 11179.0, 11205.0, 11220.0, 11200.0, 11188.0, 11181.0, 11191.0, 11204.0, 11208.0, 11224.0, 11227.0, 11227.0, 11221.0, 11219.0, 11221.0, 11229.0, 11256.0, 11255.0, 11253.0, 11245.0, 11243.0, 11243.0, 11213.0, 11188.0, 11213.0, 11253.0, 11265.0, 11249.0, 11218.0, 11207.0, 11211.0, 11225.0, 11224.0, 11245.0, 11241.0],
      "WindowWidth": [24539.0, 24343.0, 24208.0, 24134.0, 24096.0, 24088.0, 24072.0, 24078.0, 24096.0, 24095.0, 24112.0, 24109.0, 24099.0, 24121.0, 24108.0, 24098.0, 24111.0, 24097.0, 24147.0, 24106.0, 24104.0, 24081.0, 24070.0, 24093.0, 24107.0, 24118.0, 24153.0, 24101.0, 24091.0, 24072.0, 24081.0, 24094.0, 24097.0, 24093.0, 24117.0, 24100.0, 24053.0, 24049.0, 24088.0, 24104.0, 24096.0, 24084.0, 24091.0, 24088.0, 24098.0, 24060.0, 24054.0, 24069.0, 24099.0, 24111.0, 24129.0, 24132.0, 24110.0, 24101.0, 24105.0, 24098.0, 24123.0, 24159.0, 24172.0, 24134.0, 24103.0, 24089.0, 24059.0, 24079.0, 24085.0, 24115.0, 24126.0, 24119.0, 24095.0, 24120.0, 24099.0, 24094.0, 24052.0, 24024.0, 24067.0, 24107.0, 24103.0, 24110.0, 24120.0, 24108.0, 24123.0, 24107.0, 24116.0, 24110.0, 24071.0, 24078.0, 24090.0, 24108.0, 24116.0, 24136.0, 24177.0, 24089.0, 23993.0, 23955.0, 23986.0, 24047.0, 24082.0, 24028.0, 23995.0, 23986.0, 24005.0, 24039.0, 24055.0, 24107.0, 24100.0, 24095.0, 24083.0, 24077.0, 24084.0, 24100.0, 24167.0, 24165.0, 24162.0, 24144.0, 24144.0, 24149.0, 24085.0, 24015.0, 24066.0, 24160.0, 24190.0, 24150.0, 24068.0, 24038.0, 24058.0, 24121.0, 24108.0, 24147.0, 24140.0]
    },
    "slices": {}
  }
}