{
  "AcquisitionMatrixPE": 104,
  "AcquisitionNumber": 1,
  "AcquisitionTime": "15:55:31.742500",
  "BandwidthPerPixelPhaseEncode": 17.17,
  "BaseResolution": 104,
  "BodyPartExamined": "BRAIN",
  "CoilString": "HC1-7;NC1_2",
  "ConsistencyInfo": "N4_VE11C_LATEST_20160120",
  "ConversionSoftware": "dcm2niix",
  "ConversionSoftwareVersion": "v1.0.20190720  (JP2:OpenJPEG) GCC7.3.0",
  "DerivedVendorReportedEchoSpacing": 0.000560011,
  "DeviceSerialNumber": "167006",
  "DwellTime": 2.1e-06,
  "EchoTime": 0.037,
  "EchoTrainLength": 104,
  "EffectiveEchoSpacing": 0.000560011,
  "FlipAngle": 52,
  "ImageComments": "Unaliased_MB4_PE3_LB",
  "ImageOrientationPatientDICOM": [0.999771, -0.0170993, 0.0128565, 0.0205931, 0.932034, -0.361785],
  "ImageType": [
    "ORIGINAL",
    "PRIMARY",
    "M",
    "MB",
    "ND",
    "MOSAIC"
],
  "ImagingFrequency": 123.26,
  "InPlanePhaseEncodingDirectionDICOM": "COL",
  "InstitutionAddress": "Chemin_Queen-Mary_4565_Montreal_District_CA_H3W_1W5",
  "InstitutionName": "IUGM",
  "InstitutionalDepartmentName": "Department",
  "MRAcquisitionType": "2D",
  "MagneticFieldStrength": 3,
  "Manufacturer": "Siemens",
  "ManufacturersModelName": "Prisma_fit",
  "Modality": "MR",
  "MultibandAccelerationFactor": 4,
  "PartialFourier": 1,
  "PatientPosition": "HFS",
  "PercentPhaseFOV": 100,
  "PhaseEncodingDirection": "j",
  "PhaseEncodingSteps": 104,
  "PhaseResolution": 1,
  "PixelBandwidth": 2290,
  "ProcedureStepDescription": "hcptrt_generic",
  "ProtocolName": "func_task-language_run-1",
  "PulseSequenceDetails": "%CustomerSeq%_cmrr_mbep2d_bold",
  "ReceiveCoilActiveElements": "HC1-7;NC1,2",
  "ReceiveCoilName": "HeadNeck_64",
  "ReconMatrixPE": 104,
  "RepetitionTime": 1.49,
  "SAR": 0.0285397,
  "ScanOptions": "FS",
  "ScanningSequence": "EP",
  "SequenceName": "epfid2d1_104",
  "SequenceVariant": "SK_SS",
  "SeriesDescription": "func_task-language_run-1",
  "SeriesNumber": 13,
  "ShimSetting": [639, -7131, -8803, 653, 64, 186, 0, -24],
  "SliceThickness": 2,
  "SliceTiming": [0, 0.785, 0.0975, 0.8825, 0.1975, 0.98, 0.295, 1.0775, 0.3925, 1.1775, 0.49, 1.275, 0.5875, 1.3725, 0.6875, 0, 0.785, 0.0975, 0.8825, 0.1975, 0.98, 0.295, 1.0775, 0.3925, 1.1775, 0.49, 1.275, 0.5875, 1.3725, 0.6875, 0, 0.785, 0.0975, 0.8825, 0.1975, 0.98, 0.295, 1.0775, 0.3925, 1.1775, 0.49, 1.275, 0.5875, 1.3725, 0.6875, 0, 0.785, 0.0975, 0.8825, 0.1975, 0.98, 0.295, 1.0775, 0.3925, 1.1775, 0.49, 1.275, 0.5875, 1.3725, 0.6875],
  "SoftwareVersions": "syngo_MR_E11",
  "SpacingBetweenSlices": 2,
  "StationName": "MRC35049",
  "TaskName": "language",
  "TotalReadoutTime": 0.0576811,
  "TxRefAmp": 207.154,
  "WipMemBlock": "261772fc-c218-4da6-b7c9-21930efcce74||Sequence: R016 ve11c/master r/e634e98; Dec 19 2017 11:00:25 by eja",
  "dcmmeta_affine": [
    [-1.999542236328125, 0.041186220943927765, 0.011592795141041279, 104.42868041992188],
    [0.034198567271232605, 1.864067792892456, -0.7239348292350769, -68.28963470458984],
    [0.02571294829249382, 0.7235709428787231, 1.8643455505371094, -66.49678039550781],
    [0.0, 0.0, 0.0, 1.0]
],
  "dcmmeta_reorient_transform": [
    [0.0, -1.0, 0.0, 103.0],
    [1.0, 0.0, 0.0, 0.0],
    [0.0, 0.0, 1.0, 0.0],
    [0.0, 0.0, 0.0, 1.0]
],
  "dcmmeta_shape": [104, 104, 60, 159],
  "dcmmeta_slice_dim": 2,
  "dcmmeta_version": 0.6,
  "global": {
    "const": {
      "AcquisitionMatrix": [104, 0, 0, 104],
      "AngioFlag": "N",
      "BitsAllocated": 16,
      "BitsStored": 16,
      "BodyPartExamined": "BRAIN",
      "Columns": 832,
      "EchoNumbers": 1,
      "EchoTime": 37.0,
      "EchoTrainLength": 104,
      "FlipAngle": 52.0,
      "HighBit": 15,
      "ImageOrientationPatient": [0.99977113658974, -0.0170992840551, 0.01285647412248, 0.02059311096505, 0.9320339063769, -0.3617854628707],
      "ImagePositionPatient": [-851.49603534223, -789.78175811546, 262.05132739099],
      "ImageType": [
        "ORIGINAL",
        "PRIMARY",
        "M",
        "MB",
        "ND",
        "MOSAIC"
],
      "ImagedNucleus": "1H",
      "ImagingFrequency": 123.259599,
      "InPlanePhaseEncodingDirection": "COL",
      "MRAcquisitionType": "2D",
      "MagneticFieldStrength": 3.0,
      "Manufacturer": "SIEMENS",
      "ManufacturerModelName": "Prisma_fit",
      "Modality": "MR",
      "NumberOfAverages": 1.0,
      "NumberOfPhaseEncodingSteps": 104,
      "PercentPhaseFieldOfView": 100.0,
      "PercentSampling": 100.0,
      "PerformedProcedureStepStartTime": "153724.568000",
      "PhotometricInterpretation": "MONOCHROME2",
      "PixelBandwidth": 2290.0,
      "PixelRepresentation": 0,
      "PixelSpacing": [2.0, 2.0],
      "ProtocolName": "func_task-language_run-1",
      "RepetitionTime": 1490.0,
      "Rows": 832,
      "SAR": 0.02853974138824,
      "SamplesPerPixel": 1,
      "ScanOptions": "FS",
      "ScanningSequence": "EP",
      "SequenceName": "epfid2d1_104",
      "SequenceVariant": [
        "SK",
        "SS"
],
      "SeriesDescription": "func_task-language_run-1",
      "SeriesNumber": 13,
      "SeriesTime": "155648.509000",
      "SliceLocation": -36.662554489079,
      "SliceThickness": 2.0,
      "SmallestImagePixelValue": 0,
      "SoftwareVersions": "syngo MR E11",
      "SpacingBetweenSlices": 2.0000000444661,
      "SpecificCharacterSet": "ISO_IR 100",
      "StudyID": "1",
      "StudyTime": "153724.514000",
      "TransmitCoilName": "Body",
      "VariableFlipAngleFlag": "N",
      "WindowCenterWidthExplanation": "Algo1",
      "dBdt": 0.0},
    "slices": {}
  },
  "time": {
    "samples": {
      "AcquisitionNumber": [1, 2, 3, 4, 5, 6, 7, 8, 9, 10, 11, 12, 13, 14, 15, 16, 17, 18, 19, 20, 21, 22, 23, 24, 25, 26, 27, 28, 29, 30, 31, 32, 33, 34, 35, 36, 37, 38, 39, 40, 41, 42, 43, 44, 45, 46, 47, 48, 49, 50, 51, 52, 53, 54, 55, 56, 57, 58, 59, 60, 61, 62, 63, 64, 65, 66, 67, 68, 69, 70, 71, 72, 73, 74, 75, 76, 77, 78, 79, 80, 81, 82, 83, 84, 85, 86, 87, 88, 89, 90, 91, 92, 93, 94, 95, 96, 97, 98, 99, 100, 101, 102, 103, 104, 105, 106, 107, 108, 109, 110, 111, 112, 113, 114, 115, 116, 117, 118, 119, 120, 121, 122, 123, 124, 125, 126, 127, 128, 129, 130, 131, 132, 133, 134, 135, 136, 137, 138, 139, 140, 141, 142, 143, 144, 145, 146, 147, 148, 149, 150, 151, 152, 153, 154, 155, 156, 157, 158, 159],
      "AcquisitionTime": ["155531.742500", "155533.232500", "155534.722500", "155536.212500", "155537.702500", "155539.192500", "155540.682500", "155542.172500", "155543.662500", "155545.152500", "155546.642500", "155548.132500", "155549.622500", "155551.112500", "155552.602500", "155554.092500", "155555.582500", "155557.072500", "155558.562500", "155600.052500", "155601.542500", "155603.032500", "155604.522500", "155606.012500", "155607.502500", "155608.992500", "155610.482500", "155611.972500", "155613.462500", "155614.952500", "155616.442500", "155617.932500", "155619.422500", "155620.912500", "155622.402500", "155623.892500", "155625.382500", "155626.872500", "155628.362500", "155629.852500", "155631.342500", "155632.832500", "155634.322500", "155635.812500", "155637.302500", "155638.792500", "155640.282500", "155641.772500", "155643.262500", "155644.752500", "155646.242500", "155647.732500", "155649.222500", "155650.712500", "155652.202500", "155653.692500", "155655.182500", "155656.672500", "155658.162500", "155659.652500", "155701.142500", "155702.632500", "155704.122500", "155705.612500", "155707.102500", "155708.592500", "155710.082500", "155711.572500", "155713.062500", "155714.552500", "155716.042500", "155717.532500", "155719.022500", "155720.512500", "155722.002500", "155723.492500", "155724.982500", "155726.472500", "155727.962500", "155729.452500", "155730.942500", "155732.432500", "155733.922500", "155735.412500", "155736.902500", "155738.392500", "155739.882500", "155741.372500", "155742.862500", "155744.352500", "155745.842500", "155747.332500", "155748.822500", "155750.312500", "155751.802500", "155753.292500", "155754.782500", "155756.272500", "155757.762500", "155759.252500", "155800.742500", "155802.232500", "155803.722500", "155805.212500", "155806.702500", "155808.192500", "155809.682500", "155811.172500", "155812.662500", "155814.152500", "155815.642500", "155817.132500", "155818.622500", "155820.112500", "155821.602500", "155823.092500", "155824.582500", "155826.072500", "155827.562500", "155829.052500", "155830.542500", "155832.032500", "155833.522500", "155835.012500", "155836.502500", "155837.992500", "155839.482500", "155840.972500", "155842.462500", "155843.952500", "155845.442500", "155846.932500", "155848.422500", "155849.912500", "155851.402500", "155852.892500", "155854.382500", "155855.872500", "155857.362500", "155858.852500", "155900.342500", "155901.832500", "155903.322500", "155904.812500", "155906.302500", "155907.792500", "155909.282500", "155910.772500", "155912.262500", "155913.752500", "155915.242500", "155916.732500", "155918.222500", "155919.712500", "155921.202500", "155922.692500", "155924.182500", "155925.672500", "155927.162500"],
      "ContentTime": ["155648.512000", "155648.515000", "155648.518000", "155648.521000", "155648.523000", "155648.530000", "155648.532000", "155648.535000", "155648.538000", "155648.541000", "155648.544000", "155648.547000", "155648.550000", "155648.552000", "155648.555000", "155648.558000", "155648.561000", "155648.567000", "155648.570000", "155648.573000", "155648.576000", "155648.579000", "155708.472000", "155708.475000", "155708.479000", "155708.482000", "155708.485000", "155708.488000", "155708.491000", "155708.494000", "155708.498000", "155708.501000", "155708.504000", "155708.507000", "155708.511000", "155708.514000", "155708.517000", "155708.520000", "155708.523000", "155708.526000", "155708.529000", "155708.532000", "155728.473000", "155728.476000", "155728.479000", "155728.481000", "155728.484000", "155728.487000", "155728.490000", "155728.493000", "155728.496000", "155728.498000", "155728.501000", "155728.504000", "155728.507000", "155728.510000", "155728.513000", "155728.515000", "155728.518000", "155728.521000", "155728.524000", "155728.527000", "155748.473000", "155748.476000", "155748.478000", "155748.481000", "155748.484000", "155748.487000", "155748.490000", "155748.492000", "155748.495000", "155748.498000", "155748.501000", "155748.503000", "155748.506000", "155748.509000", "155748.512000", "155748.515000", "155748.518000", "155748.520000", "155748.523000", "155748.526000", "155808.473000", "155808.476000", "155808.479000", "155808.482000", "155808.485000", "155808.487000", "155808.490000", "155808.493000", "155808.496000", "155808.499000", "155808.502000", "155808.504000", "155808.507000", "155808.510000", "155808.513000", "155808.516000", "155808.519000", "155808.521000", "155808.524000", "155808.527000", "155848.473000", "155848.476000", "155848.479000", "155848.481000", "155848.484000", "155848.487000", "155848.490000", "155848.493000", "155848.496000", "155848.498000", "155848.501000", "155848.504000", "155848.507000", "155848.509000", "155848.512000", "155848.515000", "155848.518000", "155848.521000", "155848.524000", "155848.526000", "155848.529000", "155848.532000", "155848.535000", "155848.538000", "155848.540000", "155848.543000", "155848.546000", "155848.549000", "155848.552000", "155928.472000", "155928.475000", "155928.478000", "155928.481000", "155928.484000", "155928.487000", "155928.490000", "155928.493000", "155928.496000", "155928.499000", "155928.501000", "155928.504000", "155928.507000", "155928.510000", "155928.513000", "155928.516000", "155928.519000", "155928.522000", "155928.525000", "155928.537000", "155928.540000", "155928.543000", "155928.546000", "155928.549000", "155928.552000", "155928.555000", "155928.558000", "155929.003000"],
      "InstanceCreationTime": ["155648.512000", "155648.515000", "155648.518000", "155648.521000", "155648.523000", "155648.530000", "155648.532000", "155648.535000", "155648.538000", "155648.541000", "155648.544000", "155648.547000", "155648.550000", "155648.552000", "155648.555000", "155648.558000", "155648.561000", "155648.567000", "155648.570000", "155648.573000", "155648.576000", "155648.579000", "155708.472000", "155708.475000", "155708.479000", "155708.482000", "155708.485000", "155708.488000", "155708.491000", "155708.494000", "155708.498000", "155708.501000", "155708.504000", "155708.507000", "155708.511000", "155708.514000", "155708.517000", "155708.520000", "155708.523000", "155708.526000", "155708.529000", "155708.532000", "155728.473000", "155728.476000", "155728.479000", "155728.481000", "155728.484000", "155728.487000", "155728.490000", "155728.493000", "155728.496000", "155728.498000", "155728.501000", "155728.504000", "155728.507000", "155728.510000", "155728.513000", "155728.515000", "155728.518000", "155728.521000", "155728.524000", "155728.527000", "155748.473000", "155748.476000", "155748.478000", "155748.481000", "155748.484000", "155748.487000", "155748.490000", "155748.492000", "155748.495000", "155748.498000", "155748.501000", "155748.503000", "155748.506000", "155748.509000", "155748.512000", "155748.515000", "155748.518000", "155748.520000", "155748.523000", "155748.526000", "155808.473000", "155808.476000", "155808.479000", "155808.482000", "155808.485000", "155808.487000", "155808.490000", "155808.493000", "155808.496000", "155808.499000", "155808.502000", "155808.504000", "155808.507000", "155808.510000", "155808.513000", "155808.516000", "155808.519000", "155808.521000", "155808.524000", "155808.527000", "155848.473000", "155848.476000", "155848.479000", "155848.481000", "155848.484000", "155848.487000", "155848.490000", "155848.493000", "155848.496000", "155848.498000", "155848.501000", "155848.504000", "155848.507000", "155848.509000", "155848.512000", "155848.515000", "155848.518000", "155848.521000", "155848.524000", "155848.526000", "155848.529000", "155848.532000", "155848.535000", "155848.538000", "155848.540000", "155848.543000", "155848.546000", "155848.549000", "155848.552000", "155928.472000", "155928.475000", "155928.478000", "155928.481000", "155928.484000", "155928.487000", "155928.490000", "155928.493000", "155928.496000", "155928.499000", "155928.501000", "155928.504000", "155928.507000", "155928.510000", "155928.513000", "155928.516000", "155928.519000", "155928.522000", "155928.525000", "155928.537000", "155928.540000", "155928.543000", "155928.546000", "155928.549000", "155928.552000", "155928.555000", "155928.558000", "155929.003000"],
      "InstanceNumber": [1, 2, 3, 4, 5, 6, 7, 8, 9, 10, 11, 12, 13, 14, 15, 16, 17, 18, 19, 20, 21, 22, 23, 24, 25, 26, 27, 28, 29, 30, 31, 32, 33, 34, 35, 36, 37, 38, 39, 40, 41, 42, 43, 44, 45, 46, 47, 48, 49, 50, 51, 52, 53, 54, 55, 56, 57, 58, 59, 60, 61, 62, 63, 64, 65, 66, 67, 68, 69, 70, 71, 72, 73, 74, 75, 76, 77, 78, 79, 80, 81, 82, 83, 84, 85, 86, 87, 88, 89, 90, 91, 92, 93, 94, 95, 96, 97, 98, 99, 100, 101, 102, 103, 104, 105, 106, 107, 108, 109, 110, 111, 112, 113, 114, 115, 116, 117, 118, 119, 120, 121, 122, 123, 124, 125, 126, 127, 128, 129, 130, 131, 132, 133, 134, 135, 136, 137, 138, 139, 140, 141, 142, 143, 144, 145, 146, 147, 148, 149, 150, 151, 152, 153, 154, 155, 156, 157, 158, 159],
      "LargestImagePixelValue": [39821, 38936, 38350, 37976, 37600, 37483, 37327, 37065, 37570, 37188, 37276, 37292, 37157, 37428, 37065, 37286, 37582, 37773, 37543, 37602, 37754, 37433, 37622, 37350, 37382, 37203, 37505, 37285, 37418, 36953, 37448, 37571, 37520, 37765, 37356, 37548, 37312, 37619, 37199, 37227, 37664, 37421, 37187, 37414, 37262, 37380, 37252, 37708, 37291, 37413, 37366, 37230, 37512, 37566, 37276, 37227, 37850, 37559, 37500, 37211, 37315, 37471, 37161, 37460, 37469, 37493, 37299, 37495, 37028, 37710, 37144, 37119, 37113, 37265, 37507, 37436, 37184, 37559, 37278, 37289, 37054, 37356, 37627, 37563, 37227, 37214, 37505, 37043, 37300, 37006, 37190, 37253, 37302, 37335, 37157, 36973, 37426, 37384, 37377, 37004, 37662, 37618, 37407, 37324, 37610, 37367, 37131, 37048, 37560, 37132, 37308, 37176, 37303, 37148, 37078, 37219, 37158, 37166, 37450, 37378, 37314, 37088, 37877, 36943, 37686, 37640, 37415, 37371, 37490, 37393, 37455, 37148, 37176, 37399, 37690, 37148, 37141, 37422, 37271, 37404, 37522, 37413, 37117, 37436, 37446, 37230, 37668, 37285, 37215, 37417, 37001, 37423, 36897, 36966, 37249, 36823, 37183, 37035, 37281],
      "WindowCenter": [10035.0, 10004.0, 9999.0, 9992.0, 9992.0, 9991.0, 9981.0, 9958.0, 9949.0, 9939.0, 9929.0, 9929.0, 9927.0, 9936.0, 9944.0, 9952.0, 9937.0, 9933.0, 9923.0, 9933.0, 9944.0, 9954.0, 9946.0, 9940.0, 9930.0, 9935.0, 9945.0, 9948.0, 9946.0, 9938.0, 9945.0, 9961.0, 9964.0, 9972.0, 9968.0, 9956.0, 9939.0, 9936.0, 9944.0, 9955.0, 9963.0, 9956.0, 9946.0, 9951.0, 9946.0, 9946.0, 9946.0, 9952.0, 9956.0, 9954.0, 9945.0, 9936.0, 9942.0, 9945.0, 9949.0, 9946.0, 9944.0, 9935.0, 9937.0, 9935.0, 9945.0, 9955.0, 9967.0, 9957.0, 9954.0, 9939.0, 9938.0, 9936.0, 9938.0, 9944.0, 9933.0, 9923.0, 9920.0, 9911.0, 9919.0, 9928.0, 9931.0, 9934.0, 9929.0, 9935.0, 9931.0, 9928.0, 9935.0, 9945.0, 9954.0, 9950.0, 9941.0, 9940.0, 9947.0, 9941.0, 9939.0, 9937.0, 9938.0, 9940.0, 9940.0, 9934.0, 9931.0, 9955.0, 9973.0, 9961.0, 9945.0, 9929.0, 9920.0, 9926.0, 9935.0, 9938.0, 9932.0, 9922.0, 9920.0, 9912.0, 9921.0, 9921.0, 9922.0, 9924.0, 9924.0, 9922.0, 9915.0, 9922.0, 9928.0, 9938.0, 9940.0, 9939.0, 9936.0, 9922.0, 9928.0, 9928.0, 9937.0, 9937.0, 9937.0, 9930.0, 9929.0, 9930.0, 9932.0, 9947.0, 9955.0, 9939.0, 9922.0, 9913.0, 9903.0, 9904.0, 9917.0, 9931.0, 9937.0, 9937.0, 9930.0, 9938.0, 9937.0, 9922.0, 9911.0, 9912.0, 9914.0, 9923.0, 9918.0, 9918.0, 9935.0, 9943.0, 9943.0, 9942.0, 9932.0],
      "WindowWidth": [21304.0, 21213.0, 21188.0, 21169.0, 21166.0, 21160.0, 21133.0, 21086.0, 21065.0, 21040.0, 21019.0, 21020.0, 21014.0, 21035.0, 21052.0, 21068.0, 21035.0, 21023.0, 21001.0, 21026.0, 21052.0, 21074.0, 21056.0, 21046.0, 21024.0, 21033.0, 21056.0, 21065.0, 21059.0, 21041.0, 21057.0, 21094.0, 21100.0, 21116.0, 21110.0, 21078.0, 21041.0, 21031.0, 21052.0, 21077.0, 21093.0, 21081.0, 21057.0, 21065.0, 21058.0, 21059.0, 21058.0, 21069.0, 21083.0, 21079.0, 21057.0, 21034.0, 21048.0, 21058.0, 21068.0, 21059.0, 21049.0, 21033.0, 21039.0, 21031.0, 21055.0, 21081.0, 21107.0, 21079.0, 21069.0, 21040.0, 21038.0, 21033.0, 21039.0, 21051.0, 21031.0, 21008.0, 20996.0, 20976.0, 20993.0, 21016.0, 21024.0, 21027.0, 21020.0, 21032.0, 21026.0, 21019.0, 21032.0, 21056.0, 21077.0, 21069.0, 21047.0, 21046.0, 21061.0, 21048.0, 21040.0, 21036.0, 21039.0, 21044.0, 21045.0, 21036.0, 21026.0, 21077.0, 21115.0, 21091.0, 21050.0, 21014.0, 20998.0, 21010.0, 21029.0, 21038.0, 21029.0, 21006.0, 20996.0, 20983.0, 21001.0, 21003.0, 21004.0, 21009.0, 21010.0, 21005.0, 20991.0, 21004.0, 21018.0, 21042.0, 21048.0, 21042.0, 21031.0, 21004.0, 21015.0, 21015.0, 21036.0, 21035.0, 21033.0, 21020.0, 21018.0, 21022.0, 21028.0, 21057.0, 21076.0, 21040.0, 21002.0, 20982.0, 20964.0, 20966.0, 20993.0, 21025.0, 21035.0, 21035.0, 21018.0, 21035.0, 21035.0, 21002.0, 20976.0, 20980.0, 20986.0, 21004.0, 20998.0, 20999.0, 21037.0, 21055.0, 21053.0, 21048.0, 21026.0]
    },
    "slices": {}
  }
}