{
  "AcquisitionMatrixPE": 104,
  "AcquisitionNumber": 1,
  "AcquisitionTime": "16:06:32.765000",
  "BandwidthPerPixelPhaseEncode": 17.17,
  "BaseResolution": 104,
  "BodyPartExamined": "BRAIN",
  "CoilString": "HC1-7;NC1_2",
  "ConsistencyInfo": "N4_VE11C_LATEST_20160120",
  "ConversionSoftware": "dcm2niix",
  "ConversionSoftwareVersion": "v1.0.20190720  (JP2:OpenJPEG) GCC7.3.0",
  "DerivedVendorReportedEchoSpacing": 0.000560011,
  "DeviceSerialNumber": "167006",
  "DwellTime": 2.1e-06,
  "EchoTime": 0.037,
  "EchoTrainLength": 104,
  "EffectiveEchoSpacing": 0.000560011,
  "FlipAngle": 52,
  "ImageComments": "Unaliased_MB4_PE3_LB",
  "ImageOrientationPatientDICOM": [0.999771, -0.0170993, 0.0128565, 0.0205931, 0.932034, -0.361785],
  "ImageType": [
    "ORIGINAL",
    "PRIMARY",
    "M",
    "MB",
    "ND",
    "MOSAIC"
],
  "ImagingFrequency": 123.26,
  "InPlanePhaseEncodingDirectionDICOM": "COL",
  "InstitutionAddress": "Chemin_Queen-Mary_4565_Montreal_District_CA_H3W_1W5",
  "InstitutionName": "IUGM",
  "InstitutionalDepartmentName": "Department",
  "MRAcquisitionType": "2D",
  "MagneticFieldStrength": 3,
  "Manufacturer": "Siemens",
  "ManufacturersModelName": "Prisma_fit",
  "Modality": "MR",
  "MultibandAccelerationFactor": 4,
  "PartialFourier": 1,
  "PatientPosition": "HFS",
  "PercentPhaseFOV": 100,
  "PhaseEncodingDirection": "j",
  "PhaseEncodingSteps": 104,
  "PhaseResolution": 1,
  "PixelBandwidth": 2290,
  "ProcedureStepDescription": "hcptrt_generic",
  "ProtocolName": "func_task-social_run-1",
  "PulseSequenceDetails": "%CustomerSeq%_cmrr_mbep2d_bold",
  "ReceiveCoilActiveElements": "HC1-7;NC1,2",
  "ReceiveCoilName": "HeadNeck_64",
  "ReconMatrixPE": 104,
  "RepetitionTime": 1.49,
  "SAR": 0.0284914,
  "ScanOptions": "FS",
  "ScanningSequence": "EP",
  "SequenceName": "epfid2d1_104",
  "SequenceVariant": "SK_SS",
  "SeriesDescription": "func_task-social_run-1",
  "SeriesNumber": 17,
  "ShimSetting": [639, -7131, -8803, 653, 64, 186, 0, -24],
  "SliceThickness": 2,
  "SliceTiming": [0, 0.785, 0.0975, 0.8825, 0.195, 0.98, 0.295, 1.0775, 0.3925, 1.175, 0.49, 1.275, 0.5875, 1.3725, 0.685, 0, 0.785, 0.0975, 0.8825, 0.195, 0.98, 0.295, 1.0775, 0.3925, 1.175, 0.49, 1.275, 0.5875, 1.3725, 0.685, 0, 0.785, 0.0975, 0.8825, 0.195, 0.98, 0.295, 1.0775, 0.3925, 1.175, 0.49, 1.275, 0.5875, 1.3725, 0.685, 0, 0.785, 0.0975, 0.8825, 0.195, 0.98, 0.295, 1.0775, 0.3925, 1.175, 0.49, 1.275, 0.5875, 1.3725, 0.685],
  "SoftwareVersions": "syngo_MR_E11",
  "SpacingBetweenSlices": 2,
  "StationName": "MRC35049",
  "TaskName": "social",
  "TotalReadoutTime": 0.0576811,
  "TxRefAmp": 207.154,
  "WipMemBlock": "a40fecaa-e20a-4394-b892-35d2d3f3034e||Sequence: R016 ve11c/master r/e634e98; Dec 19 2017 11:00:25 by eja",
  "dcmmeta_affine": [
    [-1.999542236328125, 0.041186220943927765, 0.011592795141041279, 104.42868041992188],
    [0.034198567271232605, 1.864067792892456, -0.7239348292350769, -68.28963470458984],
    [0.02571294829249382, 0.7235709428787231, 1.8643455505371094, -66.49678039550781],
    [0.0, 0.0, 0.0, 1.0]
],
  "dcmmeta_reorient_transform": [
    [0.0, -1.0, 0.0, 103.0],
    [1.0, 0.0, 0.0, 0.0],
    [0.0, 0.0, 1.0, 0.0],
    [0.0, 0.0, 0.0, 1.0]
],
  "dcmmeta_shape": [104, 104, 60, 139],
  "dcmmeta_slice_dim": 2,
  "dcmmeta_version": 0.6,
  "global": {
    "const": {
      "AcquisitionMatrix": [104, 0, 0, 104],
      "AngioFlag": "N",
      "BitsAllocated": 16,
      "BitsStored": 16,
      "BodyPartExamined": "BRAIN",
      "Columns": 832,
      "EchoNumbers": 1,
      "EchoTime": 37.0,
      "EchoTrainLength": 104,
      "FlipAngle": 52.0,
      "HighBit": 15,
      "ImageOrientationPatient": [0.99977113658974, -0.0170992840551, 0.01285647412248, 0.02059311096505, 0.9320339063769, -0.3617854628707],
      "ImagePositionPatient": [-851.49603534223, -789.78175811546, 262.05132739099],
      "ImageType": [
        "ORIGINAL",
        "PRIMARY",
        "M",
        "MB",
        "ND",
        "MOSAIC"
],
      "ImagedNucleus": "1H",
      "ImagingFrequency": 123.259604,
      "InPlanePhaseEncodingDirection": "COL",
      "MRAcquisitionType": "2D",
      "MagneticFieldStrength": 3.0,
      "Manufacturer": "SIEMENS",
      "ManufacturerModelName": "Prisma_fit",
      "Modality": "MR",
      "NumberOfAverages": 1.0,
      "NumberOfPhaseEncodingSteps": 104,
      "PercentPhaseFieldOfView": 100.0,
      "PercentSampling": 100.0,
      "PerformedProcedureStepStartTime": "153724.568000",
      "PhotometricInterpretation": "MONOCHROME2",
      "PixelBandwidth": 2290.0,
      "PixelRepresentation": 0,
      "PixelSpacing": [2.0, 2.0],
      "ProtocolName": "func_task-social_run-1",
      "RepetitionTime": 1490.0,
      "Rows": 832,
      "SAR": 0.02849143360915,
      "SamplesPerPixel": 1,
      "ScanOptions": "FS",
      "ScanningSequence": "EP",
      "SequenceName": "epfid2d1_104",
      "SequenceVariant": [
        "SK",
        "SS"
],
      "SeriesDescription": "func_task-social_run-1",
      "SeriesNumber": 17,
      "SeriesTime": "160748.582000",
      "SliceLocation": -36.662554489079,
      "SliceThickness": 2.0,
      "SmallestImagePixelValue": 0,
      "SoftwareVersions": "syngo MR E11",
      "SpacingBetweenSlices": 2.0000000444661,
      "SpecificCharacterSet": "ISO_IR 100",
      "StudyID": "1",
      "StudyTime": "153724.514000",
      "TransmitCoilName": "Body",
      "VariableFlipAngleFlag": "N",
      "WindowCenterWidthExplanation": "Algo1",
      "dBdt": 0.0},
    "slices": {}
  },
  "time": {
    "samples": {
      "AcquisitionNumber": [1, 2, 3, 4, 5, 6, 7, 8, 9, 10, 11, 12, 13, 14, 15, 16, 17, 18, 19, 20, 21, 22, 23, 24, 25, 26, 27, 28, 29, 30, 31, 32, 33, 34, 35, 36, 37, 38, 39, 40, 41, 42, 43, 44, 45, 46, 47, 48, 49, 50, 51, 52, 53, 54, 55, 56, 57, 58, 59, 60, 61, 62, 63, 64, 65, 66, 67, 68, 69, 70, 71, 72, 73, 74, 75, 76, 77, 78, 79, 80, 81, 82, 83, 84, 85, 86, 87, 88, 89, 90, 91, 92, 93, 94, 95, 96, 97, 98, 99, 100, 101, 102, 103, 104, 105, 106, 107, 108, 109, 110, 111, 112, 113, 114, 115, 116, 117, 118, 119, 120, 121, 122, 123, 124, 125, 126, 127, 128, 129, 130, 131, 132, 133, 134, 135, 136, 137, 138, 139],
      "AcquisitionTime": ["160632.765000", "160634.255000", "160635.745000", "160637.235000", "160638.725000", "160640.215000", "160641.705000", "160643.195000", "160644.685000", "160646.175000", "160647.665000", "160649.155000", "160650.645000", "160652.135000", "160653.625000", "160655.115000", "160656.605000", "160658.095000", "160659.585000", "160701.075000", "160702.565000", "160704.055000", "160705.545000", "160707.035000", "160708.525000", "160710.015000", "160711.505000", "160712.995000", "160714.485000", "160715.975000", "160717.465000", "160718.955000", "160720.445000", "160721.935000", "160723.425000", "160724.915000", "160726.405000", "160727.895000", "160729.385000", "160730.875000", "160732.365000", "160733.855000", "160735.345000", "160736.835000", "160738.325000", "160739.815000", "160741.305000", "160742.795000", "160744.285000", "160745.775000", "160747.265000", "160748.755000", "160750.245000", "160751.735000", "160753.225000", "160754.715000", "160756.205000", "160757.695000", "160759.185000", "160800.675000", "160802.165000", "160803.655000", "160805.145000", "160806.635000", "160808.125000", "160809.615000", "160811.105000", "160812.595000", "160814.085000", "160815.575000", "160817.065000", "160818.555000", "160820.045000", "160821.535000", "160823.025000", "160824.515000", "160826.005000", "160827.495000", "160828.985000", "160830.475000", "160831.965000", "160833.455000", "160834.945000", "160836.435000", "160837.925000", "160839.415000", "160840.905000", "160842.395000", "160843.885000", "160845.375000", "160846.865000", "160848.355000", "160849.845000", "160851.335000", "160852.825000", "160854.315000", "160855.805000", "160857.295000", "160858.785000", "160900.275000", "160901.765000", "160903.255000", "160904.745000", "160906.235000", "160907.725000", "160909.215000", "160910.705000", "160912.195000", "160913.685000", "160915.175000", "160916.665000", "160918.155000", "160919.645000", "160921.135000", "160922.625000", "160924.115000", "160925.605000", "160927.095000", "160928.585000", "160930.075000", "160931.565000", "160933.055000", "160934.545000", "160936.035000", "160937.525000", "160939.015000", "160940.505000", "160941.995000", "160943.485000", "160944.975000", "160946.465000", "160947.955000", "160949.445000", "160950.935000", "160952.425000", "160953.915000", "160955.405000", "160956.895000", "160958.385000"],
      "ContentTime": ["160748.585000", "160748.588000", "160748.591000", "160748.594000", "160748.597000", "160748.599000", "160748.602000", "160748.605000", "160748.608000", "160748.611000", "160748.629000", "160748.632000", "160748.635000", "160748.638000", "160748.641000", "160748.643000", "160748.646000", "160748.649000", "160748.652000", "160748.655000", "160748.657000", "160808.553000", "160808.556000", "160808.559000", "160808.561000", "160808.564000", "160808.567000", "160808.570000", "160808.573000", "160808.575000", "160808.578000", "160808.581000", "160808.584000", "160808.587000", "160808.589000", "160808.592000", "160808.595000", "160808.598000", "160808.601000", "160808.604000", "160808.606000", "160828.553000", "160828.556000", "160828.559000", "160828.561000", "160828.564000", "160828.567000", "160828.570000", "160828.573000", "160828.576000", "160828.578000", "160828.581000", "160828.584000", "160828.587000", "160828.590000", "160828.593000", "160828.595000", "160828.598000", "160828.601000", "160828.604000", "160828.607000", "160848.553000", "160848.556000", "160848.559000", "160848.562000", "160848.564000", "160848.567000", "160848.570000", "160848.573000", "160848.576000", "160848.579000", "160848.582000", "160848.586000", "160848.589000", "160848.592000", "160848.595000", "160848.597000", "160848.601000", "160848.603000", "160848.606000", "160848.609000", "160908.554000", "160908.557000", "160908.560000", "160908.563000", "160908.565000", "160908.568000", "160908.571000", "160908.574000", "160908.577000", "160908.580000", "160908.583000", "160908.586000", "160908.588000", "160908.591000", "160908.594000", "160908.597000", "160908.600000", "160908.602000", "160908.605000", "160908.608000", "160908.611000", "160948.553000", "160948.556000", "160948.559000", "160948.562000", "160948.565000", "160948.568000", "160948.571000", "160948.574000", "160948.577000", "160948.580000", "160948.583000", "160948.586000", "160948.589000", "160948.592000", "160948.595000", "160948.598000", "160948.600000", "160948.603000", "160948.606000", "160948.609000", "160948.612000", "160948.614000", "160948.617000", "160948.620000", "160948.623000", "160948.626000", "160948.628000", "160948.631000", "161000.539000", "161000.542000", "161000.545000", "161000.547000", "161000.550000", "161000.553000", "161000.556000", "161000.559000", "161000.562000"],
      "InstanceCreationTime": ["160748.585000", "160748.588000", "160748.591000", "160748.594000", "160748.597000", "160748.599000", "160748.602000", "160748.605000", "160748.608000", "160748.611000", "160748.629000", "160748.632000", "160748.635000", "160748.638000", "160748.641000", "160748.643000", "160748.646000", "160748.649000", "160748.652000", "160748.655000", "160748.657000", "160808.553000", "160808.556000", "160808.559000", "160808.561000", "160808.564000", "160808.567000", "160808.570000", "160808.573000", "160808.575000", "160808.578000", "160808.581000", "160808.584000", "160808.587000", "160808.589000", "160808.592000", "160808.595000", "160808.598000", "160808.601000", "160808.604000", "160808.606000", "160828.553000", "160828.556000", "160828.559000", "160828.561000", "160828.564000", "160828.567000", "160828.570000", "160828.573000", "160828.576000", "160828.578000", "160828.581000", "160828.584000", "160828.587000", "160828.590000", "160828.593000", "160828.595000", "160828.598000", "160828.601000", "160828.604000", "160828.607000", "160848.553000", "160848.556000", "160848.559000", "160848.562000", "160848.564000", "160848.567000", "160848.570000", "160848.573000", "160848.576000", "160848.579000", "160848.582000", "160848.586000", "160848.589000", "160848.592000", "160848.595000", "160848.597000", "160848.601000", "160848.603000", "160848.606000", "160848.609000", "160908.554000", "160908.557000", "160908.560000", "160908.563000", "160908.565000", "160908.568000", "160908.571000", "160908.574000", "160908.577000", "160908.580000", "160908.583000", "160908.586000", "160908.588000", "160908.591000", "160908.594000", "160908.597000", "160908.600000", "160908.602000", "160908.605000", "160908.608000", "160908.611000", "160948.553000", "160948.556000", "160948.559000", "160948.562000", "160948.565000", "160948.568000", "160948.571000", "160948.574000", "160948.577000", "160948.580000", "160948.583000", "160948.586000", "160948.589000", "160948.592000", "160948.595000", "160948.598000", "160948.600000", "160948.603000", "160948.606000", "160948.609000", "160948.612000", "160948.614000", "160948.617000", "160948.620000", "160948.623000", "160948.626000", "160948.628000", "160948.631000", "161000.539000", "161000.542000", "161000.545000", "161000.547000", "161000.550000", "161000.553000", "161000.556000", "161000.559000", "161000.562000"],
      "InstanceNumber": [1, 2, 3, 4, 5, 6, 7, 8, 9, 10, 11, 12, 13, 14, 15, 16, 17, 18, 19, 20, 21, 22, 23, 24, 25, 26, 27, 28, 29, 30, 31, 32, 33, 34, 35, 36, 37, 38, 39, 40, 41, 42, 43, 44, 45, 46, 47, 48, 49, 50, 51, 52, 53, 54, 55, 56, 57, 58, 59, 60, 61, 62, 63, 64, 65, 66, 67, 68, 69, 70, 71, 72, 73, 74, 75, 76, 77, 78, 79, 80, 81, 82, 83, 84, 85, 86, 87, 88, 89, 90, 91, 92, 93, 94, 95, 96, 97, 98, 99, 100, 101, 102, 103, 104, 105, 106, 107, 108, 109, 110, 111, 112, 113, 114, 115, 116, 117, 118, 119, 120, 121, 122, 123, 124, 125, 126, 127, 128, 129, 130, 131, 132, 133, 134, 135, 136, 137, 138, 139],
      "LargestImagePixelValue": [39417, 38669, 37681, 37149, 37120, 37287, 37402, 37307, 36818, 36731, 36965, 37130, 37091, 37634, 37323, 37155, 37123, 37158, 36640, 36949, 37313, 37586, 37025, 37145, 37290, 37197, 36707, 36986, 36764, 36990, 37098, 37027, 37192, 37256, 37088, 37322, 37574, 37430, 37450, 36771, 36955, 37225, 37310, 37389, 37377, 36688, 37158, 36926, 37353, 36953, 36930, 36657, 37641, 36973, 36864, 37074, 37210, 36849, 36754, 36967, 36692, 37099, 37295, 36799, 37137, 36913, 37254, 37046, 37243, 36864, 36860, 37133, 37158, 36808, 37154, 37306, 36773, 37028, 36576, 36763, 36884, 36715, 36573, 37230, 37145, 36923, 36959, 36757, 37178, 37179, 36968, 36916, 36908, 36841, 36899, 37115, 36990, 36902, 36927, 37442, 36903, 36563, 36992, 36893, 36940, 36942, 36685, 36919, 36460, 36715, 37273, 36974, 37160, 37089, 37257, 36756, 37079, 36988, 37180, 36765, 36947, 37134, 36880, 36891, 36566, 36975, 36847, 36749, 36891, 37154, 37375, 37100, 37189, 37414, 37147, 36991, 37236, 36542, 36672],
      "WindowCenter": [10040.0, 10010.0, 9986.0, 9968.0, 9966.0, 9971.0, 9989.0, 9989.0, 9977.0, 9950.0, 9945.0, 9935.0, 9934.0, 9949.0, 9959.0, 9962.0, 9956.0, 9963.0, 9972.0, 9989.0, 9981.0, 9970.0, 9954.0, 9955.0, 9961.0, 9955.0, 9938.0, 9921.0, 9928.0, 9934.0, 9945.0, 9930.0, 9921.0, 9911.0, 9901.0, 9915.0, 9928.0, 9950.0, 9968.0, 9955.0, 9941.0, 9944.0, 9959.0, 9962.0, 9972.0, 9959.0, 9962.0, 9958.0, 9973.0, 9967.0, 9949.0, 9937.0, 9939.0, 9945.0, 9955.0, 9970.0, 9967.0, 9957.0, 9947.0, 9944.0, 9946.0, 9939.0, 9946.0, 9941.0, 9949.0, 9947.0, 9939.0, 9954.0, 9971.0, 9967.0, 9958.0, 9956.0, 9955.0, 9965.0, 9974.0, 9973.0, 9951.0, 9947.0, 9942.0, 9933.0, 9940.0, 9932.0, 9923.0, 9927.0, 9945.0, 9951.0, 9941.0, 9941.0, 9938.0, 9955.0, 9955.0, 9950.0, 9941.0, 9941.0, 9950.0, 9954.0, 9954.0, 9958.0, 9983.0, 10008.0, 9988.0, 9956.0, 9940.0, 9923.0, 9923.0, 9923.0, 9932.0, 9926.0, 9925.0, 9915.0, 9920.0, 9920.0, 9929.0, 9938.0, 9931.0, 9931.0, 9928.0, 9939.0, 9957.0, 9959.0, 9953.0, 9942.0, 9950.0, 9973.0, 9981.0, 9970.0, 9944.0, 9924.0, 9911.0, 9917.0, 9916.0, 9912.0, 9919.0, 9926.0, 9938.0, 9939.0, 9949.0, 9935.0, 9933.0],
      "WindowWidth": [21314.0, 21223.0, 21162.0, 21114.0, 21106.0, 21115.0, 21151.0, 21150.0, 21125.0, 21064.0, 21049.0, 21027.0, 21025.0, 21059.0, 21081.0, 21092.0, 21083.0, 21095.0, 21118.0, 21155.0, 21134.0, 21106.0, 21069.0, 21074.0, 21088.0, 21077.0, 21039.0, 21001.0, 21015.0, 21027.0, 21050.0, 21018.0, 20997.0, 20977.0, 20953.0, 20982.0, 21011.0, 21064.0, 21102.0, 21075.0, 21047.0, 21047.0, 21080.0, 21091.0, 21115.0, 21088.0, 21091.0, 21085.0, 21115.0, 21102.0, 21061.0, 21031.0, 21032.0, 21051.0, 21076.0, 21107.0, 21103.0, 21079.0, 21052.0, 21045.0, 21052.0, 21038.0, 21055.0, 21047.0, 21062.0, 21058.0, 21037.0, 21069.0, 21108.0, 21102.0, 21083.0, 21078.0, 21076.0, 21101.0, 21119.0, 21115.0, 21066.0, 21055.0, 21046.0, 21025.0, 21043.0, 21024.0, 21004.0, 21009.0, 21049.0, 21070.0, 21046.0, 21042.0, 21034.0, 21074.0, 21076.0, 21065.0, 21044.0, 21045.0, 21065.0, 21072.0, 21070.0, 21083.0, 21139.0, 21192.0, 21149.0, 21081.0, 21036.0, 21002.0, 21003.0, 21001.0, 21024.0, 21012.0, 21007.0, 20982.0, 20990.0, 20993.0, 21015.0, 21035.0, 21023.0, 21023.0, 21013.0, 21040.0, 21080.0, 21087.0, 21075.0, 21048.0, 21066.0, 21115.0, 21138.0, 21106.0, 21046.0, 20999.0, 20968.0, 20982.0, 20977.0, 20976.0, 20989.0, 21002.0, 21034.0, 21037.0, 21058.0, 21031.0, 21026.0]
    },
    "slices": {}
  }
}