{
  "AcquisitionMatrixPE": 104,
  "AcquisitionNumber": 1,
  "AcquisitionTime": "16:00:33.955000",
  "BandwidthPerPixelPhaseEncode": 17.17,
  "BaseResolution": 104,
  "BodyPartExamined": "BRAIN",
  "CoilString": "HC1-7;NC1_2",
  "ConsistencyInfo": "N4_VE11C_LATEST_20160120",
  "ConversionSoftware": "dcm2niix",
  "ConversionSoftwareVersion": "v1.0.20190720  (JP2:OpenJPEG) GCC7.3.0",
  "DerivedVendorReportedEchoSpacing": 0.000560011,
  "DeviceSerialNumber": "167006",
  "DwellTime": 2.1e-06,
  "EchoTime": 0.037,
  "EchoTrainLength": 104,
  "EffectiveEchoSpacing": 0.000560011,
  "FlipAngle": 52,
  "ImageComments": "Unaliased_MB4_PE3_LB",
  "ImageOrientationPatientDICOM": [0.999771, -0.0170993, 0.0128565, 0.0205931, 0.932034, -0.361785],
  "ImageType": [
    "ORIGINAL",
    "PRIMARY",
    "M",
    "MB",
    "ND",
    "MOSAIC"
],
  "ImagingFrequency": 123.26,
  "InPlanePhaseEncodingDirectionDICOM": "COL",
  "InstitutionAddress": "Chemin_Queen-Mary_4565_Montreal_District_CA_H3W_1W5",
  "InstitutionName": "IUGM",
  "InstitutionalDepartmentName": "Department",
  "MRAcquisitionType": "2D",
  "MagneticFieldStrength": 3,
  "Manufacturer": "Siemens",
  "ManufacturersModelName": "Prisma_fit",
  "Modality": "MR",
  "MultibandAccelerationFactor": 4,
  "PartialFourier": 1,
  "PatientPosition": "HFS",
  "PercentPhaseFOV": 100,
  "PhaseEncodingDirection": "j",
  "PhaseEncodingSteps": 104,
  "PhaseResolution": 1,
  "PixelBandwidth": 2290,
  "ProcedureStepDescription": "hcptrt_generic",
  "ProtocolName": "func_task-wm_run-1",
  "PulseSequenceDetails": "%CustomerSeq%_cmrr_mbep2d_bold",
  "ReceiveCoilActiveElements": "HC1-7;NC1,2",
  "ReceiveCoilName": "HeadNeck_64",
  "ReconMatrixPE": 104,
  "RepetitionTime": 1.49,
  "SAR": 0.0286123,
  "ScanOptions": "FS",
  "ScanningSequence": "EP",
  "SequenceName": "epfid2d1_104",
  "SequenceVariant": "SK_SS",
  "SeriesDescription": "func_task-wm_run-1",
  "SeriesNumber": 15,
  "ShimSetting": [639, -7131, -8803, 653, 64, 186, 0, -24],
  "SliceThickness": 2,
  "SliceTiming": [0, 0.785, 0.0975, 0.8825, 0.195, 0.98, 0.295, 1.0775, 0.3925, 1.175, 0.49, 1.275, 0.5875, 1.3725, 0.685, 0, 0.785, 0.0975, 0.8825, 0.195, 0.98, 0.295, 1.0775, 0.3925, 1.175, 0.49, 1.275, 0.5875, 1.3725, 0.685, 0, 0.785, 0.0975, 0.8825, 0.195, 0.98, 0.295, 1.0775, 0.3925, 1.175, 0.49, 1.275, 0.5875, 1.3725, 0.685, 0, 0.785, 0.0975, 0.8825, 0.195, 0.98, 0.295, 1.0775, 0.3925, 1.175, 0.49, 1.275, 0.5875, 1.3725, 0.685],
  "SoftwareVersions": "syngo_MR_E11",
  "SpacingBetweenSlices": 2,
  "StationName": "MRC35049",
  "TaskName": "wm",
  "TotalReadoutTime": 0.0576811,
  "TxRefAmp": 207.154,
  "WipMemBlock": "65d10469-251d-444a-874c-2f59e0fbdcb1||Sequence: R016 ve11c/master r/e634e98; Dec 19 2017 11:00:25 by eja",
  "dcmmeta_affine": [
    [-1.999542236328125, 0.041186220943927765, 0.011592795141041279, 104.42868041992188],
    [0.034198567271232605, 1.864067792892456, -0.7239348292350769, -68.28963470458984],
    [0.02571294829249382, 0.7235709428787231, 1.8643455505371094, -66.49678039550781],
    [0.0, 0.0, 0.0, 1.0]
],
  "dcmmeta_reorient_transform": [
    [0.0, -1.0, 0.0, 103.0],
    [1.0, 0.0, 0.0, 0.0],
    [0.0, 0.0, 1.0, 0.0],
    [0.0, 0.0, 0.0, 1.0]
],
  "dcmmeta_shape": [104, 104, 60, 202],
  "dcmmeta_slice_dim": 2,
  "dcmmeta_version": 0.6,
  "global": {
    "const": {
      "AcquisitionMatrix": [104, 0, 0, 104],
      "AngioFlag": "N",
      "BitsAllocated": 16,
      "BitsStored": 16,
      "BodyPartExamined": "BRAIN",
      "Columns": 832,
      "EchoNumbers": 1,
      "EchoTime": 37.0,
      "EchoTrainLength": 104,
      "FlipAngle": 52.0,
      "HighBit": 15,
      "ImageOrientationPatient": [0.99977113658974, -0.0170992840551, 0.01285647412248, 0.02059311096505, 0.9320339063769, -0.3617854628707],
      "ImagePositionPatient": [-851.49603534223, -789.78175811546, 262.05132739099],
      "ImageType": [
        "ORIGINAL",
        "PRIMARY",
        "M",
        "MB",
        "ND",
        "MOSAIC"
],
      "ImagedNucleus": "1H",
      "ImagingFrequency": 123.259602,
      "InPlanePhaseEncodingDirection": "COL",
      "MRAcquisitionType": "2D",
      "MagneticFieldStrength": 3.0,
      "Manufacturer": "SIEMENS",
      "ManufacturerModelName": "Prisma_fit",
      "Modality": "MR",
      "NumberOfAverages": 1.0,
      "NumberOfPhaseEncodingSteps": 104,
      "PercentPhaseFieldOfView": 100.0,
      "PercentSampling": 100.0,
      "PerformedProcedureStepStartTime": "153724.568000",
      "PhotometricInterpretation": "MONOCHROME2",
      "PixelBandwidth": 2290.0,
      "PixelRepresentation": 0,
      "PixelSpacing": [2.0, 2.0],
      "ProtocolName": "func_task-wm_run-1",
      "RepetitionTime": 1490.0,
      "Rows": 832,
      "SAR": 0.0286122979252,
      "SamplesPerPixel": 1,
      "ScanOptions": "FS",
      "ScanningSequence": "EP",
      "SequenceName": "epfid2d1_104",
      "SequenceVariant": [
        "SK",
        "SS"
],
      "SeriesDescription": "func_task-wm_run-1",
      "SeriesNumber": 15,
      "SeriesTime": "160153.373000",
      "SliceLocation": -36.662554489079,
      "SliceThickness": 2.0,
      "SmallestImagePixelValue": 0,
      "SoftwareVersions": "syngo MR E11",
      "SpacingBetweenSlices": 2.0000000444661,
      "SpecificCharacterSet": "ISO_IR 100",
      "StudyID": "1",
      "StudyTime": "153724.514000",
      "TransmitCoilName": "Body",
      "VariableFlipAngleFlag": "N",
      "WindowCenterWidthExplanation": "Algo1",
      "dBdt": 0.0},
    "slices": {}
  },
  "time": {
    "samples": {
      "AcquisitionNumber": [1, 2, 3, 4, 5, 6, 7, 8, 9, 10, 11, 12, 13, 14, 15, 16, 17, 18, 19, 20, 21, 22, 23, 24, 25, 26, 27, 28, 29, 30, 31, 32, 33, 34, 35, 36, 37, 38, 39, 40, 41, 42, 43, 44, 45, 46, 47, 48, 49, 50, 51, 52, 53, 54, 55, 56, 57, 58, 59, 60, 61, 62, 63, 64, 65, 66, 67, 68, 69, 70, 71, 72, 73, 74, 75, 76, 77, 78, 79, 80, 81, 82, 83, 84, 85, 86, 87, 88, 89, 90, 91, 92, 93, 94, 95, 96, 97, 98, 99, 100, 101, 102, 103, 104, 105, 106, 107, 108, 109, 110, 111, 112, 113, 114, 115, 116, 117, 118, 119, 120, 121, 122, 123, 124, 125, 126, 127, 128, 129, 130, 131, 132, 133, 134, 135, 136, 137, 138, 139, 140, 141, 142, 143, 144, 145, 146, 147, 148, 149, 150, 151, 152, 153, 154, 155, 156, 157, 158, 159, 160, 161, 162, 163, 164, 165, 166, 167, 168, 169, 170, 171, 172, 173, 174, 175, 176, 177, 178, 179, 180, 181, 182, 183, 184, 185, 186, 187, 188, 189, 190, 191, 192, 193, 194, 195, 196, 197, 198, 199, 200, 201, 202],
      "AcquisitionTime": ["160033.955000", "160035.445000", "160036.935000", "160038.425000", "160039.915000", "160041.405000", "160042.895000", "160044.385000", "160045.875000", "160047.365000", "160048.855000", "160050.345000", "160051.835000", "160053.325000", "160054.815000", "160056.305000", "160057.795000", "160059.285000", "160100.775000", "160102.265000", "160103.755000", "160105.245000", "160106.735000", "160108.225000", "160109.715000", "160111.205000", "160112.695000", "160114.185000", "160115.675000", "160117.165000", "160118.655000", "160120.145000", "160121.635000", "160123.125000", "160124.615000", "160126.105000", "160127.595000", "160129.085000", "160130.575000", "160132.065000", "160133.555000", "160135.045000", "160136.535000", "160138.025000", "160139.515000", "160141.005000", "160142.495000", "160143.985000", "160145.475000", "160146.965000", "160148.455000", "160149.945000", "160151.435000", "160152.925000", "160154.415000", "160155.905000", "160157.395000", "160158.885000", "160200.375000", "160201.865000", "160203.355000", "160204.845000", "160206.335000", "160207.825000", "160209.315000", "160210.805000", "160212.295000", "160213.785000", "160215.275000", "160216.765000", "160218.255000", "160219.745000", "160221.235000", "160222.725000", "160224.215000", "160225.705000", "160227.195000", "160228.685000", "160230.175000", "160231.665000", "160233.155000", "160234.645000", "160236.135000", "160237.625000", "160239.115000", "160240.605000", "160242.095000", "160243.585000", "160245.075000", "160246.565000", "160248.055000", "160249.545000", "160251.035000", "160252.525000", "160254.015000", "160255.505000", "160256.995000", "160258.485000", "160259.975000", "160301.465000", "160302.955000", "160304.445000", "160305.935000", "160307.425000", "160308.915000", "160310.405000", "160311.895000", "160313.385000", "160314.875000", "160316.365000", "160317.855000", "160319.345000", "160320.835000", "160322.325000", "160323.815000", "160325.305000", "160326.795000", "160328.285000", "160329.775000", "160331.265000", "160332.755000", "160334.245000", "160335.735000", "160337.225000", "160338.715000", "160340.205000", "160341.695000", "160343.185000", "160344.675000", "160346.165000", "160347.655000", "160349.145000", "160350.635000", "160352.125000", "160353.615000", "160355.105000", "160356.595000", "160358.085000", "160359.575000", "160401.065000", "160402.555000", "160404.045000", "160405.535000", "160407.025000", "160408.515000", "160410.005000", "160411.495000", "160412.985000", "160414.475000", "160415.965000", "160417.455000", "160418.945000", "160420.435000", "160421.925000", "160423.415000", "160424.905000", "160426.395000", "160427.885000", "160429.375000", "160430.865000", "160432.355000", "160433.845000", "160435.335000", "160436.825000", "160438.315000", "160439.805000", "160441.295000", "160442.785000", "160444.275000", "160445.765000", "160447.255000", "160448.745000", "160450.235000", "160451.725000", "160453.215000", "160454.705000", "160456.195000", "160457.685000", "160459.175000", "160500.665000", "160502.155000", "160503.645000", "160505.135000", "160506.625000", "160508.115000", "160509.605000", "160511.095000", "160512.585000", "160514.075000", "160515.565000", "160517.055000", "160518.545000", "160520.035000", "160521.525000", "160523.015000", "160524.505000", "160525.995000", "160527.485000", "160528.975000", "160530.465000", "160531.955000", "160533.445000"],
      "ContentTime": ["160153.375000", "160153.379000", "160153.382000", "160153.384000", "160153.387000", "160153.390000", "160153.393000", "160153.396000", "160153.399000", "160153.407000", "160153.410000", "160153.413000", "160153.416000", "160153.419000", "160153.422000", "160153.433000", "160153.436000", "160153.439000", "160153.442000", "160153.444000", "160153.447000", "160153.450000", "160153.453000", "160213.316000", "160213.319000", "160213.322000", "160213.325000", "160213.333000", "160213.336000", "160213.339000", "160213.342000", "160213.351000", "160213.353000", "160213.356000", "160213.359000", "160213.362000", "160213.365000", "160213.368000", "160213.371000", "160213.373000", "160213.376000", "160213.379000", "160213.382000", "160213.385000", "160233.316000", "160233.319000", "160233.322000", "160233.325000", "160233.327000", "160233.330000", "160233.333000", "160233.336000", "160233.339000", "160233.341000", "160233.344000", "160233.347000", "160233.350000", "160233.352000", "160233.355000", "160233.358000", "160233.361000", "160233.365000", "160233.368000", "160233.371000", "160253.316000", "160253.319000", "160253.322000", "160253.324000", "160253.327000", "160253.330000", "160253.333000", "160253.335000", "160253.338000", "160253.341000", "160253.344000", "160253.347000", "160253.349000", "160253.352000", "160253.355000", "160253.358000", "160253.361000", "160253.363000", "160253.366000", "160253.369000", "160313.316000", "160313.319000", "160313.322000", "160313.325000", "160313.327000", "160313.330000", "160313.333000", "160313.336000", "160313.339000", "160313.341000", "160313.344000", "160313.347000", "160313.350000", "160313.353000", "160313.355000", "160313.362000", "160313.365000", "160313.368000", "160313.371000", "160313.374000", "160353.317000", "160353.320000", "160353.323000", "160353.325000", "160353.328000", "160353.331000", "160353.334000", "160353.336000", "160353.339000", "160353.342000", "160353.345000", "160353.348000", "160353.350000", "160353.353000", "160353.356000", "160353.359000", "160353.362000", "160353.364000", "160353.367000", "160353.370000", "160353.373000", "160353.375000", "160353.378000", "160353.381000", "160353.388000", "160353.391000", "160353.394000", "160353.397000", "160353.400000", "160433.316000", "160433.319000", "160433.322000", "160433.325000", "160433.327000", "160433.330000", "160433.333000", "160433.336000", "160433.339000", "160433.341000", "160433.344000", "160433.347000", "160433.350000", "160433.353000", "160433.355000", "160433.358000", "160433.361000", "160433.364000", "160433.367000", "160433.370000", "160433.372000", "160433.375000", "160433.378000", "160433.381000", "160433.384000", "160433.386000", "160433.389000", "160513.316000", "160513.319000", "160513.322000", "160513.325000", "160513.327000", "160513.330000", "160513.333000", "160513.336000", "160513.339000", "160513.341000", "160513.344000", "160513.347000", "160513.350000", "160513.353000", "160513.355000", "160513.358000", "160513.361000", "160513.364000", "160513.367000", "160513.370000", "160513.372000", "160513.375000", "160513.378000", "160513.381000", "160513.384000", "160513.387000", "160535.794000", "160535.797000", "160535.800000", "160535.803000", "160535.806000", "160535.809000", "160535.812000", "160535.815000", "160535.817000", "160535.831000", "160535.835000", "160535.838000", "160535.841000", "160535.844000", "160535.847000", "160535.850000"],
      "InstanceCreationTime": ["160153.375000", "160153.379000", "160153.382000", "160153.384000", "160153.387000", "160153.390000", "160153.393000", "160153.396000", "160153.399000", "160153.407000", "160153.410000", "160153.413000", "160153.416000", "160153.419000", "160153.422000", "160153.433000", "160153.436000", "160153.439000", "160153.442000", "160153.444000", "160153.447000", "160153.450000", "160153.453000", "160213.316000", "160213.319000", "160213.322000", "160213.325000", "160213.333000", "160213.336000", "160213.339000", "160213.342000", "160213.351000", "160213.353000", "160213.356000", "160213.359000", "160213.362000", "160213.365000", "160213.368000", "160213.371000", "160213.373000", "160213.376000", "160213.379000", "160213.382000", "160213.385000", "160233.316000", "160233.319000", "160233.322000", "160233.325000", "160233.327000", "160233.330000", "160233.333000", "160233.336000", "160233.339000", "160233.341000", "160233.344000", "160233.347000", "160233.350000", "160233.352000", "160233.355000", "160233.358000", "160233.361000", "160233.365000", "160233.368000", "160233.371000", "160253.316000", "160253.319000", "160253.322000", "160253.324000", "160253.327000", "160253.330000", "160253.333000", "160253.335000", "160253.338000", "160253.341000", "160253.344000", "160253.347000", "160253.349000", "160253.352000", "160253.355000", "160253.358000", "160253.361000", "160253.363000", "160253.366000", "160253.369000", "160313.316000", "160313.319000", "160313.322000", "160313.325000", "160313.327000", "160313.330000", "160313.333000", "160313.336000", "160313.339000", "160313.341000", "160313.344000", "160313.347000", "160313.350000", "160313.353000", "160313.355000", "160313.362000", "160313.365000", "160313.368000", "160313.371000", "160313.374000", "160353.317000", "160353.320000", "160353.323000", "160353.325000", "160353.328000", "160353.331000", "160353.334000", "160353.336000", "160353.339000", "160353.342000", "160353.345000", "160353.348000", "160353.350000", "160353.353000", "160353.356000", "160353.359000", "160353.362000", "160353.364000", "160353.367000", "160353.370000", "160353.373000", "160353.375000", "160353.378000", "160353.381000", "160353.388000", "160353.391000", "160353.394000", "160353.397000", "160353.400000", "160433.316000", "160433.319000", "160433.322000", "160433.325000", "160433.327000", "160433.330000", "160433.333000", "160433.336000", "160433.339000", "160433.341000", "160433.344000", "160433.347000", "160433.350000", "160433.353000", "160433.355000", "160433.358000", "160433.361000", "160433.364000", "160433.367000", "160433.370000", "160433.372000", "160433.375000", "160433.378000", "160433.381000", "160433.384000", "160433.386000", "160433.389000", "160513.316000", "160513.319000", "160513.322000", "160513.325000", "160513.327000", "160513.330000", "160513.333000", "160513.336000", "160513.339000", "160513.341000", "160513.344000", "160513.347000", "160513.350000", "160513.353000", "160513.355000", "160513.358000", "160513.361000", "160513.364000", "160513.367000", "160513.370000", "160513.372000", "160513.375000", "160513.378000", "160513.381000", "160513.384000", "160513.387000", "160535.794000", "160535.797000", "160535.800000", "160535.803000", "160535.806000", "160535.809000", "160535.812000", "160535.815000", "160535.817000", "160535.831000", "160535.835000", "160535.838000", "160535.841000", "160535.844000", "160535.847000", "160535.850000"],
      "InstanceNumber": [1, 2, 3, 4, 5, 6, 7, 8, 9, 10, 11, 12, 13, 14, 15, 16, 17, 18, 19, 20, 21, 22, 23, 24, 25, 26, 27, 28, 29, 30, 31, 32, 33, 34, 35, 36, 37, 38, 39, 40, 41, 42, 43, 44, 45, 46, 47, 48, 49, 50, 51, 52, 53, 54, 55, 56, 57, 58, 59, 60, 61, 62, 63, 64, 65, 66, 67, 68, 69, 70, 71, 72, 73, 74, 75, 76, 77, 78, 79, 80, 81, 82, 83, 84, 85, 86, 87, 88, 89, 90, 91, 92, 93, 94, 95, 96, 97, 98, 99, 100, 101, 102, 103, 104, 105, 106, 107, 108, 109, 110, 111, 112, 113, 114, 115, 116, 117, 118, 119, 120, 121, 122, 123, 124, 125, 126, 127, 128, 129, 130, 131, 132, 133, 134, 135, 136, 137, 138, 139, 140, 141, 142, 143, 144, 145, 146, 147, 148, 149, 150, 151, 152, 153, 154, 155, 156, 157, 158, 159, 160, 161, 162, 163, 164, 165, 166, 167, 168, 169, 170, 171, 172, 173, 174, 175, 176, 177, 178, 179, 180, 181, 182, 183, 184, 185, 186, 187, 188, 189, 190, 191, 192, 193, 194, 195, 196, 197, 198, 199, 200, 201, 202],
      "LargestImagePixelValue": [40423, 39040, 38363, 38805, 37477, 37946, 38078, 37227, 37397, 37503, 37172, 37577, 37499, 37523, 37159, 37095, 37619, 37268, 37454, 37139, 37596, 37410, 37113, 37480, 37280, 37361, 37567, 37377, 37166, 37439, 37571, 37035, 36885, 37706, 37369, 37555, 36974, 37058, 37554, 37143, 37648, 37394, 37516, 37523, 37471, 37640, 37482, 37293, 37079, 37400, 37019, 37296, 37223, 37257, 37139, 37387, 37435, 37829, 37230, 37687, 37082, 37768, 37581, 37450, 37503, 37951, 37901, 37628, 37324, 37525, 37063, 37217, 37580, 37055, 37418, 37192, 37333, 37446, 37273, 37523, 37098, 37083, 37302, 37682, 37307, 37071, 37269, 37199, 36962, 37321, 37430, 37092, 37185, 37180, 37209, 37639, 37279, 37233, 37277, 37412, 37025, 37416, 37315, 37027, 37088, 37117, 37086, 37056, 37039, 37389, 36948, 37239, 37108, 37363, 36713, 37291, 37291, 37180, 37085, 37057, 37316, 37214, 37014, 37319, 37376, 37564, 37569, 37347, 37133, 37007, 37338, 37130, 37332, 37080, 37279, 37495, 36970, 37217, 37621, 37388, 37300, 37480, 37560, 37003, 37099, 37262, 37490, 37051, 37314, 37041, 36872, 37042, 36993, 36899, 36866, 37039, 37000, 37486, 36725, 36844, 36971, 37427, 37077, 37226, 37083, 37231, 37313, 37145, 36688, 37337, 37070, 37191, 37119, 36930, 36888, 36776, 37133, 37102, 37025, 37024, 36916, 37136, 37331, 36916, 37053, 37071, 37078, 37202, 37119, 37121, 37083, 36975, 36930, 37123, 36964, 37477, 37266, 37311, 36840, 37132, 36870, 37255],
      "WindowCenter": [10020.0, 9994.0, 9961.0, 9952.0, 9946.0, 9953.0, 9953.0, 9959.0, 9959.0, 9958.0, 9944.0, 9950.0, 9948.0, 9951.0, 9950.0, 9945.0, 9947.0, 9933.0, 9931.0, 9923.0, 9922.0, 9931.0, 9933.0, 9929.0, 9923.0, 9911.0, 9912.0, 9926.0, 9941.0, 9941.0, 9939.0, 9924.0, 9916.0, 9928.0, 9938.0, 9948.0, 9952.0, 9951.0, 9942.0, 9924.0, 9913.0, 9920.0, 9922.0, 9936.0, 9939.0, 9937.0, 9928.0, 9915.0, 9912.0, 9919.0, 9932.0, 9928.0, 9922.0, 9904.0, 9919.0, 9939.0, 9957.0, 9958.0, 9953.0, 9943.0, 9935.0, 9930.0, 9932.0, 9940.0, 9949.0, 9947.0, 9940.0, 9941.0, 9934.0, 9932.0, 9933.0, 9942.0, 9947.0, 9950.0, 9949.0, 9950.0, 9957.0, 9952.0, 9936.0, 9933.0, 9932.0, 9931.0, 9938.0, 9938.0, 9939.0, 9927.0, 9916.0, 9915.0, 9914.0, 9915.0, 9914.0, 9914.0, 9915.0, 9916.0, 9916.0, 9931.0, 9917.0, 9915.0, 9908.0, 9920.0, 9925.0, 9931.0, 9933.0, 9926.0, 9927.0, 9924.0, 9928.0, 9926.0, 9919.0, 9924.0, 9926.0, 9927.0, 9935.0, 9934.0, 9928.0, 9925.0, 9925.0, 9926.0, 9927.0, 9940.0, 9933.0, 9927.0, 9926.0, 9932.0, 9940.0, 9934.0, 9932.0, 9931.0, 9927.0, 9925.0, 9934.0, 9926.0, 9933.0, 9933.0, 9928.0, 9932.0, 9933.0, 9935.0, 9951.0, 9962.0, 9960.0, 9943.0, 9925.0, 9918.0, 9916.0, 9917.0, 9930.0, 9941.0, 9949.0, 9943.0, 9945.0, 9952.0, 9953.0, 9948.0, 9939.0, 9946.0, 9952.0, 9952.0, 9941.0, 9931.0, 9919.0, 9915.0, 9917.0, 9927.0, 9926.0, 9919.0, 9925.0, 9916.0, 9917.0, 9922.0, 9934.0, 9936.0, 9947.0, 9939.0, 9936.0, 9931.0, 9928.0, 9925.0, 9925.0, 9925.0, 9920.0, 9925.0, 9934.0, 9919.0, 9923.0, 9923.0, 9932.0, 9927.0, 9917.0, 9925.0, 9927.0, 9926.0, 9917.0, 9925.0, 9934.0, 9932.0, 9935.0, 9934.0, 9938.0, 9930.0, 9922.0, 9919.0],
      "WindowWidth": [21262.0, 21190.0, 21108.0, 21074.0, 21063.0, 21076.0, 21076.0, 21091.0, 21089.0, 21085.0, 21056.0, 21067.0, 21064.0, 21072.0, 21073.0, 21062.0, 21060.0, 21030.0, 21024.0, 21008.0, 21004.0, 21024.0, 21028.0, 21017.0, 21004.0, 20977.0, 20980.0, 21009.0, 21047.0, 21047.0, 21037.0, 21009.0, 20992.0, 21014.0, 21037.0, 21062.0, 21074.0, 21071.0, 21049.0, 21008.0, 20981.0, 20995.0, 21004.0, 21035.0, 21044.0, 21035.0, 21013.0, 20986.0, 20979.0, 20995.0, 21023.0, 21012.0, 20998.0, 20961.0, 20994.0, 21038.0, 21080.0, 21083.0, 21075.0, 21051.0, 21035.0, 21023.0, 21027.0, 21045.0, 21065.0, 21057.0, 21042.0, 21046.0, 21030.0, 21026.0, 21029.0, 21049.0, 21056.0, 21062.0, 21060.0, 21062.0, 21077.0, 21070.0, 21035.0, 21024.0, 21023.0, 21023.0, 21037.0, 21038.0, 21041.0, 21017.0, 20990.0, 20986.0, 20982.0, 20986.0, 20981.0, 20983.0, 20984.0, 20987.0, 20988.0, 21016.0, 20989.0, 20986.0, 20969.0, 20994.0, 21009.0, 21021.0, 21025.0, 21007.0, 21011.0, 21004.0, 21016.0, 21012.0, 20997.0, 21006.0, 21012.0, 21020.0, 21034.0, 21029.0, 21018.0, 21008.0, 21008.0, 21011.0, 21016.0, 21041.0, 21025.0, 21014.0, 21013.0, 21024.0, 21040.0, 21027.0, 21022.0, 21018.0, 21014.0, 21009.0, 21026.0, 21010.0, 21026.0, 21024.0, 21016.0, 21024.0, 21028.0, 21033.0, 21067.0, 21095.0, 21084.0, 21043.0, 21004.0, 20991.0, 20986.0, 20988.0, 21016.0, 21042.0, 21061.0, 21047.0, 21054.0, 21071.0, 21073.0, 21061.0, 21043.0, 21057.0, 21070.0, 21070.0, 21050.0, 21026.0, 20994.0, 20982.0, 20992.0, 21015.0, 21010.0, 20995.0, 21007.0, 20987.0, 20990.0, 20998.0, 21026.0, 21034.0, 21061.0, 21043.0, 21032.0, 21024.0, 21014.0, 21007.0, 21007.0, 21009.0, 20999.0, 21008.0, 21028.0, 20998.0, 21001.0, 21002.0, 21021.0, 21010.0, 20989.0, 21002.0, 21008.0, 21006.0, 20987.0, 21006.0, 21025.0, 21021.0, 21031.0, 21029.0, 21038.0, 21020.0, 21001.0, 20995.0]
    },
    "slices": {}
  }
}