{
  "AcquisitionMatrixPE": 104,
  "AcquisitionNumber": 1,
  "AcquisitionTime": "16:10:59.470000",
  "BandwidthPerPixelPhaseEncode": 17.17,
  "BaseResolution": 104,
  "BodyPartExamined": "BRAIN",
  "CoilString": "HC1-7;NC1_2",
  "ConsistencyInfo": "N4_VE11C_LATEST_20160120",
  "ConversionSoftware": "dcm2niix",
  "ConversionSoftwareVersion": "v1.0.20190720  (JP2:OpenJPEG) GCC7.3.0",
  "DerivedVendorReportedEchoSpacing": 0.000560011,
  "DeviceSerialNumber": "167006",
  "DwellTime": 2.1e-06,
  "EchoTime": 0.037,
  "EchoTrainLength": 104,
  "EffectiveEchoSpacing": 0.000560011,
  "FlipAngle": 52,
  "ImageComments": "Unaliased_MB4_PE3_LB",
  "ImageOrientationPatientDICOM": [0.999771, -0.0170993, 0.0128565, 0.0205931, 0.932034, -0.361785],
  "ImageType": [
    "ORIGINAL",
    "PRIMARY",
    "M",
    "MB",
    "ND",
    "MOSAIC"
],
  "ImagingFrequency": 123.26,
  "InPlanePhaseEncodingDirectionDICOM": "COL",
  "InstitutionAddress": "Chemin_Queen-Mary_4565_Montreal_District_CA_H3W_1W5",
  "InstitutionName": "IUGM",
  "InstitutionalDepartmentName": "Department",
  "MRAcquisitionType": "2D",
  "MagneticFieldStrength": 3,
  "Manufacturer": "Siemens",
  "ManufacturersModelName": "Prisma_fit",
  "Modality": "MR",
  "MultibandAccelerationFactor": 4,
  "PartialFourier": 1,
  "PatientPosition": "HFS",
  "PercentPhaseFOV": 100,
  "PhaseEncodingDirection": "j",
  "PhaseEncodingSteps": 104,
  "PhaseResolution": 1,
  "PixelBandwidth": 2290,
  "ProcedureStepDescription": "hcptrt_generic",
  "ProtocolName": "func_task-gambling_run-1",
  "PulseSequenceDetails": "%CustomerSeq%_cmrr_mbep2d_bold",
  "ReceiveCoilActiveElements": "HC1-7;NC1,2",
  "ReceiveCoilName": "HeadNeck_64",
  "ReconMatrixPE": 104,
  "RepetitionTime": 1.49,
  "SAR": 0.0284619,
  "ScanOptions": "FS",
  "ScanningSequence": "EP",
  "SequenceName": "epfid2d1_104",
  "SequenceVariant": "SK_SS",
  "SeriesDescription": "func_task-gambling_run-1",
  "SeriesNumber": 19,
  "ShimSetting": [639, -7131, -8803, 653, 64, 186, 0, -24],
  "SliceThickness": 2,
  "SliceTiming": [0, 0.785, 0.1, 0.8825, 0.1975, 0.98, 0.295, 1.08, 0.3925, 1.1775, 0.49, 1.275, 0.59, 1.3725, 0.6875, 0, 0.785, 0.1, 0.8825, 0.1975, 0.98, 0.295, 1.08, 0.3925, 1.1775, 0.49, 1.275, 0.59, 1.3725, 0.6875, 0, 0.785, 0.1, 0.8825, 0.1975, 0.98, 0.295, 1.08, 0.3925, 1.1775, 0.49, 1.275, 0.59, 1.3725, 0.6875, 0, 0.785, 0.1, 0.8825, 0.1975, 0.98, 0.295, 1.08, 0.3925, 1.1775, 0.49, 1.275, 0.59, 1.3725, 0.6875],
  "SoftwareVersions": "syngo_MR_E11",
  "SpacingBetweenSlices": 2,
  "StationName": "MRC35049",
  "TaskName": "gambling",
  "TotalReadoutTime": 0.0576811,
  "TxRefAmp": 207.154,
  "WipMemBlock": "5b851bb8-6521-4642-8e4f-8b7659128a4d||Sequence: R016 ve11c/master r/e634e98; Dec 19 2017 11:00:25 by eja",
  "dcmmeta_affine": [
    [-1.999542236328125, 0.041186220943927765, 0.011592795141041279, 104.42868041992188],
    [0.034198567271232605, 1.864067792892456, -0.7239348292350769, -68.28963470458984],
    [0.02571294829249382, 0.7235709428787231, 1.8643455505371094, -66.49678039550781],
    [0.0, 0.0, 0.0, 1.0]
],
  "dcmmeta_reorient_transform": [
    [0.0, -1.0, 0.0, 103.0],
    [1.0, 0.0, 0.0, 0.0],
    [0.0, 0.0, 1.0, 0.0],
    [0.0, 0.0, 0.0, 1.0]
],
  "dcmmeta_shape": [104, 104, 60, 129],
  "dcmmeta_slice_dim": 2,
  "dcmmeta_version": 0.6,
  "global": {
    "const": {
      "AcquisitionMatrix": [104, 0, 0, 104],
      "AngioFlag": "N",
      "BitsAllocated": 16,
      "BitsStored": 16,
      "BodyPartExamined": "BRAIN",
      "Columns": 832,
      "EchoNumbers": 1,
      "EchoTime": 37.0,
      "EchoTrainLength": 104,
      "FlipAngle": 52.0,
      "HighBit": 15,
      "ImageOrientationPatient": [0.99977113658974, -0.0170992840551, 0.01285647412248, 0.02059311096505, 0.9320339063769, -0.3617854628707],
      "ImagePositionPatient": [-851.49603534223, -789.78175811546, 262.05132739099],
      "ImageType": [
        "ORIGINAL",
        "PRIMARY",
        "M",
        "MB",
        "ND",
        "MOSAIC"
],
      "ImagedNucleus": "1H",
      "ImagingFrequency": 123.259605,
      "InPlanePhaseEncodingDirection": "COL",
      "MRAcquisitionType": "2D",
      "MagneticFieldStrength": 3.0,
      "Manufacturer": "SIEMENS",
      "ManufacturerModelName": "Prisma_fit",
      "Modality": "MR",
      "NumberOfAverages": 1.0,
      "NumberOfPhaseEncodingSteps": 104,
      "PercentPhaseFieldOfView": 100.0,
      "PercentSampling": 100.0,
      "PerformedProcedureStepStartTime": "153724.568000",
      "PhotometricInterpretation": "MONOCHROME2",
      "PixelBandwidth": 2290.0,
      "PixelRepresentation": 0,
      "PixelSpacing": [2.0, 2.0],
      "ProtocolName": "func_task-gambling_run-1",
      "RepetitionTime": 1490.0,
      "Rows": 832,
      "SAR": 0.02846194971952,
      "SamplesPerPixel": 1,
      "ScanOptions": "FS",
      "ScanningSequence": "EP",
      "SequenceName": "epfid2d1_104",
      "SequenceVariant": [
        "SK",
        "SS"
],
      "SeriesDescription": "func_task-gambling_run-1",
      "SeriesNumber": 19,
      "SeriesTime": "161228.513000",
      "SliceLocation": -36.662554489079,
      "SliceThickness": 2.0,
      "SmallestImagePixelValue": 0,
      "SoftwareVersions": "syngo MR E11",
      "SpacingBetweenSlices": 2.0000000444661,
      "SpecificCharacterSet": "ISO_IR 100",
      "StudyID": "1",
      "StudyTime": "153724.514000",
      "TransmitCoilName": "Body",
      "VariableFlipAngleFlag": "N",
      "WindowCenterWidthExplanation": "Algo1",
      "dBdt": 0.0},
    "slices": {}
  },
  "time": {
    "samples": {
      "AcquisitionNumber": [1, 2, 3, 4, 5, 6, 7, 8, 9, 10, 11, 12, 13, 14, 15, 16, 17, 18, 19, 20, 21, 22, 23, 24, 25, 26, 27, 28, 29, 30, 31, 32, 33, 34, 35, 36, 37, 38, 39, 40, 41, 42, 43, 44, 45, 46, 47, 48, 49, 50, 51, 52, 53, 54, 55, 56, 57, 58, 59, 60, 61, 62, 63, 64, 65, 66, 67, 68, 69, 70, 71, 72, 73, 74, 75, 76, 77, 78, 79, 80, 81, 82, 83, 84, 85, 86, 87, 88, 89, 90, 91, 92, 93, 94, 95, 96, 97, 98, 99, 100, 101, 102, 103, 104, 105, 106, 107, 108, 109, 110, 111, 112, 113, 114, 115, 116, 117, 118, 119, 120, 121, 122, 123, 124, 125, 126, 127, 128, 129],
      "AcquisitionTime": ["161059.470000", "161100.960000", "161102.450000", "161103.940000", "161105.430000", "161106.920000", "161108.410000", "161109.900000", "161111.390000", "161112.880000", "161114.370000", "161115.860000", "161117.350000", "161118.840000", "161120.330000", "161121.820000", "161123.310000", "161124.800000", "161126.290000", "161127.780000", "161129.270000", "161130.760000", "161132.250000", "161133.740000", "161135.230000", "161136.720000", "161138.210000", "161139.700000", "161141.190000", "161142.680000", "161144.170000", "161145.660000", "161147.150000", "161148.640000", "161150.130000", "161151.620000", "161153.110000", "161154.600000", "161156.090000", "161157.580000", "161159.070000", "161200.560000", "161202.050000", "161203.540000", "161205.030000", "161206.520000", "161208.010000", "161209.500000", "161210.990000", "161212.480000", "161213.970000", "161215.460000", "161216.950000", "161218.440000", "161219.930000", "161221.420000", "161222.910000", "161224.400000", "161225.890000", "161227.380000", "161228.870000", "161230.360000", "161231.850000", "161233.340000", "161234.830000", "161236.320000", "161237.810000", "161239.300000", "161240.790000", "161242.280000", "161243.770000", "161245.260000", "161246.750000", "161248.240000", "161249.730000", "161251.220000", "161252.710000", "161254.200000", "161255.690000", "161257.180000", "161258.670000", "161300.160000", "161301.650000", "161303.140000", "161304.630000", "161306.120000", "161307.610000", "161309.100000", "161310.590000", "161312.080000", "161313.570000", "161315.060000", "161316.550000", "161318.040000", "161319.530000", "161321.020000", "161322.510000", "161324.000000", "161325.490000", "161326.980000", "161328.470000", "161329.960000", "161331.450000", "161332.940000", "161334.430000", "161335.920000", "161337.410000", "161338.900000", "161340.390000", "161341.880000", "161343.370000", "161344.860000", "161346.350000", "161347.840000", "161349.330000", "161350.820000", "161352.310000", "161353.800000", "161355.290000", "161356.780000", "161358.270000", "161359.760000", "161401.250000", "161402.740000", "161404.230000", "161405.720000", "161407.210000", "161408.700000", "161410.190000"],
      "ContentTime": ["161228.516000", "161228.519000", "161228.527000", "161228.530000", "161228.533000", "161228.536000", "161228.539000", "161228.542000", "161228.544000", "161228.547000", "161228.550000", "161228.553000", "161228.556000", "161228.559000", "161228.562000", "161228.564000", "161228.567000", "161228.570000", "161228.573000", "161228.576000", "161228.578000", "161228.581000", "161228.584000", "161228.587000", "161228.590000", "161228.593000", "161228.595000", "161228.598000", "161228.601000", "161228.604000", "161228.607000", "161228.610000", "161228.612000", "161228.615000", "161228.618000", "161228.621000", "161248.473000", "161248.476000", "161248.492000", "161248.494000", "161248.497000", "161248.512000", "161248.515000", "161248.517000", "161248.520000", "161248.523000", "161248.526000", "161248.529000", "161248.531000", "161248.534000", "161248.537000", "161248.540000", "161248.543000", "161248.546000", "161248.549000", "161248.552000", "161308.473000", "161308.476000", "161308.479000", "161308.481000", "161308.484000", "161308.487000", "161308.490000", "161308.492000", "161308.495000", "161308.498000", "161308.501000", "161308.504000", "161308.506000", "161308.509000", "161308.512000", "161308.515000", "161308.518000", "161308.520000", "161308.523000", "161308.526000", "161328.472000", "161328.475000", "161328.478000", "161328.480000", "161328.483000", "161328.486000", "161328.489000", "161328.492000", "161328.495000", "161328.497000", "161328.500000", "161328.503000", "161328.506000", "161328.509000", "161328.512000", "161328.514000", "161328.517000", "161328.520000", "161328.523000", "161328.525000", "161408.473000", "161408.476000", "161408.479000", "161408.482000", "161408.484000", "161408.487000", "161408.490000", "161408.493000", "161408.496000", "161408.499000", "161408.501000", "161408.504000", "161408.507000", "161408.510000", "161408.513000", "161408.515000", "161408.518000", "161408.521000", "161408.524000", "161408.527000", "161408.529000", "161408.532000", "161408.535000", "161408.538000", "161408.541000", "161408.543000", "161408.546000", "161408.549000", "161408.552000", "161408.555000", "161412.174000", "161412.177000", "161412.180000"],
      "InstanceCreationTime": ["161228.516000", "161228.519000", "161228.527000", "161228.530000", "161228.533000", "161228.536000", "161228.539000", "161228.542000", "161228.544000", "161228.547000", "161228.550000", "161228.553000", "161228.556000", "161228.559000", "161228.562000", "161228.564000", "161228.567000", "161228.570000", "161228.573000", "161228.576000", "161228.578000", "161228.581000", "161228.584000", "161228.587000", "161228.590000", "161228.593000", "161228.595000", "161228.598000", "161228.601000", "161228.604000", "161228.607000", "161228.610000", "161228.612000", "161228.615000", "161228.618000", "161228.621000", "161248.473000", "161248.476000", "161248.492000", "161248.494000", "161248.497000", "161248.512000", "161248.515000", "161248.517000", "161248.520000", "161248.523000", "161248.526000", "161248.529000", "161248.531000", "161248.534000", "161248.537000", "161248.540000", "161248.543000", "161248.546000", "161248.549000", "161248.552000", "161308.473000", "161308.476000", "161308.479000", "161308.481000", "161308.484000", "161308.487000", "161308.490000", "161308.492000", "161308.495000", "161308.498000", "161308.501000", "161308.504000", "161308.506000", "161308.509000", "161308.512000", "161308.515000", "161308.518000", "161308.520000", "161308.523000", "161308.526000", "161328.472000", "161328.475000", "161328.478000", "161328.480000", "161328.483000", "161328.486000", "161328.489000", "161328.492000", "161328.495000", "161328.497000", "161328.500000", "161328.503000", "161328.506000", "161328.509000", "161328.512000", "161328.514000", "161328.517000", "161328.520000", "161328.523000", "161328.525000", "161408.473000", "161408.476000", "161408.479000", "161408.482000", "161408.484000", "161408.487000", "161408.490000", "161408.493000", "161408.496000", "161408.499000", "161408.501000", "161408.504000", "161408.507000", "161408.510000", "161408.513000", "161408.515000", "161408.518000", "161408.521000", "161408.524000", "161408.527000", "161408.529000", "161408.532000", "161408.535000", "161408.538000", "161408.541000", "161408.543000", "161408.546000", "161408.549000", "161408.552000", "161408.555000", "161412.174000", "161412.177000", "161412.180000"],
      "InstanceNumber": [1, 2, 3, 4, 5, 6, 7, 8, 9, 10, 11, 12, 13, 14, 15, 16, 17, 18, 19, 20, 21, 22, 23, 24, 25, 26, 27, 28, 29, 30, 31, 32, 33, 34, 35, 36, 37, 38, 39, 40, 41, 42, 43, 44, 45, 46, 47, 48, 49, 50, 51, 52, 53, 54, 55, 56, 57, 58, 59, 60, 61, 62, 63, 64, 65, 66, 67, 68, 69, 70, 71, 72, 73, 74, 75, 76, 77, 78, 79, 80, 81, 82, 83, 84, 85, 86, 87, 88, 89, 90, 91, 92, 93, 94, 95, 96, 97, 98, 99, 100, 101, 102, 103, 104, 105, 106, 107, 108, 109, 110, 111, 112, 113, 114, 115, 116, 117, 118, 119, 120, 121, 122, 123, 124, 125, 126, 127, 128, 129],
      "LargestImagePixelValue": [41171, 39909, 39190, 38916, 38713, 38027, 38508, 38682, 38380, 38041, 38236, 38030, 37876, 38272, 38310, 37970, 37818, 37757, 38112, 37507, 37702, 38067, 37854, 37392, 37829, 38031, 37743, 37743, 38034, 37821, 37556, 37650, 37658, 37681, 37718, 37874, 37786, 38122, 37686, 38096, 37343, 37738, 37729, 37575, 37335, 38057, 37476, 37372, 38109, 37688, 37438, 37325, 38063, 37148, 37488, 37888, 37625, 37940, 37370, 37869, 37464, 37347, 37693, 37360, 37901, 37661, 38321, 37933, 37236, 37548, 37720, 37310, 37976, 37940, 38016, 37402, 37807, 38016, 38198, 38058, 37365, 37912, 37332, 38066, 38004, 37791, 37581, 38473, 37401, 37209, 37961, 37765, 37932, 37599, 37434, 38045, 38689, 37637, 37696, 37723, 37698, 38019, 38060, 38162, 37524, 37695, 38187, 38000, 37749, 37916, 38241, 38074, 38333, 37701, 38076, 37942, 37349, 37933, 37765, 37675, 37195, 37732, 37025, 37644, 37881, 37291, 37658, 37754, 37748],
      "WindowCenter": [10014.0, 9985.0, 9964.0, 9960.0, 9943.0, 9934.0, 9949.0, 9965.0, 9958.0, 9953.0, 9952.0, 9951.0, 9946.0, 9957.0, 9961.0, 9953.0, 9946.0, 9938.0, 9950.0, 9937.0, 9944.0, 9944.0, 9936.0, 9928.0, 9927.0, 9943.0, 9937.0, 9944.0, 9936.0, 9935.0, 9931.0, 9927.0, 9919.0, 9909.0, 9917.0, 9925.0, 9934.0, 9935.0, 9937.0, 9927.0, 9920.0, 9934.0, 9928.0, 9927.0, 9935.0, 9945.0, 9931.0, 9929.0, 9933.0, 9933.0, 9952.0, 9956.0, 9964.0, 9948.0, 9945.0, 9944.0, 9954.0, 9954.0, 9947.0, 9929.0, 9920.0, 9912.0, 9910.0, 9917.0, 9926.0, 9943.0, 9952.0, 9936.0, 9921.0, 9911.0, 9919.0, 9921.0, 9926.0, 9917.0, 9919.0, 9920.0, 9936.0, 9936.0, 9937.0, 9937.0, 9929.0, 9922.0, 9911.0, 9920.0, 9934.0, 9938.0, 9930.0, 9927.0, 9896.0, 9896.0, 9907.0, 9911.0, 9928.0, 9921.0, 9914.0, 9917.0, 9914.0, 9906.0, 9933.0, 9947.0, 9930.0, 9926.0, 9907.0, 9905.0, 9907.0, 9918.0, 9941.0, 9945.0, 9940.0, 9940.0, 9945.0, 9938.0, 9951.0, 9933.0, 9927.0, 9917.0, 9925.0, 9936.0, 9930.0, 9927.0, 9920.0, 9930.0, 9931.0, 9929.0, 9943.0, 9947.0, 9948.0, 9937.0, 9931.0],
      "WindowWidth": [21243.0, 21159.0, 21108.0, 21089.0, 21048.0, 21028.0, 21059.0, 21092.0, 21076.0, 21068.0, 21063.0, 21058.0, 21052.0, 21072.0, 21085.0, 21069.0, 21054.0, 21038.0, 21061.0, 21033.0, 21048.0, 21049.0, 21030.0, 21012.0, 21011.0, 21043.0, 21032.0, 21046.0, 21025.0, 21021.0, 21016.0, 21007.0, 20987.0, 20966.0, 20983.0, 21001.0, 21021.0, 21026.0, 21031.0, 21007.0, 20995.0, 21025.0, 21013.0, 21009.0, 21027.0, 21050.0, 21020.0, 21015.0, 21020.0, 21022.0, 21063.0, 21077.0, 21091.0, 21056.0, 21049.0, 21047.0, 21070.0, 21068.0, 21051.0, 21013.0, 20994.0, 20976.0, 20974.0, 20988.0, 21008.0, 21046.0, 21066.0, 21026.0, 20995.0, 20973.0, 20991.0, 20995.0, 21001.0, 20983.0, 20989.0, 20994.0, 21028.0, 21029.0, 21034.0, 21031.0, 21013.0, 20997.0, 20973.0, 20993.0, 21022.0, 21031.0, 21013.0, 21004.0, 20937.0, 20937.0, 20958.0, 20973.0, 21008.0, 20996.0, 20983.0, 20984.0, 20974.0, 20956.0, 21019.0, 21052.0, 21016.0, 21001.0, 20959.0, 20953.0, 20962.0, 20990.0, 21036.0, 21050.0, 21040.0, 21041.0, 21048.0, 21035.0, 21059.0, 21025.0, 21008.0, 20984.0, 21000.0, 21028.0, 21014.0, 21002.0, 20991.0, 21015.0, 21018.0, 21016.0, 21044.0, 21054.0, 21054.0, 21025.0, 21016.0]
    },
    "slices": {}
  }
}