{
  "AcquisitionMatrixPE": 104,
  "AcquisitionNumber": 1,
  "AcquisitionTime": "16:37:46.320000",
  "BandwidthPerPixelPhaseEncode": 17.17,
  "BaseResolution": 104,
  "BodyPartExamined": "BRAIN",
  "CoilString": "HC1-7;NC1_2",
  "ConsistencyInfo": "N4_VE11C_LATEST_20160120",
  "ConversionSoftware": "dcm2niix",
  "ConversionSoftwareVersion": "v1.0.20190720  (JP2:OpenJPEG) GCC7.3.0",
  "DerivedVendorReportedEchoSpacing": 0.000560011,
  "DeviceSerialNumber": "167006",
  "DwellTime": 2.1e-06,
  "EchoTime": 0.037,
  "EchoTrainLength": 104,
  "EffectiveEchoSpacing": 0.000560011,
  "FlipAngle": 52,
  "ImageComments": "Unaliased_MB4_PE3_LB",
  "ImageOrientationPatientDICOM": [0.999771, -0.0170993, 0.0128565, 0.0205931, 0.932034, -0.361785],
  "ImageType": [
    "ORIGINAL",
    "PRIMARY",
    "M",
    "MB",
    "ND",
    "MOSAIC"
],
  "ImagingFrequency": 123.26,
  "InPlanePhaseEncodingDirectionDICOM": "COL",
  "InstitutionAddress": "Chemin_Queen-Mary_4565_Montreal_District_CA_H3W_1W5",
  "InstitutionName": "IUGM",
  "InstitutionalDepartmentName": "Department",
  "MRAcquisitionType": "2D",
  "MagneticFieldStrength": 3,
  "Manufacturer": "Siemens",
  "ManufacturersModelName": "Prisma_fit",
  "Modality": "MR",
  "MultibandAccelerationFactor": 4,
  "PartialFourier": 1,
  "PatientPosition": "HFS",
  "PercentPhaseFOV": 100,
  "PhaseEncodingDirection": "j",
  "PhaseEncodingSteps": 104,
  "PhaseResolution": 1,
  "PixelBandwidth": 2290,
  "ProcedureStepDescription": "hcptrt_generic",
  "ProtocolName": "func_task-relational_run-2",
  "PulseSequenceDetails": "%CustomerSeq%_cmrr_mbep2d_bold",
  "ReceiveCoilActiveElements": "HC1-7;NC1,2",
  "ReceiveCoilName": "HeadNeck_64",
  "ReconMatrixPE": 104,
  "RepetitionTime": 1.49,
  "SAR": 0.0284278,
  "ScanOptions": "FS",
  "ScanningSequence": "EP",
  "SequenceName": "epfid2d1_104",
  "SequenceVariant": "SK_SS",
  "SeriesDescription": "func_task-relational_run-2",
  "SeriesNumber": 33,
  "ShimSetting": [639, -7131, -8803, 653, 64, 186, 0, -24],
  "SliceThickness": 2,
  "SliceTiming": [0, 0.785, 0.0975, 0.8825, 0.195, 0.98, 0.295, 1.0775, 0.3925, 1.175, 0.49, 1.275, 0.5875, 1.3725, 0.685, 0, 0.785, 0.0975, 0.8825, 0.195, 0.98, 0.295, 1.0775, 0.3925, 1.175, 0.49, 1.275, 0.5875, 1.3725, 0.685, 0, 0.785, 0.0975, 0.8825, 0.195, 0.98, 0.295, 1.0775, 0.3925, 1.175, 0.49, 1.275, 0.5875, 1.3725, 0.685, 0, 0.785, 0.0975, 0.8825, 0.195, 0.98, 0.295, 1.0775, 0.3925, 1.175, 0.49, 1.275, 0.5875, 1.3725, 0.685],
  "SoftwareVersions": "syngo_MR_E11",
  "SpacingBetweenSlices": 2,
  "StationName": "MRC35049",
  "TaskName": "relational",
  "TotalReadoutTime": 0.0576811,
  "TxRefAmp": 207.154,
  "WipMemBlock": "39348670-65f8-42c2-b74a-4c5b79ed2980||Sequence: R016 ve11c/master r/e634e98; Dec 19 2017 11:00:25 by eja",
  "dcmmeta_affine": [
    [-1.999542236328125, 0.041186220943927765, 0.011592795141041279, 104.42868041992188],
    [0.034198567271232605, 1.864067792892456, -0.7239348292350769, -68.28963470458984],
    [0.02571294829249382, 0.7235709428787231, 1.8643455505371094, -66.49678039550781],
    [0.0, 0.0, 0.0, 1.0]
],
  "dcmmeta_reorient_transform": [
    [0.0, -1.0, 0.0, 103.0],
    [1.0, 0.0, 0.0, 0.0],
    [0.0, 0.0, 1.0, 0.0],
    [0.0, 0.0, 0.0, 1.0]
],
  "dcmmeta_shape": [104, 104, 60, 119],
  "dcmmeta_slice_dim": 2,
  "dcmmeta_version": 0.6,
  "global": {
    "const": {
      "AcquisitionMatrix": [104, 0, 0, 104],
      "AngioFlag": "N",
      "BitsAllocated": 16,
      "BitsStored": 16,
      "BodyPartExamined": "BRAIN",
      "Columns": 832,
      "EchoNumbers": 1,
      "EchoTime": 37.0,
      "EchoTrainLength": 104,
      "FlipAngle": 52.0,
      "HighBit": 15,
      "ImageOrientationPatient": [0.99977113658974, -0.0170992840551, 0.01285647412248, 0.02059311096505, 0.9320339063769, -0.3617854628707],
      "ImagePositionPatient": [-851.49603534223, -789.78175811546, 262.05132739099],
      "ImageType": [
        "ORIGINAL",
        "PRIMARY",
        "M",
        "MB",
        "ND",
        "MOSAIC"
],
      "ImagedNucleus": "1H",
      "ImagingFrequency": 123.259612,
      "InPlanePhaseEncodingDirection": "COL",
      "MRAcquisitionType": "2D",
      "MagneticFieldStrength": 3.0,
      "Manufacturer": "SIEMENS",
      "ManufacturerModelName": "Prisma_fit",
      "Modality": "MR",
      "NumberOfAverages": 1.0,
      "NumberOfPhaseEncodingSteps": 104,
      "PercentPhaseFieldOfView": 100.0,
      "PercentSampling": 100.0,
      "PerformedProcedureStepStartTime": "153724.568000",
      "PhotometricInterpretation": "MONOCHROME2",
      "PixelBandwidth": 2290.0,
      "PixelRepresentation": 0,
      "PixelSpacing": [2.0, 2.0],
      "ProtocolName": "func_task-relational_run-2",
      "RepetitionTime": 1490.0,
      "Rows": 832,
      "SAR": 0.02842779084616,
      "SamplesPerPixel": 1,
      "ScanOptions": "FS",
      "ScanningSequence": "EP",
      "SequenceName": "epfid2d1_104",
      "SequenceVariant": [
        "SK",
        "SS"
],
      "SeriesDescription": "func_task-relational_run-2",
      "SeriesNumber": 33,
      "SeriesTime": "163913.342000",
      "SliceLocation": -36.662554489079,
      "SliceThickness": 2.0,
      "SmallestImagePixelValue": 0,
      "SoftwareVersions": "syngo MR E11",
      "SpacingBetweenSlices": 2.0000000444661,
      "SpecificCharacterSet": "ISO_IR 100",
      "StudyID": "1",
      "StudyTime": "153724.514000",
      "TransmitCoilName": "Body",
      "VariableFlipAngleFlag": "N",
      "WindowCenterWidthExplanation": "Algo1",
      "dBdt": 0.0},
    "slices": {}
  },
  "time": {
    "samples": {
      "AcquisitionNumber": [1, 2, 3, 4, 5, 6, 7, 8, 9, 10, 11, 12, 13, 14, 15, 16, 17, 18, 19, 20, 21, 22, 23, 24, 25, 26, 27, 28, 29, 30, 31, 32, 33, 34, 35, 36, 37, 38, 39, 40, 41, 42, 43, 44, 45, 46, 47, 48, 49, 50, 51, 52, 53, 54, 55, 56, 57, 58, 59, 60, 61, 62, 63, 64, 65, 66, 67, 68, 69, 70, 71, 72, 73, 74, 75, 76, 77, 78, 79, 80, 81, 82, 83, 84, 85, 86, 87, 88, 89, 90, 91, 92, 93, 94, 95, 96, 97, 98, 99, 100, 101, 102, 103, 104, 105, 106, 107, 108, 109, 110, 111, 112, 113, 114, 115, 116, 117, 118, 119],
      "AcquisitionTime": ["163746.320000", "163747.810000", "163749.300000", "163750.790000", "163752.280000", "163753.770000", "163755.260000", "163756.750000", "163758.240000", "163759.730000", "163801.220000", "163802.710000", "163804.200000", "163805.690000", "163807.180000", "163808.670000", "163810.160000", "163811.650000", "163813.140000", "163814.630000", "163816.120000", "163817.610000", "163819.100000", "163820.590000", "163822.080000", "163823.570000", "163825.060000", "163826.550000", "163828.040000", "163829.530000", "163831.020000", "163832.510000", "163834.000000", "163835.490000", "163836.980000", "163838.470000", "163839.960000", "163841.450000", "163842.940000", "163844.430000", "163845.920000", "163847.410000", "163848.900000", "163850.390000", "163851.880000", "163853.370000", "163854.860000", "163856.350000", "163857.840000", "163859.330000", "163900.820000", "163902.310000", "163903.800000", "163905.290000", "163906.780000", "163908.270000", "163909.760000", "163911.250000", "163912.740000", "163914.230000", "163915.720000", "163917.210000", "163918.700000", "163920.190000", "163921.680000", "163923.170000", "163924.660000", "163926.150000", "163927.640000", "163929.130000", "163930.620000", "163932.110000", "163933.600000", "163935.090000", "163936.580000", "163938.070000", "163939.560000", "163941.050000", "163942.540000", "163944.030000", "163945.520000", "163947.010000", "163948.500000", "163949.990000", "163951.480000", "163952.970000", "163954.460000", "163955.950000", "163957.440000", "163958.930000", "164000.420000", "164001.910000", "164003.400000", "164004.890000", "164006.380000", "164007.870000", "164009.360000", "164010.850000", "164012.340000", "164013.830000", "164015.320000", "164016.810000", "164018.300000", "164019.790000", "164021.280000", "164022.770000", "164024.260000", "164025.750000", "164027.240000", "164028.730000", "164030.220000", "164031.710000", "164033.200000", "164034.690000", "164036.180000", "164037.670000", "164039.160000", "164040.650000", "164042.140000"],
      "ContentTime": ["163913.345000", "163913.348000", "163913.351000", "163913.354000", "163913.357000", "163913.360000", "163913.362000", "163913.365000", "163913.368000", "163913.371000", "163913.375000", "163913.378000", "163913.381000", "163913.384000", "163913.386000", "163913.389000", "163913.392000", "163913.395000", "163913.398000", "163913.401000", "163913.410000", "163913.412000", "163913.415000", "163913.418000", "163913.421000", "163913.424000", "163913.426000", "163913.429000", "163913.432000", "163913.435000", "163913.438000", "163913.441000", "163933.316000", "163933.319000", "163933.322000", "163933.325000", "163933.327000", "163933.334000", "163933.337000", "163933.340000", "163933.343000", "163933.345000", "163933.348000", "163933.351000", "163933.354000", "163933.357000", "163933.359000", "163933.362000", "163933.365000", "163933.368000", "163933.371000", "163933.373000", "163953.316000", "163953.319000", "163953.322000", "163953.324000", "163953.327000", "163953.330000", "163953.333000", "163953.336000", "163953.339000", "163953.343000", "163953.346000", "163953.349000", "163953.352000", "163953.354000", "163953.357000", "163953.360000", "163953.363000", "163953.365000", "163953.368000", "163953.371000", "163953.374000", "164013.316000", "164013.319000", "164013.322000", "164013.324000", "164013.338000", "164013.341000", "164013.344000", "164013.347000", "164013.349000", "164013.352000", "164013.355000", "164013.358000", "164013.361000", "164013.363000", "164013.366000", "164013.369000", "164013.372000", "164013.375000", "164013.378000", "164013.380000", "164044.449000", "164044.453000", "164044.456000", "164044.458000", "164044.461000", "164044.464000", "164044.467000", "164044.470000", "164044.473000", "164044.476000", "164044.478000", "164044.481000", "164044.484000", "164044.487000", "164044.490000", "164044.493000", "164044.496000", "164044.499000", "164044.502000", "164044.504000", "164044.507000", "164044.510000", "164044.513000", "164044.516000", "164044.519000", "164044.522000"],
      "InstanceCreationTime": ["163913.345000", "163913.348000", "163913.351000", "163913.354000", "163913.357000", "163913.360000", "163913.362000", "163913.365000", "163913.368000", "163913.371000", "163913.375000", "163913.378000", "163913.381000", "163913.384000", "163913.386000", "163913.389000", "163913.392000", "163913.395000", "163913.398000", "163913.401000", "163913.410000", "163913.412000", "163913.415000", "163913.418000", "163913.421000", "163913.424000", "163913.426000", "163913.429000", "163913.432000", "163913.435000", "163913.438000", "163913.441000", "163933.316000", "163933.319000", "163933.322000", "163933.325000", "163933.327000", "163933.334000", "163933.337000", "163933.340000", "163933.343000", "163933.345000", "163933.348000", "163933.351000", "163933.354000", "163933.357000", "163933.359000", "163933.362000", "163933.365000", "163933.368000", "163933.371000", "163933.373000", "163953.316000", "163953.319000", "163953.322000", "163953.324000", "163953.327000", "163953.330000", "163953.333000", "163953.336000", "163953.339000", "163953.343000", "163953.346000", "163953.349000", "163953.352000", "163953.354000", "163953.357000", "163953.360000", "163953.363000", "163953.365000", "163953.368000", "163953.371000", "163953.374000", "164013.316000", "164013.319000", "164013.322000", "164013.324000", "164013.338000", "164013.341000", "164013.344000", "164013.347000", "164013.349000", "164013.352000", "164013.355000", "164013.358000", "164013.361000", "164013.363000", "164013.366000", "164013.369000", "164013.372000", "164013.375000", "164013.378000", "164013.380000", "164044.449000", "164044.453000", "164044.456000", "164044.458000", "164044.461000", "164044.464000", "164044.467000", "164044.470000", "164044.473000", "164044.476000", "164044.478000", "164044.481000", "164044.484000", "164044.487000", "164044.490000", "164044.493000", "164044.496000", "164044.499000", "164044.502000", "164044.504000", "164044.507000", "164044.510000", "164044.513000", "164044.516000", "164044.519000", "164044.522000"],
      "InstanceNumber": [1, 2, 3, 4, 5, 6, 7, 8, 9, 10, 11, 12, 13, 14, 15, 16, 17, 18, 19, 20, 21, 22, 23, 24, 25, 26, 27, 28, 29, 30, 31, 32, 33, 34, 35, 36, 37, 38, 39, 40, 41, 42, 43, 44, 45, 46, 47, 48, 49, 50, 51, 52, 53, 54, 55, 56, 57, 58, 59, 60, 61, 62, 63, 64, 65, 66, 67, 68, 69, 70, 71, 72, 73, 74, 75, 76, 77, 78, 79, 80, 81, 82, 83, 84, 85, 86, 87, 88, 89, 90, 91, 92, 93, 94, 95, 96, 97, 98, 99, 100, 101, 102, 103, 104, 105, 106, 107, 108, 109, 110, 111, 112, 113, 114, 115, 116, 117, 118, 119],
      "LargestImagePixelValue": [40539, 39626, 38652, 38144, 38468, 38453, 38073, 38103, 37579, 37442, 37847, 37988, 38439, 37614, 38103, 37821, 37750, 37155, 37496, 38383, 37740, 37126, 37680, 38269, 37947, 37397, 37406, 38526, 37598, 37886, 37652, 37713, 37704, 37368, 38299, 37913, 37808, 37867, 37694, 38323, 38049, 37815, 37803, 38088, 38260, 37776, 37749, 38023, 38015, 38075, 37062, 37741, 37833, 37849, 37913, 37322, 37400, 37670, 37344, 37729, 37658, 38598, 37353, 37846, 37410, 37756, 37496, 37069, 37073, 37528, 37557, 37405, 36870, 37406, 37957, 37700, 37809, 37100, 37195, 37424, 37753, 37134, 37074, 37112, 37160, 37511, 37278, 37348, 36965, 37654, 36745, 37540, 36573, 37391, 37260, 37145, 36655, 37300, 37184, 37354, 37667, 37024, 37014, 37031, 37414, 37148, 37016, 36505, 36502, 36278, 36231, 36938, 36395, 36500, 37007, 36454, 36534, 36542, 36679],
      "WindowCenter": [9904.0, 9861.0, 9843.0, 9826.0, 9830.0, 9841.0, 9842.0, 9850.0, 9845.0, 9845.0, 9853.0, 9861.0, 9884.0, 9881.0, 9889.0, 9884.0, 9876.0, 9858.0, 9863.0, 9878.0, 9879.0, 9868.0, 9865.0, 9861.0, 9858.0, 9853.0, 9862.0, 9877.0, 9875.0, 9880.0, 9888.0, 9881.0, 9874.0, 9865.0, 9869.0, 9862.0, 9854.0, 9853.0, 9855.0, 9868.0, 9871.0, 9862.0, 9853.0, 9854.0, 9858.0, 9861.0, 9864.0, 9871.0, 9871.0, 9872.0, 9856.0, 9862.0, 9862.0, 9864.0, 9863.0, 9863.0, 9863.0, 9870.0, 9857.0, 9854.0, 9853.0, 9873.0, 9865.0, 9880.0, 9884.0, 9893.0, 9887.0, 9878.0, 9858.0, 9857.0, 9866.0, 9876.0, 9860.0, 9848.0, 9844.0, 9844.0, 9846.0, 9846.0, 9849.0, 9857.0, 9873.0, 9868.0, 9867.0, 9866.0, 9861.0, 9866.0, 9875.0, 9876.0, 9870.0, 9866.0, 9859.0, 9858.0, 9859.0, 9864.0, 9852.0, 9857.0, 9851.0, 9865.0, 9867.0, 9873.0, 9864.0, 9858.0, 9851.0, 9843.0, 9848.0, 9845.0, 9871.0, 9882.0, 9874.0, 9849.0, 9829.0, 9813.0, 9799.0, 9804.0, 9820.0, 9825.0, 9816.0, 9817.0, 9814.0],
      "WindowWidth": [20982.0, 20869.0, 20820.0, 20776.0, 20780.0, 20804.0, 20807.0, 20824.0, 20816.0, 20816.0, 20833.0, 20849.0, 20899.0, 20899.0, 20915.0, 20906.0, 20889.0, 20849.0, 20854.0, 20886.0, 20889.0, 20870.0, 20858.0, 20846.0, 20838.0, 20832.0, 20853.0, 20883.0, 20884.0, 20892.0, 20907.0, 20895.0, 20880.0, 20858.0, 20861.0, 20848.0, 20831.0, 20829.0, 20833.0, 20861.0, 20867.0, 20848.0, 20829.0, 20830.0, 20838.0, 20847.0, 20855.0, 20870.0, 20872.0, 20872.0, 20839.0, 20849.0, 20851.0, 20858.0, 20854.0, 20853.0, 20852.0, 20868.0, 20841.0, 20832.0, 20829.0, 20870.0, 20862.0, 20891.0, 20903.0, 20925.0, 20916.0, 20891.0, 20844.0, 20841.0, 20860.0, 20880.0, 20848.0, 20817.0, 20807.0, 20806.0, 20812.0, 20813.0, 20823.0, 20843.0, 20876.0, 20865.0, 20862.0, 20862.0, 20856.0, 20863.0, 20885.0, 20884.0, 20874.0, 20862.0, 20849.0, 20843.0, 20847.0, 20855.0, 20832.0, 20841.0, 20830.0, 20858.0, 20864.0, 20876.0, 20856.0, 20842.0, 20830.0, 20810.0, 20818.0, 20812.0, 20870.0, 20905.0, 20885.0, 20827.0, 20780.0, 20742.0, 20714.0, 20722.0, 20757.0, 20771.0, 20753.0, 20755.0, 20747.0]
    },
    "slices": {}
  }
}