{
  "AcquisitionMatrixPE": 104,
  "AcquisitionNumber": 1,
  "AcquisitionTime": "16:19:36.475000",
  "BandwidthPerPixelPhaseEncode": 17.17,
  "BaseResolution": 104,
  "BodyPartExamined": "BRAIN",
  "CoilString": "HC1-7;NC1_2",
  "ConsistencyInfo": "N4_VE11C_LATEST_20160120",
  "ConversionSoftware": "dcm2niix",
  "ConversionSoftwareVersion": "v1.0.20190720  (JP2:OpenJPEG) GCC7.3.0",
  "DerivedVendorReportedEchoSpacing": 0.000560011,
  "DeviceSerialNumber": "167006",
  "DwellTime": 2.1e-06,
  "EchoTime": 0.037,
  "EchoTrainLength": 104,
  "EffectiveEchoSpacing": 0.000560011,
  "FlipAngle": 52,
  "ImageComments": "Unaliased_MB4_PE3_LB",
  "ImageOrientationPatientDICOM": [0.999771, -0.0170993, 0.0128565, 0.0205931, 0.932034, -0.361785],
  "ImageType": [
    "ORIGINAL",
    "PRIMARY",
    "M",
    "MB",
    "ND",
    "MOSAIC"
],
  "ImagingFrequency": 123.26,
  "InPlanePhaseEncodingDirectionDICOM": "COL",
  "InstitutionAddress": "Chemin_Queen-Mary_4565_Montreal_District_CA_H3W_1W5",
  "InstitutionName": "IUGM",
  "InstitutionalDepartmentName": "Department",
  "MRAcquisitionType": "2D",
  "MagneticFieldStrength": 3,
  "Manufacturer": "Siemens",
  "ManufacturersModelName": "Prisma_fit",
  "Modality": "MR",
  "MultibandAccelerationFactor": 4,
  "PartialFourier": 1,
  "PatientPosition": "HFS",
  "PercentPhaseFOV": 100,
  "PhaseEncodingDirection": "j",
  "PhaseEncodingSteps": 104,
  "PhaseResolution": 1,
  "PixelBandwidth": 2290,
  "ProcedureStepDescription": "hcptrt_generic",
  "ProtocolName": "func_task-social_run-2",
  "PulseSequenceDetails": "%CustomerSeq%_cmrr_mbep2d_bold",
  "ReceiveCoilActiveElements": "HC1-7;NC1,2",
  "ReceiveCoilName": "HeadNeck_64",
  "ReconMatrixPE": 104,
  "RepetitionTime": 1.49,
  "SAR": 0.0284914,
  "ScanOptions": "FS",
  "ScanningSequence": "EP",
  "SequenceName": "epfid2d1_104",
  "SequenceVariant": "SK_SS",
  "SeriesDescription": "func_task-social_run-2",
  "SeriesNumber": 25,
  "ShimSetting": [639, -7131, -8803, 653, 64, 186, 0, -24],
  "SliceThickness": 2,
  "SliceTiming": [0, 0.7825, 0.0975, 0.8825, 0.195, 0.98, 0.2925, 1.0775, 0.3925, 1.175, 0.49, 1.2725, 0.5875, 1.3725, 0.685, 0, 0.7825, 0.0975, 0.8825, 0.195, 0.98, 0.2925, 1.0775, 0.3925, 1.175, 0.49, 1.2725, 0.5875, 1.3725, 0.685, 0, 0.7825, 0.0975, 0.8825, 0.195, 0.98, 0.2925, 1.0775, 0.3925, 1.175, 0.49, 1.2725, 0.5875, 1.3725, 0.685, 0, 0.7825, 0.0975, 0.8825, 0.195, 0.98, 0.2925, 1.0775, 0.3925, 1.175, 0.49, 1.2725, 0.5875, 1.3725, 0.685],
  "SoftwareVersions": "syngo_MR_E11",
  "SpacingBetweenSlices": 2,
  "StationName": "MRC35049",
  "TaskName": "social",
  "TotalReadoutTime": 0.0576811,
  "TxRefAmp": 207.154,
  "WipMemBlock": "d48f9a51-96a6-4d7d-8987-e3a595365ed1||Sequence: R016 ve11c/master r/e634e98; Dec 19 2017 11:00:25 by eja",
  "dcmmeta_affine": [
    [-1.999542236328125, 0.041186220943927765, 0.011592795141041279, 104.42868041992188],
    [0.034198567271232605, 1.864067792892456, -0.7239348292350769, -68.28963470458984],
    [0.02571294829249382, 0.7235709428787231, 1.8643455505371094, -66.49678039550781],
    [0.0, 0.0, 0.0, 1.0]
],
  "dcmmeta_reorient_transform": [
    [0.0, -1.0, 0.0, 103.0],
    [1.0, 0.0, 0.0, 0.0],
    [0.0, 0.0, 1.0, 0.0],
    [0.0, 0.0, 0.0, 1.0]
],
  "dcmmeta_shape": [104, 104, 60, 139],
  "dcmmeta_slice_dim": 2,
  "dcmmeta_version": 0.6,
  "global": {
    "const": {
      "AcquisitionMatrix": [104, 0, 0, 104],
      "AngioFlag": "N",
      "BitsAllocated": 16,
      "BitsStored": 16,
      "BodyPartExamined": "BRAIN",
      "Columns": 832,
      "EchoNumbers": 1,
      "EchoTime": 37.0,
      "EchoTrainLength": 104,
      "FlipAngle": 52.0,
      "HighBit": 15,
      "ImageOrientationPatient": [0.99977113658974, -0.0170992840551, 0.01285647412248, 0.02059311096505, 0.9320339063769, -0.3617854628707],
      "ImagePositionPatient": [-851.49603534223, -789.78175811546, 262.05132739099],
      "ImageType": [
        "ORIGINAL",
        "PRIMARY",
        "M",
        "MB",
        "ND",
        "MOSAIC"
],
      "ImagedNucleus": "1H",
      "ImagingFrequency": 123.259608,
      "InPlanePhaseEncodingDirection": "COL",
      "MRAcquisitionType": "2D",
      "MagneticFieldStrength": 3.0,
      "Manufacturer": "SIEMENS",
      "ManufacturerModelName": "Prisma_fit",
      "Modality": "MR",
      "NumberOfAverages": 1.0,
      "NumberOfPhaseEncodingSteps": 104,
      "PercentPhaseFieldOfView": 100.0,
      "PercentSampling": 100.0,
      "PerformedProcedureStepStartTime": "153724.568000",
      "PhotometricInterpretation": "MONOCHROME2",
      "PixelBandwidth": 2290.0,
      "PixelRepresentation": 0,
      "PixelSpacing": [2.0, 2.0],
      "ProtocolName": "func_task-social_run-2",
      "RepetitionTime": 1490.0,
      "Rows": 832,
      "SAR": 0.02849143360915,
      "SamplesPerPixel": 1,
      "ScanOptions": "FS",
      "ScanningSequence": "EP",
      "SequenceName": "epfid2d1_104",
      "SequenceVariant": [
        "SK",
        "SS"
],
      "SeriesDescription": "func_task-social_run-2",
      "SeriesNumber": 25,
      "SeriesTime": "162108.510000",
      "SliceLocation": -36.662554489079,
      "SliceThickness": 2.0,
      "SmallestImagePixelValue": 0,
      "SoftwareVersions": "syngo MR E11",
      "SpacingBetweenSlices": 2.0000000444661,
      "SpecificCharacterSet": "ISO_IR 100",
      "StudyID": "1",
      "StudyTime": "153724.514000",
      "TransmitCoilName": "Body",
      "VariableFlipAngleFlag": "N",
      "WindowCenterWidthExplanation": "Algo1",
      "dBdt": 0.0},
    "slices": {}
  },
  "time": {
    "samples": {
      "AcquisitionNumber": [1, 2, 3, 4, 5, 6, 7, 8, 9, 10, 11, 12, 13, 14, 15, 16, 17, 18, 19, 20, 21, 22, 23, 24, 25, 26, 27, 28, 29, 30, 31, 32, 33, 34, 35, 36, 37, 38, 39, 40, 41, 42, 43, 44, 45, 46, 47, 48, 49, 50, 51, 52, 53, 54, 55, 56, 57, 58, 59, 60, 61, 62, 63, 64, 65, 66, 67, 68, 69, 70, 71, 72, 73, 74, 75, 76, 77, 78, 79, 80, 81, 82, 83, 84, 85, 86, 87, 88, 89, 90, 91, 92, 93, 94, 95, 96, 97, 98, 99, 100, 101, 102, 103, 104, 105, 106, 107, 108, 109, 110, 111, 112, 113, 114, 115, 116, 117, 118, 119, 120, 121, 122, 123, 124, 125, 126, 127, 128, 129, 130, 131, 132, 133, 134, 135, 136, 137, 138, 139],
      "AcquisitionTime": ["161936.475000", "161937.965000", "161939.455000", "161940.945000", "161942.435000", "161943.925000", "161945.415000", "161946.905000", "161948.395000", "161949.885000", "161951.375000", "161952.865000", "161954.355000", "161955.845000", "161957.335000", "161958.825000", "162000.315000", "162001.805000", "162003.295000", "162004.785000", "162006.275000", "162007.765000", "162009.255000", "162010.745000", "162012.235000", "162013.725000", "162015.215000", "162016.705000", "162018.195000", "162019.685000", "162021.175000", "162022.665000", "162024.155000", "162025.645000", "162027.135000", "162028.625000", "162030.115000", "162031.605000", "162033.095000", "162034.585000", "162036.075000", "162037.565000", "162039.055000", "162040.545000", "162042.035000", "162043.525000", "162045.015000", "162046.505000", "162047.995000", "162049.485000", "162050.975000", "162052.465000", "162053.955000", "162055.445000", "162056.935000", "162058.425000", "162059.915000", "162101.405000", "162102.895000", "162104.385000", "162105.875000", "162107.365000", "162108.855000", "162110.345000", "162111.835000", "162113.325000", "162114.815000", "162116.305000", "162117.795000", "162119.285000", "162120.775000", "162122.265000", "162123.755000", "162125.245000", "162126.735000", "162128.225000", "162129.715000", "162131.205000", "162132.695000", "162134.185000", "162135.675000", "162137.165000", "162138.655000", "162140.145000", "162141.635000", "162143.125000", "162144.615000", "162146.105000", "162147.595000", "162149.085000", "162150.575000", "162152.065000", "162153.555000", "162155.045000", "162156.535000", "162158.025000", "162159.515000", "162201.005000", "162202.495000", "162203.985000", "162205.475000", "162206.965000", "162208.455000", "162209.945000", "162211.435000", "162212.925000", "162214.415000", "162215.905000", "162217.395000", "162218.885000", "162220.375000", "162221.865000", "162223.355000", "162224.845000", "162226.335000", "162227.825000", "162229.315000", "162230.805000", "162232.295000", "162233.785000", "162235.275000", "162236.765000", "162238.255000", "162239.745000", "162241.235000", "162242.725000", "162244.215000", "162245.705000", "162247.195000", "162248.685000", "162250.175000", "162251.665000", "162253.155000", "162254.645000", "162256.135000", "162257.625000", "162259.115000", "162300.605000", "162302.095000"],
      "ContentTime": ["162108.513000", "162108.516000", "162108.519000", "162108.522000", "162108.525000", "162108.528000", "162108.533000", "162108.535000", "162108.538000", "162108.541000", "162108.544000", "162108.547000", "162108.549000", "162108.552000", "162108.555000", "162108.558000", "162108.560000", "162108.563000", "162108.573000", "162108.576000", "162108.578000", "162108.581000", "162108.584000", "162108.587000", "162108.589000", "162108.592000", "162108.595000", "162108.598000", "162108.601000", "162108.603000", "162108.606000", "162108.609000", "162108.612000", "162108.614000", "162108.617000", "162108.620000", "162108.623000", "162108.626000", "162128.473000", "162128.476000", "162128.479000", "162128.481000", "162128.484000", "162128.487000", "162128.490000", "162128.492000", "162128.495000", "162128.498000", "162128.501000", "162128.503000", "162128.506000", "162128.509000", "162128.512000", "162128.515000", "162128.518000", "162128.521000", "162128.524000", "162128.527000", "162148.473000", "162148.476000", "162148.478000", "162148.481000", "162148.484000", "162148.487000", "162148.490000", "162148.492000", "162148.495000", "162148.498000", "162148.501000", "162148.504000", "162148.506000", "162148.509000", "162148.512000", "162148.515000", "162148.518000", "162148.520000", "162148.523000", "162148.526000", "162148.529000", "162208.473000", "162208.476000", "162208.478000", "162208.481000", "162208.484000", "162208.487000", "162208.490000", "162208.492000", "162208.495000", "162208.498000", "162208.501000", "162208.504000", "162208.507000", "162208.509000", "162208.512000", "162208.515000", "162208.518000", "162208.521000", "162208.523000", "162208.526000", "162248.472000", "162248.475000", "162248.478000", "162248.480000", "162248.483000", "162248.486000", "162248.489000", "162248.492000", "162248.494000", "162248.497000", "162248.500000", "162248.503000", "162248.506000", "162248.508000", "162248.511000", "162248.514000", "162248.517000", "162248.520000", "162248.522000", "162248.525000", "162248.528000", "162248.531000", "162248.533000", "162248.536000", "162248.539000", "162248.542000", "162248.545000", "162248.547000", "162248.550000", "162304.491000", "162304.494000", "162304.497000", "162304.500000", "162304.507000", "162304.510000", "162304.513000", "162304.516000", "162304.519000", "162304.522000", "162304.525000"],
      "InstanceCreationTime": ["162108.513000", "162108.516000", "162108.519000", "162108.522000", "162108.525000", "162108.528000", "162108.533000", "162108.535000", "162108.538000", "162108.541000", "162108.544000", "162108.547000", "162108.549000", "162108.552000", "162108.555000", "162108.558000", "162108.560000", "162108.563000", "162108.573000", "162108.576000", "162108.578000", "162108.581000", "162108.584000", "162108.587000", "162108.589000", "162108.592000", "162108.595000", "162108.598000", "162108.601000", "162108.603000", "162108.606000", "162108.609000", "162108.612000", "162108.614000", "162108.617000", "162108.620000", "162108.623000", "162108.626000", "162128.473000", "162128.476000", "162128.479000", "162128.481000", "162128.484000", "162128.487000", "162128.490000", "162128.492000", "162128.495000", "162128.498000", "162128.501000", "162128.503000", "162128.506000", "162128.509000", "162128.512000", "162128.515000", "162128.518000", "162128.521000", "162128.524000", "162128.527000", "162148.473000", "162148.476000", "162148.478000", "162148.481000", "162148.484000", "162148.487000", "162148.490000", "162148.492000", "162148.495000", "162148.498000", "162148.501000", "162148.504000", "162148.506000", "162148.509000", "162148.512000", "162148.515000", "162148.518000", "162148.520000", "162148.523000", "162148.526000", "162148.529000", "162208.473000", "162208.476000", "162208.478000", "162208.481000", "162208.484000", "162208.487000", "162208.490000", "162208.492000", "162208.495000", "162208.498000", "162208.501000", "162208.504000", "162208.507000", "162208.509000", "162208.512000", "162208.515000", "162208.518000", "162208.521000", "162208.523000", "162208.526000", "162248.472000", "162248.475000", "162248.478000", "162248.480000", "162248.483000", "162248.486000", "162248.489000", "162248.492000", "162248.494000", "162248.497000", "162248.500000", "162248.503000", "162248.506000", "162248.508000", "162248.511000", "162248.514000", "162248.517000", "162248.520000", "162248.522000", "162248.525000", "162248.528000", "162248.531000", "162248.533000", "162248.536000", "162248.539000", "162248.542000", "162248.545000", "162248.547000", "162248.550000", "162304.491000", "162304.494000", "162304.497000", "162304.500000", "162304.507000", "162304.510000", "162304.513000", "162304.516000", "162304.519000", "162304.522000", "162304.525000"],
      "InstanceNumber": [1, 2, 3, 4, 5, 6, 7, 8, 9, 10, 11, 12, 13, 14, 15, 16, 17, 18, 19, 20, 21, 22, 23, 24, 25, 26, 27, 28, 29, 30, 31, 32, 33, 34, 35, 36, 37, 38, 39, 40, 41, 42, 43, 44, 45, 46, 47, 48, 49, 50, 51, 52, 53, 54, 55, 56, 57, 58, 59, 60, 61, 62, 63, 64, 65, 66, 67, 68, 69, 70, 71, 72, 73, 74, 75, 76, 77, 78, 79, 80, 81, 82, 83, 84, 85, 86, 87, 88, 89, 90, 91, 92, 93, 94, 95, 96, 97, 98, 99, 100, 101, 102, 103, 104, 105, 106, 107, 108, 109, 110, 111, 112, 113, 114, 115, 116, 117, 118, 119, 120, 121, 122, 123, 124, 125, 126, 127, 128, 129, 130, 131, 132, 133, 134, 135, 136, 137, 138, 139],
      "LargestImagePixelValue": [40479, 39115, 37974, 38223, 37240, 37590, 37526, 37843, 37804, 37484, 37449, 37718, 37653, 37747, 37395, 37556, 37323, 37528, 37733, 37437, 37895, 37452, 37717, 37498, 37698, 37389, 37896, 37743, 36911, 37225, 37040, 36997, 36734, 37064, 37243, 37186, 37214, 36750, 37084, 37285, 37475, 37520, 37374, 37618, 37314, 37441, 37237, 37134, 37106, 37313, 37418, 37458, 37551, 37193, 37216, 37043, 36825, 37220, 37261, 37031, 37354, 37037, 37353, 37515, 37628, 37135, 37387, 36943, 37056, 37276, 37612, 37286, 37322, 37282, 37031, 36926, 37124, 37084, 37798, 37065, 37029, 37164, 37181, 36757, 37342, 37565, 37451, 37677, 37651, 37122, 36902, 37454, 37489, 37417, 37433, 37484, 37475, 37452, 37529, 37121, 37033, 36896, 36958, 37592, 37528, 37057, 36832, 36965, 37644, 37142, 37304, 36840, 37478, 37521, 37187, 37407, 37279, 37007, 37104, 37314, 36945, 37093, 37479, 37510, 37242, 37660, 37557, 37577, 37560, 37177, 37406, 37043, 36815, 37032, 37386, 37185, 37301, 37127, 37151],
      "WindowCenter": [9976.0, 9937.0, 9922.0, 9926.0, 9917.0, 9922.0, 9921.0, 9919.0, 9922.0, 9930.0, 9923.0, 9920.0, 9921.0, 9927.0, 9940.0, 9933.0, 9917.0, 9905.0, 9903.0, 9910.0, 9917.0, 9927.0, 9927.0, 9916.0, 9904.0, 9904.0, 9918.0, 9929.0, 9942.0, 9938.0, 9922.0, 9902.0, 9892.0, 9890.0, 9914.0, 9940.0, 9943.0, 9936.0, 9917.0, 9904.0, 9895.0, 9904.0, 9913.0, 9929.0, 9923.0, 9923.0, 9926.0, 9933.0, 9934.0, 9931.0, 9930.0, 9922.0, 9924.0, 9932.0, 9942.0, 9929.0, 9910.0, 9899.0, 9891.0, 9899.0, 9905.0, 9907.0, 9907.0, 9914.0, 9927.0, 9924.0, 9939.0, 9937.0, 9943.0, 9926.0, 9922.0, 9929.0, 9949.0, 9960.0, 9946.0, 9920.0, 9900.0, 9892.0, 9913.0, 9923.0, 9916.0, 9908.0, 9890.0, 9874.0, 9878.0, 9886.0, 9886.0, 9899.0, 9910.0, 9916.0, 9917.0, 9914.0, 9906.0, 9906.0, 9921.0, 9934.0, 9940.0, 9942.0, 9957.0, 9954.0, 9937.0, 9919.0, 9901.0, 9905.0, 9913.0, 9906.0, 9898.0, 9896.0, 9896.0, 9889.0, 9898.0, 9907.0, 9914.0, 9922.0, 9922.0, 9930.0, 9917.0, 9915.0, 9915.0, 9915.0, 9918.0, 9933.0, 9940.0, 9939.0, 9943.0, 9941.0, 9934.0, 9923.0, 9915.0, 9918.0, 9923.0, 9908.0, 9893.0, 9898.0, 9912.0, 9916.0, 9926.0, 9919.0, 9908.0],
      "WindowWidth": [21154.0, 21049.0, 21008.0, 21010.0, 20993.0, 20999.0, 20995.0, 20988.0, 20996.0, 21012.0, 20998.0, 20990.0, 20992.0, 21006.0, 21037.0, 21021.0, 20984.0, 20956.0, 20950.0, 20968.0, 20984.0, 21005.0, 21005.0, 20981.0, 20951.0, 20954.0, 20985.0, 21011.0, 21043.0, 21034.0, 21000.0, 20953.0, 20929.0, 20926.0, 20980.0, 21040.0, 21048.0, 21030.0, 20987.0, 20953.0, 20934.0, 20956.0, 20978.0, 21012.0, 21001.0, 20999.0, 21008.0, 21021.0, 21021.0, 21011.0, 21008.0, 20989.0, 20998.0, 21016.0, 21040.0, 21013.0, 20967.0, 20942.0, 20929.0, 20945.0, 20956.0, 20963.0, 20961.0, 20978.0, 21003.0, 21003.0, 21033.0, 21035.0, 21045.0, 21005.0, 20996.0, 21012.0, 21055.0, 21081.0, 21052.0, 20990.0, 20945.0, 20931.0, 20972.0, 20996.0, 20981.0, 20962.0, 20919.0, 20886.0, 20894.0, 20912.0, 20913.0, 20941.0, 20968.0, 20985.0, 20987.0, 20976.0, 20959.0, 20959.0, 20994.0, 21024.0, 21036.0, 21042.0, 21073.0, 21067.0, 21030.0, 20984.0, 20946.0, 20953.0, 20971.0, 20958.0, 20940.0, 20934.0, 20931.0, 20921.0, 20941.0, 20961.0, 20976.0, 20993.0, 20993.0, 21009.0, 20984.0, 20978.0, 20979.0, 20980.0, 20991.0, 21021.0, 21036.0, 21034.0, 21045.0, 21036.0, 21019.0, 20995.0, 20976.0, 20984.0, 20992.0, 20962.0, 20929.0, 20939.0, 20971.0, 20982.0, 21004.0, 20989.0, 20962.0]
    },
    "slices": {}
  }
}