{
  "AcquisitionMatrixPE": 104,
  "AcquisitionNumber": 1,
  "AcquisitionTime": "15:24:3.945000",
  "BandwidthPerPixelPhaseEncode": 17.17,
  "BaseResolution": 104,
  "BodyPartExamined": "BRAIN",
  "CoilString": "HC1-7;NC1_2",
  "ConsistencyInfo": "N4_VE11C_LATEST_20160120",
  "ConversionSoftware": "dcm2niix",
  "ConversionSoftwareVersion": "v1.0.20190720  (JP2:OpenJPEG) GCC7.3.0",
  "DerivedVendorReportedEchoSpacing": 0.000560011,
  "DeviceSerialNumber": "167006",
  "DwellTime": 2.1e-06,
  "EchoTime": 0.037,
  "EchoTrainLength": 104,
  "EffectiveEchoSpacing": 0.000560011,
  "FlipAngle": 52,
  "ImageComments": "Unaliased_MB4_PE3_LB",
  "ImageOrientationPatientDICOM": [0.999221, -0.0381256, -0.0102259, 0.0310526, 0.919164, -0.392649],
  "ImageType": [
    "ORIGINAL",
    "PRIMARY",
    "M",
    "MB",
    "ND",
    "MOSAIC"
],
  "ImagingFrequency": 123.26,
  "InPlanePhaseEncodingDirectionDICOM": "COL",
  "InstitutionAddress": "Chemin_Queen-Mary_4565_Montreal_District_CA_H3W_1W5",
  "InstitutionName": "IUGM",
  "InstitutionalDepartmentName": "Department",
  "MRAcquisitionType": "2D",
  "MagneticFieldStrength": 3,
  "Manufacturer": "Siemens",
  "ManufacturersModelName": "Prisma_fit",
  "Modality": "MR",
  "MultibandAccelerationFactor": 4,
  "PartialFourier": 1,
  "PatientPosition": "HFS",
  "PercentPhaseFOV": 100,
  "PhaseEncodingDirection": "j",
  "PhaseEncodingSteps": 104,
  "PhaseResolution": 1,
  "PixelBandwidth": 2290,
  "ProcedureStepDescription": "hcptrt_generic",
  "ProtocolName": "func_task-relational_run-1",
  "PulseSequenceDetails": "%CustomerSeq%_cmrr_mbep2d_bold",
  "ReceiveCoilActiveElements": "HC1-7;NC1,2",
  "ReceiveCoilName": "HeadNeck_64",
  "ReconMatrixPE": 104,
  "RepetitionTime": 1.49,
  "SAR": 0.0365848,
  "ScanOptions": "FS",
  "ScanningSequence": "EP",
  "SequenceName": "epfid2d1_104",
  "SequenceVariant": "SK_SS",
  "SeriesDescription": "func_task-relational_run-1",
  "SeriesNumber": 15,
  "ShimSetting": [606, -7241, -8850, 405, 10, -356, 28, 38],
  "SliceThickness": 2,
  "SliceTiming": [0, 0.7825, 0.0975, 0.8825, 0.195, 0.98, 0.2925, 1.0775, 0.3925, 1.175, 0.49, 1.2725, 0.5875, 1.3725, 0.685, 0, 0.7825, 0.0975, 0.8825, 0.195, 0.98, 0.2925, 1.0775, 0.3925, 1.175, 0.49, 1.2725, 0.5875, 1.3725, 0.685, 0, 0.7825, 0.0975, 0.8825, 0.195, 0.98, 0.2925, 1.0775, 0.3925, 1.175, 0.49, 1.2725, 0.5875, 1.3725, 0.685, 0, 0.7825, 0.0975, 0.8825, 0.195, 0.98, 0.2925, 1.0775, 0.3925, 1.175, 0.49, 1.2725, 0.5875, 1.3725, 0.685],
  "SoftwareVersions": "syngo_MR_E11",
  "SpacingBetweenSlices": 2,
  "StationName": "MRC35049",
  "TaskName": "relational",
  "TotalReadoutTime": 0.0576811,
  "TxRefAmp": 240.392,
  "WipMemBlock": "5247a83c-c66c-4fd8-8158-0796c6a27278||Sequence: R016 ve11c/master r/e634e98; Dec 19 2017 11:00:25 by eja",
  "dcmmeta_affine": [
    [-1.998441219329834, 0.062105290591716766, -0.048738498240709305, 101.85820007324219],
    [0.07625110447406769, 1.838328242301941, -0.784050464630127, -63.894039154052734],
    [-0.02045183628797531, 0.7852975726127625, 1.8392633199691772, -74.81182861328125],
    [0.0, 0.0, 0.0, 1.0]
],
  "dcmmeta_reorient_transform": [
    [0.0, -1.0, 0.0, 103.0],
    [1.0, 0.0, 0.0, 0.0],
    [0.0, 0.0, 1.0, 0.0],
    [0.0, 0.0, 0.0, 1.0]
],
  "dcmmeta_shape": [104, 104, 60, 119],
  "dcmmeta_slice_dim": 2,
  "dcmmeta_version": 0.6,
  "global": {
    "const": {
      "AcquisitionMatrix": [104, 0, 0, 104],
      "AngioFlag": "N",
      "BitsAllocated": 16,
      "BitsStored": 16,
      "BodyPartExamined": "BRAIN",
      "Columns": 832,
      "EchoNumbers": 1,
      "EchoTime": 37.0,
      "EchoTrainLength": 104,
      "FlipAngle": 52.0,
      "HighBit": 15,
      "ImageOrientationPatient": [0.99922063278662, -0.0381255505817, -0.0102259183623, 0.03105264489284, 0.91916411290608, -0.3926487829992],
      "ImagePositionPatient": [-858.29399282467, -766.84983992686, 299.36660199661],
      "ImageType": [
        "ORIGINAL",
        "PRIMARY",
        "M",
        "MB",
        "ND",
        "MOSAIC"
],
      "ImagedNucleus": "1H",
      "ImagingFrequency": 123.259604,
      "InPlanePhaseEncodingDirection": "COL",
      "MRAcquisitionType": "2D",
      "MagneticFieldStrength": 3.0,
      "Manufacturer": "SIEMENS",
      "ManufacturerModelName": "Prisma_fit",
      "Modality": "MR",
      "NumberOfAverages": 1.0,
      "NumberOfPhaseEncodingSteps": 104,
      "PercentPhaseFieldOfView": 100.0,
      "PercentSampling": 100.0,
      "PerformedProcedureStepStartTime": "144947.947000",
      "PhotometricInterpretation": "MONOCHROME2",
      "PixelBandwidth": 2290.0,
      "PixelRepresentation": 0,
      "PixelSpacing": [2.0, 2.0],
      "ProtocolName": "func_task-relational_run-1",
      "RepetitionTime": 1490.0,
      "Rows": 832,
      "SAR": 0.03658484554099,
      "SamplesPerPixel": 1,
      "ScanOptions": "FS",
      "ScanningSequence": "EP",
      "SequenceName": "epfid2d1_104",
      "SequenceVariant": [
        "SK",
        "SS"
],
      "SeriesDescription": "func_task-relational_run-1",
      "SeriesNumber": 15,
      "SeriesTime": "152525.065000",
      "SliceLocation": -46.233458452585,
      "SliceThickness": 2.0,
      "SmallestImagePixelValue": 0,
      "SoftwareVersions": "syngo MR E11",
      "SpacingBetweenSlices": 2.0000000023508,
      "SpecificCharacterSet": "ISO_IR 100",
      "StudyID": "1",
      "StudyTime": "144947.878000",
      "TransmitCoilName": "Body",
      "VariableFlipAngleFlag": "N",
      "WindowCenterWidthExplanation": "Algo1",
      "dBdt": 0.0},
    "slices": {}
  },
  "time": {
    "samples": {
      "AcquisitionNumber": [1, 2, 3, 4, 5, 6, 7, 8, 9, 10, 11, 12, 13, 14, 15, 16, 17, 18, 19, 20, 21, 22, 23, 24, 25, 26, 27, 28, 29, 30, 31, 32, 33, 34, 35, 36, 37, 38, 39, 40, 41, 42, 43, 44, 45, 46, 47, 48, 49, 50, 51, 52, 53, 54, 55, 56, 57, 58, 59, 60, 61, 62, 63, 64, 65, 66, 67, 68, 69, 70, 71, 72, 73, 74, 75, 76, 77, 78, 79, 80, 81, 82, 83, 84, 85, 86, 87, 88, 89, 90, 91, 92, 93, 94, 95, 96, 97, 98, 99, 100, 101, 102, 103, 104, 105, 106, 107, 108, 109, 110, 111, 112, 113, 114, 115, 116, 117, 118, 119],
      "AcquisitionTime": ["152403.945000", "152405.435000", "152406.925000", "152408.415000", "152409.905000", "152411.395000", "152412.885000", "152414.375000", "152415.865000", "152417.355000", "152418.845000", "152420.335000", "152421.825000", "152423.315000", "152424.805000", "152426.295000", "152427.785000", "152429.275000", "152430.765000", "152432.255000", "152433.745000", "152435.235000", "152436.725000", "152438.215000", "152439.705000", "152441.195000", "152442.685000", "152444.175000", "152445.665000", "152447.155000", "152448.645000", "152450.135000", "152451.625000", "152453.115000", "152454.605000", "152456.095000", "152457.585000", "152459.075000", "152500.565000", "152502.055000", "152503.545000", "152505.035000", "152506.525000", "152508.015000", "152509.505000", "152510.995000", "152512.485000", "152513.975000", "152515.465000", "152516.955000", "152518.445000", "152519.935000", "152521.425000", "152522.915000", "152524.405000", "152525.895000", "152527.385000", "152528.875000", "152530.365000", "152531.855000", "152533.345000", "152534.835000", "152536.325000", "152537.815000", "152539.305000", "152540.795000", "152542.285000", "152543.775000", "152545.265000", "152546.755000", "152548.245000", "152549.735000", "152551.225000", "152552.715000", "152554.205000", "152555.695000", "152557.185000", "152558.675000", "152600.165000", "152601.655000", "152603.145000", "152604.635000", "152606.125000", "152607.615000", "152609.105000", "152610.595000", "152612.085000", "152613.575000", "152615.065000", "152616.555000", "152618.045000", "152619.535000", "152621.025000", "152622.515000", "152624.005000", "152625.495000", "152626.985000", "152628.475000", "152629.965000", "152631.455000", "152632.945000", "152634.435000", "152635.925000", "152637.415000", "152638.905000", "152640.395000", "152641.885000", "152643.375000", "152644.865000", "152646.355000", "152647.845000", "152649.335000", "152650.825000", "152652.315000", "152653.805000", "152655.295000", "152656.785000", "152658.275000", "152659.765000"],
      "ContentTime": ["152525.068000", "152525.072000", "152525.075000", "152525.088000", "152525.092000", "152525.094000", "152525.097000", "152525.100000", "152525.103000", "152525.111000", "152525.114000", "152525.143000", "152525.152000", "152525.155000", "152525.158000", "152525.161000", "152525.164000", "152525.166000", "152525.169000", "152525.172000", "152525.175000", "152525.178000", "152525.180000", "152525.191000", "152525.194000", "152545.038000", "152545.041000", "152545.044000", "152545.047000", "152545.049000", "152545.066000", "152545.069000", "152545.071000", "152545.074000", "152545.077000", "152545.080000", "152545.083000", "152545.086000", "152545.088000", "152545.091000", "152545.094000", "152545.097000", "152545.100000", "152545.103000", "152545.106000", "152605.037000", "152605.040000", "152605.043000", "152605.046000", "152605.048000", "152605.052000", "152605.054000", "152605.057000", "152605.063000", "152605.066000", "152605.069000", "152605.072000", "152605.075000", "152605.078000", "152605.081000", "152605.084000", "152605.086000", "152605.089000", "152605.092000", "152605.095000", "152625.037000", "152625.040000", "152625.043000", "152625.045000", "152625.048000", "152625.051000", "152625.054000", "152625.057000", "152625.060000", "152625.063000", "152625.066000", "152625.068000", "152625.071000", "152625.074000", "152625.077000", "152625.080000", "152625.083000", "152625.086000", "152625.089000", "152625.091000", "152625.100000", "152645.037000", "152645.040000", "152645.043000", "152645.046000", "152645.049000", "152645.051000", "152645.054000", "152645.057000", "152645.060000", "152645.063000", "152645.066000", "152645.068000", "152645.071000", "152645.074000", "152645.077000", "152645.080000", "152645.083000", "152645.086000", "152645.089000", "152645.091000", "152702.019000", "152702.022000", "152702.025000", "152702.027000", "152702.030000", "152702.033000", "152702.036000", "152702.039000", "152702.042000", "152702.045000", "152702.048000", "152702.051000", "152702.054000"],
      "InstanceCreationTime": ["152525.068000", "152525.072000", "152525.075000", "152525.088000", "152525.092000", "152525.094000", "152525.097000", "152525.100000", "152525.103000", "152525.111000", "152525.114000", "152525.143000", "152525.152000", "152525.155000", "152525.158000", "152525.161000", "152525.164000", "152525.166000", "152525.169000", "152525.172000", "152525.175000", "152525.178000", "152525.180000", "152525.191000", "152525.194000", "152545.038000", "152545.041000", "152545.044000", "152545.047000", "152545.049000", "152545.066000", "152545.069000", "152545.071000", "152545.074000", "152545.077000", "152545.080000", "152545.083000", "152545.086000", "152545.088000", "152545.091000", "152545.094000", "152545.097000", "152545.100000", "152545.103000", "152545.106000", "152605.037000", "152605.040000", "152605.043000", "152605.046000", "152605.048000", "152605.052000", "152605.054000", "152605.057000", "152605.063000", "152605.066000", "152605.069000", "152605.072000", "152605.075000", "152605.078000", "152605.081000", "152605.084000", "152605.086000", "152605.089000", "152605.092000", "152605.095000", "152625.037000", "152625.040000", "152625.043000", "152625.045000", "152625.048000", "152625.051000", "152625.054000", "152625.057000", "152625.060000", "152625.063000", "152625.066000", "152625.068000", "152625.071000", "152625.074000", "152625.077000", "152625.080000", "152625.083000", "152625.086000", "152625.089000", "152625.091000", "152625.100000", "152645.037000", "152645.040000", "152645.043000", "152645.046000", "152645.049000", "152645.051000", "152645.054000", "152645.057000", "152645.060000", "152645.063000", "152645.066000", "152645.068000", "152645.071000", "152645.074000", "152645.077000", "152645.080000", "152645.083000", "152645.086000", "152645.089000", "152645.091000", "152702.019000", "152702.022000", "152702.025000", "152702.027000", "152702.030000", "152702.033000", "152702.036000", "152702.039000", "152702.042000", "152702.045000", "152702.048000", "152702.051000", "152702.054000"],
      "InstanceNumber": [1, 2, 3, 4, 5, 6, 7, 8, 9, 10, 11, 12, 13, 14, 15, 16, 17, 18, 19, 20, 21, 22, 23, 24, 25, 26, 27, 28, 29, 30, 31, 32, 33, 34, 35, 36, 37, 38, 39, 40, 41, 42, 43, 44, 45, 46, 47, 48, 49, 50, 51, 52, 53, 54, 55, 56, 57, 58, 59, 60, 61, 62, 63, 64, 65, 66, 67, 68, 69, 70, 71, 72, 73, 74, 75, 76, 77, 78, 79, 80, 81, 82, 83, 84, 85, 86, 87, 88, 89, 90, 91, 92, 93, 94, 95, 96, 97, 98, 99, 100, 101, 102, 103, 104, 105, 106, 107, 108, 109, 110, 111, 112, 113, 114, 115, 116, 117, 118, 119],
      "LargestImagePixelValue": [55772, 53911, 52875, 52398, 52243, 52085, 51859, 50663, 50877, 51343, 51471, 51792, 52401, 52830, 51634, 52045, 51288, 51715, 51637, 51887, 51619, 52488, 52535, 52913, 53204, 52716, 53244, 53475, 53029, 52680, 53226, 52933, 53040, 52910, 53184, 52703, 53483, 53201, 52988, 52738, 53029, 52919, 53083, 53551, 52131, 52933, 53138, 53053, 52844, 53817, 53467, 52867, 53085, 52600, 53361, 53118, 52541, 52754, 52770, 52715, 52621, 52904, 52521, 52818, 52435, 52965, 52511, 52811, 51347, 52933, 51516, 50825, 50810, 51159, 52569, 52775, 53078, 53915, 54082, 54075, 53668, 53567, 53429, 53114, 53332, 53614, 53853, 53843, 53890, 53805, 53992, 53770, 54050, 53911, 53513, 53090, 53059, 53345, 52777, 52439, 52524, 52975, 53539, 53209, 53124, 52944, 53475, 52801, 52584, 52952, 53408, 53400, 52631, 52599, 52540, 52511, 52706, 52731, 52682],
      "WindowCenter": [10355.0, 10288.0, 10269.0, 10260.0, 10245.0, 10221.0, 10225.0, 10251.0, 10250.0, 10229.0, 10226.0, 10223.0, 10223.0, 10220.0, 10210.0, 10210.0, 10204.0, 10199.0, 10206.0, 10207.0, 10218.0, 10238.0, 10249.0, 10248.0, 10261.0, 10256.0, 10264.0, 10263.0, 10258.0, 10260.0, 10264.0, 10259.0, 10257.0, 10248.0, 10240.0, 10240.0, 10246.0, 10247.0, 10248.0, 10244.0, 10246.0, 10255.0, 10291.0, 10286.0, 10255.0, 10250.0, 10246.0, 10244.0, 10230.0, 10235.0, 10236.0, 10230.0, 10236.0, 10231.0, 10245.0, 10239.0, 10238.0, 10254.0, 10258.0, 10242.0, 10240.0, 10231.0, 10235.0, 10248.0, 10242.0, 10262.0, 10267.0, 10254.0, 10231.0, 10239.0, 10249.0, 10264.0, 10226.0, 10212.0, 10198.0, 10202.0, 10210.0, 10202.0, 10183.0, 10163.0, 10163.0, 10171.0, 10181.0, 10192.0, 10199.0, 10213.0, 10230.0, 10236.0, 10242.0, 10252.0, 10261.0, 10264.0, 10269.0, 10272.0, 10262.0, 10254.0, 10246.0, 10260.0, 10263.0, 10258.0, 10264.0, 10271.0, 10260.0, 10278.0, 10279.0, 10270.0, 10273.0, 10249.0, 10242.0, 10258.0, 10254.0, 10255.0, 10265.0, 10258.0, 10255.0, 10241.0, 10228.0, 10218.0, 10208.0],
      "WindowWidth": [22323.0, 22134.0, 22072.0, 22041.0, 21995.0, 21929.0, 21940.0, 21998.0, 21997.0, 21945.0, 21936.0, 21926.0, 21925.0, 21918.0, 21896.0, 21894.0, 21896.0, 21874.0, 21888.0, 21895.0, 21918.0, 21958.0, 21985.0, 21979.0, 22006.0, 21997.0, 22015.0, 22011.0, 22002.0, 22014.0, 22014.0, 22005.0, 21998.0, 21981.0, 21966.0, 21963.0, 21977.0, 21977.0, 21987.0, 21983.0, 21977.0, 21997.0, 22077.0, 22069.0, 21994.0, 21990.0, 21973.0, 21967.0, 21939.0, 21948.0, 21954.0, 21941.0, 21954.0, 21944.0, 21971.0, 21957.0, 21954.0, 21989.0, 22010.0, 21968.0, 21971.0, 21941.0, 21960.0, 21984.0, 21975.0, 22013.0, 22030.0, 22006.0, 21949.0, 21960.0, 21988.0, 22022.0, 21935.0, 21903.0, 21866.0, 21876.0, 21890.0, 21871.0, 21827.0, 21779.0, 21777.0, 21803.0, 21824.0, 21854.0, 21868.0, 21897.0, 21932.0, 21949.0, 21963.0, 21985.0, 22005.0, 22014.0, 22021.0, 22036.0, 22008.0, 21995.0, 21974.0, 22005.0, 22015.0, 22010.0, 22020.0, 22040.0, 22007.0, 22053.0, 22063.0, 22033.0, 22040.0, 21979.0, 21970.0, 22012.0, 21993.0, 21996.0, 22033.0, 22016.0, 22004.0, 21976.0, 21943.0, 21920.0, 21899.0]
    },
    "slices": {}
  }
}