{
  "AcquisitionMatrixPE": 104,
  "AcquisitionNumber": 1,
  "AcquisitionTime": "14:53:14.560000",
  "BandwidthPerPixelPhaseEncode": 17.17,
  "BaseResolution": 104,
  "BodyPartExamined": "BRAIN",
  "CoilString": "HC1-7;NC1_2",
  "ConsistencyInfo": "N4_VE11C_LATEST_20160120",
  "ConversionSoftware": "dcm2niix",
  "ConversionSoftwareVersion": "v1.0.20190720  (JP2:OpenJPEG) GCC7.3.0",
  "DerivedVendorReportedEchoSpacing": 0.000560011,
  "DeviceSerialNumber": "167006",
  "DwellTime": 2.1e-06,
  "EchoTime": 0.037,
  "EchoTrainLength": 104,
  "EffectiveEchoSpacing": 0.000560011,
  "FlipAngle": 52,
  "ImageComments": "Unaliased_MB4_PE3_LB",
  "ImageOrientationPatientDICOM": [0.999221, -0.0381256, -0.0102259, 0.0310526, 0.919164, -0.392649],
  "ImageType": [
    "ORIGINAL",
    "PRIMARY",
    "M",
    "MB",
    "ND",
    "MOSAIC"
],
  "ImagingFrequency": 123.26,
  "InPlanePhaseEncodingDirectionDICOM": "COL",
  "InstitutionAddress": "Chemin_Queen-Mary_4565_Montreal_District_CA_H3W_1W5",
  "InstitutionName": "IUGM",
  "InstitutionalDepartmentName": "Department",
  "MRAcquisitionType": "2D",
  "MagneticFieldStrength": 3,
  "Manufacturer": "Siemens",
  "ManufacturersModelName": "Prisma_fit",
  "Modality": "MR",
  "MultibandAccelerationFactor": 4,
  "PartialFourier": 1,
  "PatientPosition": "HFS",
  "PercentPhaseFOV": 100,
  "PhaseEncodingDirection": "j",
  "PhaseEncodingSteps": 104,
  "PhaseResolution": 1,
  "PixelBandwidth": 2290,
  "ProcedureStepDescription": "hcptrt_generic",
  "ProtocolName": "func_task-restingstate_run-1",
  "PulseSequenceDetails": "%CustomerSeq%_cmrr_mbep2d_bold",
  "ReceiveCoilActiveElements": "HC1-7;NC1,2",
  "ReceiveCoilName": "HeadNeck_64",
  "ReconMatrixPE": 104,
  "RepetitionTime": 1.49,
  "SAR": 0.0370587,
  "ScanOptions": "FS",
  "ScanningSequence": "EP",
  "SequenceName": "epfid2d1_104",
  "SequenceVariant": "SK_SS",
  "SeriesDescription": "func_task-restingstate_run-1",
  "SeriesNumber": 7,
  "ShimSetting": [606, -7241, -8850, 405, 10, -356, 28, 38],
  "SliceThickness": 2,
  "SliceTiming": [0, 0.785, 0.0975, 0.8825, 0.1975, 0.98, 0.295, 1.0775, 0.3925, 1.1775, 0.49, 1.275, 0.5875, 1.3725, 0.6875, 0, 0.785, 0.0975, 0.8825, 0.1975, 0.98, 0.295, 1.0775, 0.3925, 1.1775, 0.49, 1.275, 0.5875, 1.3725, 0.6875, 0, 0.785, 0.0975, 0.8825, 0.1975, 0.98, 0.295, 1.0775, 0.3925, 1.1775, 0.49, 1.275, 0.5875, 1.3725, 0.6875, 0, 0.785, 0.0975, 0.8825, 0.1975, 0.98, 0.295, 1.0775, 0.3925, 1.1775, 0.49, 1.275, 0.5875, 1.3725, 0.6875],
  "SoftwareVersions": "syngo_MR_E11",
  "SpacingBetweenSlices": 2,
  "StationName": "MRC35049",
  "TaskName": "restingstate",
  "TotalReadoutTime": 0.0576811,
  "TxRefAmp": 240.392,
  "WipMemBlock": "d66bd972-c521-4005-ad1d-437b085c5eeb||Sequence: R016 ve11c/master r/e634e98; Dec 19 2017 11:00:25 by eja",
  "dcmmeta_affine": [
    [-1.998441219329834, 0.062105290591716766, -0.048738498240709305, 101.85820007324219],
    [0.07625110447406769, 1.838328242301941, -0.784050464630127, -63.894039154052734],
    [-0.02045183628797531, 0.7852975726127625, 1.8392633199691772, -74.81182861328125],
    [0.0, 0.0, 0.0, 1.0]
],
  "dcmmeta_reorient_transform": [
    [0.0, -1.0, 0.0, 103.0],
    [1.0, 0.0, 0.0, 0.0],
    [0.0, 0.0, 1.0, 0.0],
    [0.0, 0.0, 0.0, 1.0]
],
  "dcmmeta_shape": [104, 104, 60, 600],
  "dcmmeta_slice_dim": 2,
  "dcmmeta_version": 0.6,
  "global": {
    "const": {
      "AcquisitionMatrix": [104, 0, 0, 104],
      "AngioFlag": "N",
      "BitsAllocated": 16,
      "BitsStored": 16,
      "BodyPartExamined": "BRAIN",
      "Columns": 832,
      "EchoNumbers": 1,
      "EchoTime": 37.0,
      "EchoTrainLength": 104,
      "FlipAngle": 52.0,
      "HighBit": 15,
      "ImageOrientationPatient": [0.99922063278662, -0.0381255505817, -0.0102259183623, 0.03105264489284, 0.91916411290608, -0.3926487829992],
      "ImagePositionPatient": [-858.29399282467, -766.84983992686, 299.36660199661],
      "ImageType": [
        "ORIGINAL",
        "PRIMARY",
        "M",
        "MB",
        "ND",
        "MOSAIC"
],
      "ImagedNucleus": "1H",
      "ImagingFrequency": 123.259585,
      "InPlanePhaseEncodingDirection": "COL",
      "MRAcquisitionType": "2D",
      "MagneticFieldStrength": 3.0,
      "Manufacturer": "SIEMENS",
      "ManufacturerModelName": "Prisma_fit",
      "Modality": "MR",
      "NumberOfAverages": 1.0,
      "NumberOfPhaseEncodingSteps": 104,
      "PercentPhaseFieldOfView": 100.0,
      "PercentSampling": 100.0,
      "PerformedProcedureStepStartTime": "144947.947000",
      "PhotometricInterpretation": "MONOCHROME2",
      "PixelBandwidth": 2290.0,
      "PixelRepresentation": 0,
      "PixelSpacing": [2.0, 2.0],
      "ProtocolName": "func_task-restingstate_run-1",
      "RepetitionTime": 1490.0,
      "Rows": 832,
      "SAR": 0.03705866068371,
      "SamplesPerPixel": 1,
      "ScanOptions": "FS",
      "ScanningSequence": "EP",
      "SequenceName": "epfid2d1_104",
      "SequenceVariant": [
        "SK",
        "SS"
],
      "SeriesDescription": "func_task-restingstate_run-1",
      "SeriesNumber": 7,
      "SeriesTime": "145434.187000",
      "SliceLocation": -46.233458452585,
      "SliceThickness": 2.0,
      "SmallestImagePixelValue": 0,
      "SoftwareVersions": "syngo MR E11",
      "SpacingBetweenSlices": 2.0000000023508,
      "SpecificCharacterSet": "ISO_IR 100",
      "StudyID": "1",
      "StudyTime": "144947.878000",
      "TransmitCoilName": "Body",
      "VariableFlipAngleFlag": "N",
      "WindowCenterWidthExplanation": "Algo1",
      "dBdt": 0.0},
    "slices": {}
  },
  "time": {
    "samples": {
      "AcquisitionNumber": [1, 2, 3, 4, 5, 6, 7, 8, 9, 10, 11, 12, 13, 14, 15, 16, 17, 18, 19, 20, 21, 22, 23, 24, 25, 26, 27, 28, 29, 30, 31, 32, 33, 34, 35, 36, 37, 38, 39, 40, 41, 42, 43, 44, 45, 46, 47, 48, 49, 50, 51, 52, 53, 54, 55, 56, 57, 58, 59, 60, 61, 62, 63, 64, 65, 66, 67, 68, 69, 70, 71, 72, 73, 74, 75, 76, 77, 78, 79, 80, 81, 82, 83, 84, 85, 86, 87, 88, 89, 90, 91, 92, 93, 94, 95, 96, 97, 98, 99, 100, 101, 102, 103, 104, 105, 106, 107, 108, 109, 110, 111, 112, 113, 114, 115, 116, 117, 118, 119, 120, 121, 122, 123, 124, 125, 126, 127, 128, 129, 130, 131, 132, 133, 134, 135, 136, 137, 138, 139, 140, 141, 142, 143, 144, 145, 146, 147, 148, 149, 150, 151, 152, 153, 154, 155, 156, 157, 158, 159, 160, 161, 162, 163, 164, 165, 166, 167, 168, 169, 170, 171, 172, 173, 174, 175, 176, 177, 178, 179, 180, 181, 182, 183, 184, 185, 186, 187, 188, 189, 190, 191, 192, 193, 194, 195, 196, 197, 198, 199, 200, 201, 202, 203, 204, 205, 206, 207, 208, 209, 210, 211, 212, 213, 214, 215, 216, 217, 218, 219, 220, 221, 222, 223, 224, 225, 226, 227, 228, 229, 230, 231, 232, 233, 234, 235, 236, 237, 238, 239, 240, 241, 242, 243, 244, 245, 246, 247, 248, 249, 250, 251, 252, 253, 254, 255, 256, 257, 258, 259, 260, 261, 262, 263, 264, 265, 266, 267, 268, 269, 270, 271, 272, 273, 274, 275, 276, 277, 278, 279, 280, 281, 282, 283, 284, 285, 286, 287, 288, 289, 290, 291, 292, 293, 294, 295, 296, 297, 298, 299, 300, 301, 302, 303, 304, 305, 306, 307, 308, 309, 310, 311, 312, 313, 314, 315, 316, 317, 318, 319, 320, 321, 322, 323, 324, 325, 326, 327, 328, 329, 330, 331, 332, 333, 334, 335, 336, 337, 338, 339, 340, 341, 342, 343, 344, 345, 346, 347, 348, 349, 350, 351, 352, 353, 354, 355, 356, 357, 358, 359, 360, 361, 362, 363, 364, 365, 366, 367, 368, 369, 370, 371, 372, 373, 374, 375, 376, 377, 378, 379, 380, 381, 382, 383, 384, 385, 386, 387, 388, 389, 390, 391, 392, 393, 394, 395, 396, 397, 398, 399, 400, 401, 402, 403, 404, 405, 406, 407, 408, 409, 410, 411, 412, 413, 414, 415, 416, 417, 418, 419, 420, 421, 422, 423, 424, 425, 426, 427, 428, 429, 430, 431, 432, 433, 434, 435, 436, 437, 438, 439, 440, 441, 442, 443, 444, 445, 446, 447, 448, 449, 450, 451, 452, 453, 454, 455, 456, 457, 458, 459, 460, 461, 462, 463, 464, 465, 466, 467, 468, 469, 470, 471, 472, 473, 474, 475, 476, 477, 478, 479, 480, 481, 482, 483, 484, 485, 486, 487, 488, 489, 490, 491, 492, 493, 494, 495, 496, 497, 498, 499, 500, 501, 502, 503, 504, 505, 506, 507, 508, 509, 510, 511, 512, 513, 514, 515, 516, 517, 518, 519, 520, 521, 522, 523, 524, 525, 526, 527, 528, 529, 530, 531, 532, 533, 534, 535, 536, 537, 538, 539, 540, 541, 542, 543, 544, 545, 546, 547, 548, 549, 550, 551, 552, 553, 554, 555, 556, 557, 558, 559, 560, 561, 562, 563, 564, 565, 566, 567, 568, 569, 570, 571, 572, 573, 574, 575, 576, 577, 578, 579, 580, 581, 582, 583, 584, 585, 586, 587, 588, 589, 590, 591, 592, 593, 594, 595, 596, 597, 598, 599, 600],
      "AcquisitionTime": ["145314.560000", "145316.050000", "145317.540000", "145319.030000", "145320.520000", "145322.010000", "145323.500000", "145324.990000", "145326.480000", "145327.970000", "145329.460000", "145330.950000", "145332.440000", "145333.930000", "145335.420000", "145336.910000", "145338.400000", "145339.890000", "145341.380000", "145342.870000", "145344.360000", "145345.850000", "145347.340000", "145348.830000", "145350.320000", "145351.810000", "145353.300000", "145354.790000", "145356.280000", "145357.770000", "145359.260000", "145400.750000", "145402.240000", "145403.730000", "145405.220000", "145406.710000", "145408.200000", "145409.690000", "145411.180000", "145412.670000", "145414.160000", "145415.650000", "145417.140000", "145418.630000", "145420.120000", "145421.610000", "145423.100000", "145424.590000", "145426.080000", "145427.570000", "145429.060000", "145430.550000", "145432.040000", "145433.530000", "145435.020000", "145436.510000", "145438.000000", "145439.490000", "145440.980000", "145442.470000", "145443.960000", "145445.450000", "145446.940000", "145448.430000", "145449.920000", "145451.410000", "145452.900000", "145454.390000", "145455.880000", "145457.370000", "145458.860000", "145500.350000", "145501.840000", "145503.330000", "145504.820000", "145506.310000", "145507.800000", "145509.290000", "145510.780000", "145512.270000", "145513.760000", "145515.250000", "145516.740000", "145518.230000", "145519.720000", "145521.210000", "145522.700000", "145524.190000", "145525.680000", "145527.170000", "145528.660000", "145530.150000", "145531.640000", "145533.130000", "145534.620000", "145536.110000", "145537.600000", "145539.090000", "145540.580000", "145542.070000", "145543.560000", "145545.050000", "145546.540000", "145548.030000", "145549.520000", "145551.010000", "145552.500000", "145553.990000", "145555.480000", "145556.970000", "145558.460000", "145559.950000", "145601.440000", "145602.930000", "145604.420000", "145605.910000", "145607.400000", "145608.890000", "145610.380000", "145611.870000", "145613.360000", "145614.850000", "145616.340000", "145617.830000", "145619.320000", "145620.810000", "145622.300000", "145623.790000", "145625.280000", "145626.770000", "145628.260000", "145629.750000", "145631.240000", "145632.730000", "145634.220000", "145635.710000", "145637.200000", "145638.690000", "145640.180000", "145641.670000", "145643.160000", "145644.650000", "145646.140000", "145647.630000", "145649.120000", "145650.610000", "145652.100000", "145653.590000", "145655.080000", "145656.570000", "145658.060000", "145659.550000", "145701.040000", "145702.530000", "145704.020000", "145705.510000", "145707.000000", "145708.490000", "145709.980000", "145711.470000", "145712.960000", "145714.450000", "145715.940000", "145717.430000", "145718.920000", "145720.410000", "145721.900000", "145723.390000", "145724.880000", "145726.370000", "145727.860000", "145729.350000", "145730.840000", "145732.330000", "145733.820000", "145735.310000", "145736.800000", "145738.290000", "145739.780000", "145741.270000", "145742.760000", "145744.250000", "145745.740000", "145747.230000", "145748.720000", "145750.210000", "145751.700000", "145753.190000", "145754.680000", "145756.170000", "145757.660000", "145759.150000", "145800.640000", "145802.130000", "145803.620000", "145805.110000", "145806.600000", "145808.090000", "145809.580000", "145811.070000", "145812.560000", "145814.050000", "145815.540000", "145817.030000", "145818.520000", "145820.010000", "145821.500000", "145822.990000", "145824.480000", "145825.970000", "145827.460000", "145828.950000", "145830.440000", "145831.930000", "145833.420000", "145834.910000", "145836.400000", "145837.890000", "145839.380000", "145840.870000", "145842.360000", "145843.850000", "145845.340000", "145846.830000", "145848.320000", "145849.810000", "145851.300000", "145852.790000", "145854.280000", "145855.770000", "145857.260000", "145858.750000", "145900.240000", "145901.730000", "145903.220000", "145904.710000", "145906.200000", "145907.690000", "145909.180000", "145910.670000", "145912.160000", "145913.650000", "145915.140000", "145916.630000", "145918.120000", "145919.610000", "145921.100000", "145922.590000", "145924.080000", "145925.570000", "145927.060000", "145928.550000", "145930.040000", "145931.530000", "145933.020000", "145934.510000", "145936.000000", "145937.490000", "145938.980000", "145940.470000", "145941.960000", "145943.450000", "145944.940000", "145946.430000", "145947.920000", "145949.410000", "145950.900000", "145952.390000", "145953.880000", "145955.370000", "145956.860000", "145958.350000", "145959.840000", "150001.330000", "150002.820000", "150004.310000", "150005.800000", "150007.290000", "150008.780000", "150010.270000", "150011.760000", "150013.250000", "150014.740000", "150016.230000", "150017.720000", "150019.210000", "150020.700000", "150022.190000", "150023.680000", "150025.170000", "150026.660000", "150028.150000", "150029.640000", "150031.130000", "150032.620000", "150034.110000", "150035.600000", "150037.090000", "150038.580000", "150040.070000", "150041.560000", "150043.050000", "150044.540000", "150046.030000", "150047.520000", "150049.010000", "150050.500000", "150051.990000", "150053.480000", "150054.970000", "150056.460000", "150057.950000", "150059.440000", "150100.930000", "150102.420000", "150103.910000", "150105.400000", "150106.890000", "150108.380000", "150109.870000", "150111.360000", "150112.850000", "150114.340000", "150115.830000", "150117.320000", "150118.810000", "150120.300000", "150121.790000", "150123.280000", "150124.770000", "150126.260000", "150127.750000", "150129.240000", "150130.730000", "150132.220000", "150133.710000", "150135.200000", "150136.690000", "150138.180000", "150139.670000", "150141.160000", "150142.650000", "150144.140000", "150145.630000", "150147.120000", "150148.610000", "150150.100000", "150151.590000", "150153.080000", "150154.570000", "150156.060000", "150157.550000", "150159.040000", "150200.530000", "150202.020000", "150203.510000", "150205.000000", "150206.490000", "150207.980000", "150209.470000", "150210.960000", "150212.450000", "150213.940000", "150215.430000", "150216.920000", "150218.410000", "150219.900000", "150221.390000", "150222.880000", "150224.370000", "150225.860000", "150227.350000", "150228.840000", "150230.330000", "150231.820000", "150233.310000", "150234.800000", "150236.290000", "150237.780000", "150239.270000", "150240.760000", "150242.250000", "150243.740000", "150245.230000", "150246.720000", "150248.210000", "150249.700000", "150251.190000", "150252.680000", "150254.170000", "150255.660000", "150257.150000", "150258.640000", "150300.130000", "150301.620000", "150303.110000", "150304.600000", "150306.090000", "150307.580000", "150309.070000", "150310.560000", "150312.050000", "150313.540000", "150315.030000", "150316.520000", "150318.010000", "150319.500000", "150320.990000", "150322.480000", "150323.970000", "150325.460000", "150326.950000", "150328.440000", "150329.930000", "150331.420000", "150332.910000", "150334.400000", "150335.890000", "150337.380000", "150338.870000", "150340.360000", "150341.850000", "150343.340000", "150344.830000", "150346.320000", "150347.810000", "150349.300000", "150350.790000", "150352.280000", "150353.770000", "150355.260000", "150356.750000", "150358.240000", "150359.730000", "150401.220000", "150402.710000", "150404.200000", "150405.690000", "150407.180000", "150408.670000", "150410.160000", "150411.650000", "150413.140000", "150414.630000", "150416.120000", "150417.610000", "150419.100000", "150420.590000", "150422.080000", "150423.570000", "150425.060000", "150426.550000", "150428.040000", "150429.530000", "150431.020000", "150432.510000", "150434.000000", "150435.490000", "150436.980000", "150438.470000", "150439.960000", "150441.450000", "150442.940000", "150444.430000", "150445.920000", "150447.410000", "150448.900000", "150450.390000", "150451.880000", "150453.370000", "150454.860000", "150456.350000", "150457.840000", "150459.330000", "150500.820000", "150502.310000", "150503.800000", "150505.290000", "150506.780000", "150508.270000", "150509.760000", "150511.250000", "150512.740000", "150514.230000", "150515.720000", "150517.210000", "150518.700000", "150520.190000", "150521.680000", "150523.170000", "150524.660000", "150526.150000", "150527.640000", "150529.130000", "150530.620000", "150532.110000", "150533.600000", "150535.090000", "150536.580000", "150538.070000", "150539.560000", "150541.050000", "150542.540000", "150544.030000", "150545.520000", "150547.010000", "150548.500000", "150549.990000", "150551.480000", "150552.970000", "150554.460000", "150555.950000", "150557.440000", "150558.930000", "150600.420000", "150601.910000", "150603.400000", "150604.890000", "150606.380000", "150607.870000", "150609.360000", "150610.850000", "150612.340000", "150613.830000", "150615.320000", "150616.810000", "150618.300000", "150619.790000", "150621.280000", "150622.770000", "150624.260000", "150625.750000", "150627.240000", "150628.730000", "150630.220000", "150631.710000", "150633.200000", "150634.690000", "150636.180000", "150637.670000", "150639.160000", "150640.650000", "150642.140000", "150643.630000", "150645.120000", "150646.610000", "150648.100000", "150649.590000", "150651.080000", "150652.570000", "150654.060000", "150655.550000", "150657.040000", "150658.530000", "150700.020000", "150701.510000", "150703.000000", "150704.490000", "150705.980000", "150707.470000", "150708.960000", "150710.450000", "150711.940000", "150713.430000", "150714.920000", "150716.410000", "150717.900000", "150719.390000", "150720.880000", "150722.370000", "150723.860000", "150725.350000", "150726.840000", "150728.330000", "150729.820000", "150731.310000", "150732.800000", "150734.290000", "150735.780000", "150737.270000", "150738.760000", "150740.250000", "150741.740000", "150743.230000", "150744.720000", "150746.210000", "150747.700000", "150749.190000", "150750.680000", "150752.170000", "150753.660000", "150755.150000", "150756.640000", "150758.130000", "150759.620000", "150801.110000", "150802.600000", "150804.090000", "150805.580000", "150807.070000"],
      "ContentTime": ["145434.190000", "145434.193000", "145434.203000", "145434.206000", "145434.208000", "145434.211000", "145434.220000", "145434.223000", "145434.225000", "145434.228000", "145434.231000", "145434.234000", "145434.237000", "145434.240000", "145434.246000", "145434.249000", "145434.251000", "145434.254000", "145434.257000", "145434.260000", "145434.263000", "145434.265000", "145434.268000", "145434.271000", "145434.274000", "145454.145000", "145454.148000", "145454.151000", "145454.154000", "145454.156000", "145454.159000", "145454.162000", "145454.165000", "145454.168000", "145454.171000", "145454.174000", "145454.176000", "145454.179000", "145454.182000", "145454.185000", "145454.188000", "145454.191000", "145454.194000", "145454.196000", "145454.206000", "145514.145000", "145514.149000", "145514.152000", "145514.155000", "145514.158000", "145514.161000", "145514.163000", "145514.166000", "145514.169000", "145514.172000", "145514.175000", "145514.178000", "145514.181000", "145514.183000", "145514.186000", "145514.189000", "145514.192000", "145514.195000", "145514.198000", "145514.200000", "145534.145000", "145534.148000", "145534.150000", "145534.153000", "145534.156000", "145534.159000", "145534.162000", "145534.165000", "145534.168000", "145534.170000", "145534.173000", "145534.176000", "145534.179000", "145534.182000", "145534.185000", "145534.188000", "145534.191000", "145534.194000", "145534.199000", "145534.202000", "145534.204000", "145554.145000", "145554.148000", "145554.151000", "145554.154000", "145554.156000", "145554.159000", "145554.162000", "145554.165000", "145554.168000", "145554.171000", "145554.174000", "145554.176000", "145554.179000", "145554.182000", "145554.185000", "145554.188000", "145554.191000", "145554.193000", "145554.196000", "145554.199000", "145634.146000", "145634.149000", "145634.152000", "145634.154000", "145634.158000", "145634.160000", "145634.163000", "145634.173000", "145634.176000", "145634.179000", "145634.181000", "145634.184000", "145634.187000", "145634.190000", "145634.193000", "145634.196000", "145634.199000", "145634.201000", "145634.204000", "145634.207000", "145634.210000", "145634.213000", "145634.216000", "145634.219000", "145634.222000", "145634.226000", "145634.229000", "145714.145000", "145714.148000", "145714.151000", "145714.154000", "145714.157000", "145714.159000", "145714.162000", "145714.165000", "145714.168000", "145714.171000", "145714.173000", "145714.176000", "145714.179000", "145714.182000", "145714.185000", "145714.188000", "145714.191000", "145714.194000", "145714.197000", "145714.200000", "145714.202000", "145714.205000", "145714.208000", "145714.211000", "145714.214000", "145714.217000", "145714.219000", "145754.145000", "145754.148000", "145754.151000", "145754.154000", "145754.157000", "145754.159000", "145754.162000", "145754.165000", "145754.168000", "145754.171000", "145754.174000", "145754.176000", "145754.179000", "145754.201000", "145754.204000", "145754.207000", "145754.210000", "145754.212000", "145754.215000", "145754.218000", "145754.221000", "145754.224000", "145754.227000", "145754.229000", "145754.232000", "145754.235000", "145754.238000", "145834.145000", "145834.148000", "145834.151000", "145834.154000", "145834.157000", "145834.160000", "145834.162000", "145834.165000", "145834.168000", "145834.171000", "145834.174000", "145834.177000", "145834.179000", "145834.183000", "145834.185000", "145834.188000", "145834.191000", "145834.194000", "145834.197000", "145834.200000", "145834.202000", "145834.205000", "145834.208000", "145834.211000", "145834.214000", "145834.217000", "145834.220000", "145914.146000", "145914.149000", "145914.152000", "145914.155000", "145914.158000", "145914.160000", "145914.163000", "145914.166000", "145914.169000", "145914.172000", "145914.175000", "145914.177000", "145914.180000", "145914.183000", "145914.186000", "145914.189000", "145914.192000", "145914.195000", "145914.198000", "145914.200000", "145914.203000", "145914.206000", "145914.209000", "145914.212000", "145914.215000", "145914.218000", "145914.221000", "145954.145000", "145954.148000", "145954.151000", "145954.154000", "145954.157000", "145954.160000", "145954.162000", "145954.165000", "145954.168000", "145954.171000", "145954.174000", "145954.177000", "145954.180000", "145954.182000", "145954.185000", "145954.188000", "145954.191000", "145954.194000", "145954.197000", "145954.199000", "145954.202000", "145954.205000", "145954.208000", "145954.211000", "145954.213000", "145954.216000", "145954.225000", "150034.145000", "150034.148000", "150034.151000", "150034.154000", "150034.157000", "150034.159000", "150034.162000", "150034.165000", "150034.168000", "150034.171000", "150034.174000", "150034.177000", "150034.179000", "150034.182000", "150034.185000", "150034.188000", "150034.191000", "150034.193000", "150034.196000", "150034.199000", "150034.202000", "150034.205000", "150034.208000", "150034.211000", "150034.213000", "150034.216000", "150054.145000", "150054.148000", "150054.151000", "150054.154000", "150054.157000", "150054.160000", "150054.162000", "150054.165000", "150054.168000", "150054.171000", "150054.174000", "150054.177000", "150054.179000", "150054.183000", "150134.146000", "150134.149000", "150134.152000", "150134.155000", "150134.158000", "150134.161000", "150134.164000", "150134.166000", "150134.169000", "150134.172000", "150134.175000", "150134.178000", "150134.181000", "150134.184000", "150134.186000", "150134.189000", "150134.192000", "150134.195000", "150134.198000", "150134.202000", "150134.205000", "150134.208000", "150134.211000", "150134.214000", "150134.216000", "150134.219000", "150134.222000", "150214.145000", "150214.148000", "150214.151000", "150214.154000", "150214.157000", "150214.160000", "150214.162000", "150214.165000", "150214.168000", "150214.171000", "150214.174000", "150214.177000", "150214.180000", "150214.183000", "150214.185000", "150214.188000", "150214.191000", "150214.194000", "150214.197000", "150214.200000", "150214.203000", "150214.205000", "150214.208000", "150214.211000", "150214.214000", "150214.217000", "150214.232000", "150254.145000", "150254.148000", "150254.151000", "150254.154000", "150254.157000", "150254.160000", "150254.162000", "150254.165000", "150254.169000", "150254.173000", "150254.175000", "150254.178000", "150254.181000", "150254.184000", "150254.187000", "150254.190000", "150254.193000", "150254.196000", "150254.198000", "150254.201000", "150254.204000", "150254.207000", "150254.209000", "150254.212000", "150254.215000", "150254.218000", "150334.146000", "150334.149000", "150334.152000", "150334.155000", "150334.158000", "150334.161000", "150334.164000", "150334.166000", "150334.169000", "150334.172000", "150334.175000", "150334.178000", "150334.181000", "150334.184000", "150334.187000", "150334.189000", "150334.192000", "150334.195000", "150334.198000", "150334.201000", "150334.204000", "150334.207000", "150334.210000", "150334.222000", "150334.225000", "150334.228000", "150334.231000", "150414.145000", "150414.148000", "150414.151000", "150414.154000", "150414.156000", "150414.159000", "150414.162000", "150414.165000", "150414.168000", "150414.170000", "150414.173000", "150414.176000", "150414.179000", "150414.182000", "150414.185000", "150414.187000", "150414.191000", "150414.194000", "150414.196000", "150414.199000", "150414.202000", "150414.205000", "150414.208000", "150414.211000", "150414.214000", "150414.217000", "150414.220000", "150454.145000", "150454.148000", "150454.151000", "150454.154000", "150454.157000", "150454.159000", "150454.162000", "150454.165000", "150454.168000", "150454.171000", "150454.174000", "150454.177000", "150454.179000", "150454.182000", "150454.185000", "150454.188000", "150454.191000", "150454.194000", "150454.196000", "150454.199000", "150454.202000", "150454.205000", "150454.208000", "150454.211000", "150454.214000", "150454.217000", "150454.219000", "150534.146000", "150534.149000", "150534.152000", "150534.155000", "150534.158000", "150534.160000", "150534.163000", "150534.166000", "150534.169000", "150534.172000", "150534.175000", "150534.178000", "150534.180000", "150534.183000", "150534.186000", "150534.189000", "150534.192000", "150534.195000", "150534.198000", "150534.201000", "150534.203000", "150534.206000", "150534.209000", "150534.212000", "150534.215000", "150534.218000", "150534.221000", "150614.146000", "150614.149000", "150614.152000", "150614.155000", "150614.158000", "150614.160000", "150614.163000", "150614.166000", "150614.169000", "150614.172000", "150614.174000", "150614.177000", "150614.180000", "150614.183000", "150614.186000", "150614.192000", "150614.195000", "150614.198000", "150614.201000", "150614.203000", "150614.206000", "150614.209000", "150614.212000", "150614.215000", "150614.218000", "150614.221000", "150614.224000", "150654.145000", "150654.148000", "150654.151000", "150654.154000", "150654.156000", "150654.159000", "150654.162000", "150654.165000", "150654.168000", "150654.180000", "150654.184000", "150654.187000", "150654.191000", "150654.210000", "150654.213000", "150654.216000", "150654.219000", "150654.222000", "150654.225000", "150654.227000", "150654.230000", "150654.233000", "150654.236000", "150654.239000", "150654.242000", "150654.244000", "150734.145000", "150734.148000", "150734.151000", "150734.154000", "150734.157000", "150734.160000", "150734.163000", "150734.165000", "150734.168000", "150734.171000", "150734.174000", "150734.177000", "150734.179000", "150734.182000", "150734.185000", "150734.188000", "150734.191000", "150734.194000", "150734.196000", "150734.199000", "150734.202000", "150734.205000", "150734.208000", "150734.210000", "150734.213000", "150734.216000", "150734.219000", "150808.744000", "150808.747000", "150808.750000", "150808.753000", "150808.756000", "150808.759000", "150808.761000", "150808.764000", "150808.767000", "150808.770000", "150808.773000", "150808.776000", "150808.778000", "150808.782000", "150808.784000", "150808.787000", "150808.790000", "150808.793000", "150808.796000", "150808.799000", "150808.802000", "150808.805000", "150808.807000", "150808.810000"],
