{
  "AcquisitionMatrixPE": 104,
  "AcquisitionNumber": 1,
  "AcquisitionTime": "15:36:38.062500",
  "BandwidthPerPixelPhaseEncode": 17.17,
  "BaseResolution": 104,
  "BodyPartExamined": "BRAIN",
  "CoilString": "HC1-7;NC1_2",
  "ConsistencyInfo": "N4_VE11C_LATEST_20160120",
  "ConversionSoftware": "dcm2niix",
  "ConversionSoftwareVersion": "v1.0.20190720  (JP2:OpenJPEG) GCC7.3.0",
  "DerivedVendorReportedEchoSpacing": 0.000560011,
  "DeviceSerialNumber": "167006",
  "DwellTime": 2.1e-06,
  "EchoTime": 0.037,
  "EchoTrainLength": 104,
  "EffectiveEchoSpacing": 0.000560011,
  "FlipAngle": 52,
  "ImageComments": "Unaliased_MB4_PE3_LB",
  "ImageOrientationPatientDICOM": [0.999221, -0.0381256, -0.0102259, 0.0310526, 0.919164, -0.392649],
  "ImageType": [
    "ORIGINAL",
    "PRIMARY",
    "M",
    "MB",
    "ND",
    "MOSAIC"
],
  "ImagingFrequency": 123.26,
  "InPlanePhaseEncodingDirectionDICOM": "COL",
  "InstitutionAddress": "Chemin_Queen-Mary_4565_Montreal_District_CA_H3W_1W5",
  "InstitutionName": "IUGM",
  "InstitutionalDepartmentName": "Department",
  "MRAcquisitionType": "2D",
  "MagneticFieldStrength": 3,
  "Manufacturer": "Siemens",
  "ManufacturersModelName": "Prisma_fit",
  "Modality": "MR",
  "MultibandAccelerationFactor": 4,
  "PartialFourier": 1,
  "PatientPosition": "HFS",
  "PercentPhaseFOV": 100,
  "PhaseEncodingDirection": "j",
  "PhaseEncodingSteps": 104,
  "PhaseResolution": 1,
  "PixelBandwidth": 2290,
  "ProcedureStepDescription": "hcptrt_generic",
  "ProtocolName": "func_task-motor_run-1",
  "PulseSequenceDetails": "%CustomerSeq%_cmrr_mbep2d_bold",
  "ReceiveCoilActiveElements": "HC1-7;NC1,2",
  "ReceiveCoilName": "HeadNeck_64",
  "ReconMatrixPE": 104,
  "RepetitionTime": 1.49,
  "SAR": 0.0366838,
  "ScanOptions": "FS",
  "ScanningSequence": "EP",
  "SequenceName": "epfid2d1_104",
  "SequenceVariant": "SK_SS",
  "SeriesDescription": "func_task-motor_run-1",
  "SeriesNumber": 21,
  "ShimSetting": [606, -7241, -8850, 405, 10, -356, 28, 38],
  "SliceThickness": 2,
  "SliceTiming": [0, 0.785, 0.0975, 0.8825, 0.195, 0.98, 0.295, 1.0775, 0.3925, 1.175, 0.49, 1.275, 0.5875, 1.3725, 0.685, 0, 0.785, 0.0975, 0.8825, 0.195, 0.98, 0.295, 1.0775, 0.3925, 1.175, 0.49, 1.275, 0.5875, 1.3725, 0.685, 0, 0.785, 0.0975, 0.8825, 0.195, 0.98, 0.295, 1.0775, 0.3925, 1.175, 0.49, 1.275, 0.5875, 1.3725, 0.685, 0, 0.785, 0.0975, 0.8825, 0.195, 0.98, 0.295, 1.0775, 0.3925, 1.175, 0.49, 1.275, 0.5875, 1.3725, 0.685],
  "SoftwareVersions": "syngo_MR_E11",
  "SpacingBetweenSlices": 2,
  "StationName": "MRC35049",
  "TaskName": "motor",
  "TotalReadoutTime": 0.0576811,
  "TxRefAmp": 240.392,
  "WipMemBlock": "4835180c-d031-4dfa-bd55-c59100d7c6db||Sequence: R016 ve11c/master r/e634e98; Dec 19 2017 11:00:25 by eja",
  "dcmmeta_affine": [
    [-1.998441219329834, 0.062105290591716766, -0.048738498240709305, 101.85820007324219],
    [0.07625110447406769, 1.838328242301941, -0.784050464630127, -63.894039154052734],
    [-0.02045183628797531, 0.7852975726127625, 1.8392633199691772, -74.81182861328125],
    [0.0, 0.0, 0.0, 1.0]
],
  "dcmmeta_reorient_transform": [
    [0.0, -1.0, 0.0, 103.0],
    [1.0, 0.0, 0.0, 0.0],
    [0.0, 0.0, 1.0, 0.0],
    [0.0, 0.0, 0.0, 1.0]
],
  "dcmmeta_shape": [104, 104, 60, 144],
  "dcmmeta_slice_dim": 2,
  "dcmmeta_version": 0.6,
  "global": {
    "const": {
      "AcquisitionMatrix": [104, 0, 0, 104],
      "AngioFlag": "N",
      "BitsAllocated": 16,
      "BitsStored": 16,
      "BodyPartExamined": "BRAIN",
      "Columns": 832,
      "EchoNumbers": 1,
      "EchoTime": 37.0,
      "EchoTrainLength": 104,
      "FlipAngle": 52.0,
      "HighBit": 15,
      "ImageOrientationPatient": [0.99922063278662, -0.0381255505817, -0.0102259183623, 0.03105264489284, 0.91916411290608, -0.3926487829992],
      "ImagePositionPatient": [-858.29399282467, -766.84983992686, 299.36660199661],
      "ImageType": [
        "ORIGINAL",
        "PRIMARY",
        "M",
        "MB",
        "ND",
        "MOSAIC"
],
      "ImagedNucleus": "1H",
      "ImagingFrequency": 123.259608,
      "InPlanePhaseEncodingDirection": "COL",
      "MRAcquisitionType": "2D",
      "MagneticFieldStrength": 3.0,
      "Manufacturer": "SIEMENS",
      "ManufacturerModelName": "Prisma_fit",
      "Modality": "MR",
      "NumberOfAverages": 1.0,
      "NumberOfPhaseEncodingSteps": 104,
      "PercentPhaseFieldOfView": 100.0,
      "PercentSampling": 100.0,
      "PerformedProcedureStepStartTime": "144947.947000",
      "PhotometricInterpretation": "MONOCHROME2",
      "PixelBandwidth": 2290.0,
      "PixelRepresentation": 0,
      "PixelSpacing": [2.0, 2.0],
      "ProtocolName": "func_task-motor_run-1",
      "RepetitionTime": 1490.0,
      "Rows": 832,
      "SAR": 0.03668383949365,
      "SamplesPerPixel": 1,
      "ScanOptions": "FS",
      "ScanningSequence": "EP",
      "SequenceName": "epfid2d1_104",
      "SequenceVariant": [
        "SK",
        "SS"
],
      "SeriesDescription": "func_task-motor_run-1",
      "SeriesNumber": 21,
      "SeriesTime": "153805.066000",
      "SliceLocation": -46.233458452585,
      "SliceThickness": 2.0,
      "SmallestImagePixelValue": 0,
      "SoftwareVersions": "syngo MR E11",
      "SpacingBetweenSlices": 2.0000000023508,
      "SpecificCharacterSet": "ISO_IR 100",
      "StudyID": "1",
      "StudyTime": "144947.878000",
      "TransmitCoilName": "Body",
      "VariableFlipAngleFlag": "N",
      "WindowCenterWidthExplanation": "Algo1",
      "dBdt": 0.0},
    "slices": {}
  },
  "time": {
    "samples": {
      "AcquisitionNumber": [1, 2, 3, 4, 5, 6, 7, 8, 9, 10, 11, 12, 13, 14, 15, 16, 17, 18, 19, 20, 21, 22, 23, 24, 25, 26, 27, 28, 29, 30, 31, 32, 33, 34, 35, 36, 37, 38, 39, 40, 41, 42, 43, 44, 45, 46, 47, 48, 49, 50, 51, 52, 53, 54, 55, 56, 57, 58, 59, 60, 61, 62, 63, 64, 65, 66, 67, 68, 69, 70, 71, 72, 73, 74, 75, 76, 77, 78, 79, 80, 81, 82, 83, 84, 85, 86, 87, 88, 89, 90, 91, 92, 93, 94, 95, 96, 97, 98, 99, 100, 101, 102, 103, 104, 105, 106, 107, 108, 109, 110, 111, 112, 113, 114, 115, 116, 117, 118, 119, 120, 121, 122, 123, 124, 125, 126, 127, 128, 129, 130, 131, 132, 133, 134, 135, 136, 137, 138, 139, 140, 141, 142, 143, 144],
      "AcquisitionTime": ["153638.062500", "153639.552500", "153641.042500", "153642.532500", "153644.022500", "153645.512500", "153647.002500", "153648.492500", "153649.982500", "153651.472500", "153652.962500", "153654.452500", "153655.942500", "153657.432500", "153658.922500", "153700.412500", "153701.902500", "153703.392500", "153704.882500", "153706.372500", "153707.862500", "153709.352500", "153710.842500", "153712.332500", "153713.822500", "153715.312500", "153716.802500", "153718.292500", "153719.782500", "153721.272500", "153722.762500", "153724.252500", "153725.742500", "153727.232500", "153728.722500", "153730.212500", "153731.702500", "153733.192500", "153734.682500", "153736.172500", "153737.662500", "153739.152500", "153740.642500", "153742.132500", "153743.622500", "153745.112500", "153746.602500", "153748.092500", "153749.582500", "153751.072500", "153752.562500", "153754.052500", "153755.542500", "153757.032500", "153758.522500", "153800.012500", "153801.502500", "153802.992500", "153804.482500", "153805.972500", "153807.462500", "153808.952500", "153810.442500", "153811.932500", "153813.422500", "153814.912500", "153816.402500", "153817.892500", "153819.382500", "153820.872500", "153822.362500", "153823.852500", "153825.342500", "153826.832500", "153828.322500", "153829.812500", "153831.302500", "153832.792500", "153834.282500", "153835.772500", "153837.262500", "153838.752500", "153840.242500", "153841.732500", "153843.222500", "153844.712500", "153846.202500", "153847.692500", "153849.182500", "153850.672500", "153852.162500", "153853.652500", "153855.142500", "153856.632500", "153858.122500", "153859.612500", "153901.102500", "153902.592500", "153904.082500", "153905.572500", "153907.062500", "153908.552500", "153910.042500", "153911.532500", "153913.022500", "153914.512500", "153916.002500", "153917.492500", "153918.982500", "153920.472500", "153921.962500", "153923.452500", "153924.942500", "153926.432500", "153927.922500", "153929.412500", "153930.902500", "153932.392500", "153933.882500", "153935.372500", "153936.862500", "153938.352500", "153939.842500", "153941.332500", "153942.822500", "153944.312500", "153945.802500", "153947.292500", "153948.782500", "153950.272500", "153951.762500", "153953.252500", "153954.742500", "153956.232500", "153957.722500", "153959.212500", "154000.702500", "154002.192500", "154003.682500", "154005.172500", "154006.662500", "154008.152500", "154009.642500", "154011.132500"],
      "ContentTime": ["153805.069000", "153805.072000", "153805.075000", "153805.078000", "153805.081000", "153805.084000", "153805.087000", "153805.090000", "153805.092000", "153805.095000", "153805.098000", "153805.114000", "153805.117000", "153805.120000", "153805.123000", "153805.126000", "153805.128000", "153805.131000", "153805.134000", "153805.137000", "153805.140000", "153805.143000", "153805.146000", "153805.149000", "153805.151000", "153805.154000", "153805.157000", "153805.164000", "153805.166000", "153805.169000", "153805.172000", "153805.175000", "153805.178000", "153825.037000", "153825.040000", "153825.043000", "153825.045000", "153825.048000", "153825.051000", "153825.054000", "153825.057000", "153825.060000", "153825.063000", "153825.066000", "153825.068000", "153825.071000", "153825.074000", "153825.077000", "153825.080000", "153825.083000", "153825.086000", "153825.089000", "153825.092000", "153845.037000", "153845.040000", "153845.043000", "153845.046000", "153845.049000", "153845.051000", "153845.054000", "153845.057000", "153845.060000", "153845.063000", "153845.066000", "153845.068000", "153845.071000", "153845.074000", "153845.077000", "153845.080000", "153845.083000", "153845.086000", "153845.088000", "153845.091000", "153905.038000", "153905.041000", "153905.044000", "153905.047000", "153905.050000", "153905.052000", "153905.055000", "153905.058000", "153905.061000", "153905.064000", "153905.068000", "153905.071000", "153905.074000", "153905.077000", "153905.080000", "153905.083000", "153905.086000", "153905.088000", "153905.091000", "153905.094000", "153905.097000", "153945.037000", "153945.040000", "153945.043000", "153945.046000", "153945.049000", "153945.051000", "153945.054000", "153945.057000", "153945.060000", "153945.063000", "153945.066000", "153945.069000", "153945.072000", "153945.075000", "153945.077000", "153945.080000", "153945.083000", "153945.086000", "153945.089000", "153945.092000", "153945.095000", "153945.098000", "153945.100000", "153945.103000", "153945.111000", "153945.114000", "153945.117000", "153945.120000", "153945.123000", "153945.125000", "153945.128000", "154012.990000", "154012.993000", "154013.005000", "154013.008000", "154013.011000", "154013.014000", "154013.017000", "154013.020000", "154013.023000", "154013.026000", "154013.029000", "154013.032000", "154013.035000", "154013.038000", "154013.042000", "154013.045000", "154013.048000", "154013.051000", "154013.054000"],
      "InstanceCreationTime": ["153805.069000", "153805.072000", "153805.075000", "153805.078000", "153805.081000", "153805.084000", "153805.087000", "153805.090000", "153805.092000", "153805.095000", "153805.098000", "153805.114000", "153805.117000", "153805.120000", "153805.123000", "153805.126000", "153805.128000", "153805.131000", "153805.134000", "153805.137000", "153805.140000", "153805.143000", "153805.146000", "153805.149000", "153805.151000", "153805.154000", "153805.157000", "153805.164000", "153805.166000", "153805.169000", "153805.172000", "153805.175000", "153805.178000", "153825.037000", "153825.040000", "153825.043000", "153825.045000", "153825.048000", "153825.051000", "153825.054000", "153825.057000", "153825.060000", "153825.063000", "153825.066000", "153825.068000", "153825.071000", "153825.074000", "153825.077000", "153825.080000", "153825.083000", "153825.086000", "153825.089000", "153825.092000", "153845.037000", "153845.040000", "153845.043000", "153845.046000", "153845.049000", "153845.051000", "153845.054000", "153845.057000", "153845.060000", "153845.063000", "153845.066000", "153845.068000", "153845.071000", "153845.074000", "153845.077000", "153845.080000", "153845.083000", "153845.086000", "153845.088000", "153845.091000", "153905.038000", "153905.041000", "153905.044000", "153905.047000", "153905.050000", "153905.052000", "153905.055000", "153905.058000", "153905.061000", "153905.064000", "153905.068000", "153905.071000", "153905.074000", "153905.077000", "153905.080000", "153905.083000", "153905.086000", "153905.088000", "153905.091000", "153905.094000", "153905.097000", "153945.037000", "153945.040000", "153945.043000", "153945.046000", "153945.049000", "153945.051000", "153945.054000", "153945.057000", "153945.060000", "153945.063000", "153945.066000", "153945.069000", "153945.072000", "153945.075000", "153945.077000", "153945.080000", "153945.083000", "153945.086000", "153945.089000", "153945.092000", "153945.095000", "153945.098000", "153945.100000", "153945.103000", "153945.111000", "153945.114000", "153945.117000", "153945.120000", "153945.123000", "153945.125000", "153945.128000", "154012.990000", "154012.993000", "154013.005000", "154013.008000", "154013.011000", "154013.014000", "154013.017000", "154013.020000", "154013.023000", "154013.026000", "154013.029000", "154013.032000", "154013.035000", "154013.038000", "154013.042000", "154013.045000", "154013.048000", "154013.051000", "154013.054000"],
      "InstanceNumber": [1, 2, 3, 4, 5, 6, 7, 8, 9, 10, 11, 12, 13, 14, 15, 16, 17, 18, 19, 20, 21, 22, 23, 24, 25, 26, 27, 28, 29, 30, 31, 32, 33, 34, 35, 36, 37, 38, 39, 40, 41, 42, 43, 44, 45, 46, 47, 48, 49, 50, 51, 52, 53, 54, 55, 56, 57, 58, 59, 60, 61, 62, 63, 64, 65, 66, 67, 68, 69, 70, 71, 72, 73, 74, 75, 76, 77, 78, 79, 80, 81, 82, 83, 84, 85, 86, 87, 88, 89, 90, 91, 92, 93, 94, 95, 96, 97, 98, 99, 100, 101, 102, 103, 104, 105, 106, 107, 108, 109, 110, 111, 112, 113, 114, 115, 116, 117, 118, 119, 120, 121, 122, 123, 124, 125, 126, 127, 128, 129, 130, 131, 132, 133, 134, 135, 136, 137, 138, 139, 140, 141, 142, 143, 144],
      "LargestImagePixelValue": [56522, 54869, 54222, 53700, 53507, 53163, 53008, 53321, 53164, 52862, 53307, 53053, 53317, 52973, 53133, 52128, 51749, 52340, 53049, 52433, 52863, 53318, 53678, 52808, 54142, 52876, 53193, 53844, 53225, 53850, 53562, 53179, 53707, 53093, 53673, 53706, 53688, 53518, 53261, 53407, 52977, 52841, 53274, 53409, 53223, 53131, 52903, 52913, 53405, 53412, 53227, 53670, 53505, 53468, 53192, 53408, 53434, 52866, 53613, 53155, 53833, 54422, 53765, 54801, 54124, 53869, 53959, 53515, 53974, 53806, 53133, 52182, 51923, 53094, 53452, 54049, 54687, 54050, 54501, 53245, 53338, 53208, 53603, 53371, 53451, 53698, 53485, 54048, 54553, 54388, 54282, 54501, 54601, 54085, 54245, 55056, 54827, 54970, 54395, 54418, 54341, 54425, 54127, 54447, 54749, 54646, 54871, 54194, 55190, 55358, 55057, 54666, 55368, 55132, 55374, 54957, 54922, 54072, 54682, 54980, 54269, 55014, 54803, 54802, 54205, 54649, 54223, 54398, 54710, 54444, 54730, 54898, 54795, 54279, 54799, 54491, 54762, 54267, 54862, 55394, 55176, 55729, 55174, 55319],
      "WindowCenter": [10314.0, 10252.0, 10221.0, 10207.0, 10205.0, 10212.0, 10215.0, 10221.0, 10215.0, 10204.0, 10218.0, 10229.0, 10242.0, 10248.0, 10248.0, 10246.0, 10251.0, 10231.0, 10231.0, 10234.0, 10233.0, 10223.0, 10211.0, 10213.0, 10223.0, 10222.0, 10229.0, 10225.0, 10228.0, 10241.0, 10242.0, 10238.0, 10228.0, 10230.0, 10236.0, 10229.0, 10221.0, 10199.0, 10193.0, 10199.0, 10201.0, 10212.0, 10214.0, 10213.0, 10204.0, 10203.0, 10196.0, 10213.0, 10218.0, 10220.0, 10212.0, 10211.0, 10212.0, 10219.0, 10217.0, 10213.0, 10211.0, 10204.0, 10214.0, 10219.0, 10232.0, 10260.0, 10260.0, 10281.0, 10288.0, 10272.0, 10263.0, 10224.0, 10228.0, 10235.0, 10242.0, 10207.0, 10170.0, 10166.0, 10168.0, 10177.0, 10169.0, 10116.0, 10096.0, 10092.0, 10132.0, 10146.0, 10169.0, 10179.0, 10181.0, 10172.0, 10171.0, 10225.0, 10233.0, 10240.0, 10244.0, 10236.0, 10239.0, 10252.0, 10262.0, 10255.0, 10237.0, 10232.0, 10225.0, 10224.0, 10219.0, 10220.0, 10223.0, 10232.0, 10231.0, 10231.0, 10232.0, 10225.0, 10271.0, 10266.0, 10220.0, 10210.0, 10234.0, 10226.0, 10252.0, 10244.0, 10236.0, 10202.0, 10224.0, 10231.0, 10219.0, 10216.0, 10215.0, 10218.0, 10227.0, 10227.0, 10209.0, 10200.0, 10196.0, 10199.0, 10212.0, 10207.0, 10191.0, 10183.0, 10181.0, 10189.0, 10182.0, 10183.0, 10193.0, 10188.0, 10173.0, 10173.0, 10163.0, 10175.0],
      "WindowWidth": [22208.0, 22034.0, 21937.0, 21894.0, 21881.0, 21891.0, 21899.0, 21908.0, 21895.0, 21871.0, 21898.0, 21928.0, 21951.0, 21974.0, 21968.0, 21969.0, 21982.0, 21935.0, 21932.0, 21938.0, 21936.0, 21909.0, 21880.0, 21890.0, 21905.0, 21909.0, 21921.0, 21910.0, 21914.0, 21943.0, 21945.0, 21940.0, 21918.0, 21925.0, 21934.0, 21917.0, 21901.0, 21855.0, 21839.0, 21851.0, 21858.0, 21880.0, 21886.0, 21886.0, 21861.0, 21863.0, 21848.0, 21886.0, 21893.0, 21902.0, 21883.0, 21886.0, 21886.0, 21904.0, 21907.0, 21887.0, 21883.0, 21868.0, 21886.0, 21898.0, 21926.0, 21992.0, 21995.0, 22041.0, 22057.0, 22020.0, 21998.0, 21903.0, 21911.0, 21927.0, 21953.0, 21876.0, 21795.0, 21784.0, 21777.0, 21795.0, 21776.0, 21655.0, 21618.0, 21613.0, 21700.0, 21738.0, 21787.0, 21807.0, 21809.0, 21790.0, 21784.0, 21906.0, 21926.0, 21941.0, 21951.0, 21936.0, 21937.0, 21972.0, 21994.0, 21982.0, 21936.0, 21924.0, 21910.0, 21910.0, 21893.0, 21897.0, 21905.0, 21929.0, 21923.0, 21922.0, 21921.0, 21911.0, 22022.0, 22011.0, 21894.0, 21869.0, 21924.0, 21909.0, 21972.0, 21950.0, 21933.0, 21850.0, 21900.0, 21921.0, 21897.0, 21887.0, 21879.0, 21887.0, 21904.0, 21908.0, 21866.0, 21844.0, 21833.0, 21843.0, 21869.0, 21857.0, 21825.0, 21807.0, 21802.0, 21820.0, 21805.0, 21808.0, 21840.0, 21825.0, 21788.0, 21779.0, 21763.0, 21786.0]
    },
    "slices": {}
  }
}