{
  "AcquisitionMatrixPE": 104,
  "AcquisitionNumber": 1,
  "AcquisitionTime": "15:15:29.670000",
  "BandwidthPerPixelPhaseEncode": 17.17,
  "BaseResolution": 104,
  "BodyPartExamined": "BRAIN",
  "CoilString": "HC1-7;NC1_2",
  "ConsistencyInfo": "N4_VE11C_LATEST_20160120",
  "ConversionSoftware": "dcm2niix",
  "ConversionSoftwareVersion": "v1.0.20190720  (JP2:OpenJPEG) GCC7.3.0",
  "DerivedVendorReportedEchoSpacing": 0.000560011,
  "DeviceSerialNumber": "167006",
  "DwellTime": 2.1e-06,
  "EchoTime": 0.037,
  "EchoTrainLength": 104,
  "EffectiveEchoSpacing": 0.000560011,
  "FlipAngle": 52,
  "ImageComments": "Unaliased_MB4_PE3_LB",
  "ImageOrientationPatientDICOM": [0.999221, -0.0381256, -0.0102259, 0.0310526, 0.919164, -0.392649],
  "ImageType": [
    "ORIGINAL",
    "PRIMARY",
    "M",
    "MB",
    "ND",
    "MOSAIC"
],
  "ImagingFrequency": 123.26,
  "InPlanePhaseEncodingDirectionDICOM": "COL",
  "InstitutionAddress": "Chemin_Queen-Mary_4565_Montreal_District_CA_H3W_1W5",
  "InstitutionName": "IUGM",
  "InstitutionalDepartmentName": "Department",
  "MRAcquisitionType": "2D",
  "MagneticFieldStrength": 3,
  "Manufacturer": "Siemens",
  "ManufacturersModelName": "Prisma_fit",
  "Modality": "MR",
  "MultibandAccelerationFactor": 4,
  "PartialFourier": 1,
  "PatientPosition": "HFS",
  "PercentPhaseFOV": 100,
  "PhaseEncodingDirection": "j",
  "PhaseEncodingSteps": 104,
  "PhaseResolution": 1,
  "PixelBandwidth": 2290,
  "ProcedureStepDescription": "hcptrt_generic",
  "ProtocolName": "func_task-gambling_run-1",
  "PulseSequenceDetails": "%CustomerSeq%_cmrr_mbep2d_bold",
  "ReceiveCoilActiveElements": "HC1-7;NC1,2",
  "ReceiveCoilName": "HeadNeck_64",
  "ReconMatrixPE": 104,
  "RepetitionTime": 1.49,
  "SAR": 0.0366288,
  "ScanOptions": "FS",
  "ScanningSequence": "EP",
  "SequenceName": "epfid2d1_104",
  "SequenceVariant": "SK_SS",
  "SeriesDescription": "func_task-gambling_run-1",
  "SeriesNumber": 11,
  "ShimSetting": [606, -7241, -8850, 405, 10, -356, 28, 38],
  "SliceThickness": 2,
  "SliceTiming": [0, 0.785, 0.0975, 0.8825, 0.1975, 0.98, 0.295, 1.0775, 0.3925, 1.1775, 0.49, 1.275, 0.5875, 1.3725, 0.6875, 0, 0.785, 0.0975, 0.8825, 0.1975, 0.98, 0.295, 1.0775, 0.3925, 1.1775, 0.49, 1.275, 0.5875, 1.3725, 0.6875, 0, 0.785, 0.0975, 0.8825, 0.1975, 0.98, 0.295, 1.0775, 0.3925, 1.1775, 0.49, 1.275, 0.5875, 1.3725, 0.6875, 0, 0.785, 0.0975, 0.8825, 0.1975, 0.98, 0.295, 1.0775, 0.3925, 1.1775, 0.49, 1.275, 0.5875, 1.3725, 0.6875],
  "SoftwareVersions": "syngo_MR_E11",
  "SpacingBetweenSlices": 2,
  "StationName": "MRC35049",
  "TaskName": "gambling",
  "TotalReadoutTime": 0.0576811,
  "TxRefAmp": 240.392,
  "WipMemBlock": "b5b7af89-93f8-49f7-b649-1f11a26e98d7||Sequence: R016 ve11c/master r/e634e98; Dec 19 2017 11:00:25 by eja",
  "dcmmeta_affine": [
    [-1.998441219329834, 0.062105290591716766, -0.048738498240709305, 101.85820007324219],
    [0.07625110447406769, 1.838328242301941, -0.784050464630127, -63.894039154052734],
    [-0.02045183628797531, 0.7852975726127625, 1.8392633199691772, -74.81182861328125],
    [0.0, 0.0, 0.0, 1.0]
],
  "dcmmeta_reorient_transform": [
    [0.0, -1.0, 0.0, 103.0],
    [1.0, 0.0, 0.0, 0.0],
    [0.0, 0.0, 1.0, 0.0],
    [0.0, 0.0, 0.0, 1.0]
],
  "dcmmeta_shape": [104, 104, 60, 129],
  "dcmmeta_slice_dim": 2,
  "dcmmeta_version": 0.6,
  "global": {
    "const": {
      "AcquisitionMatrix": [104, 0, 0, 104],
      "AngioFlag": "N",
      "BitsAllocated": 16,
      "BitsStored": 16,
      "BodyPartExamined": "BRAIN",
      "Columns": 832,
      "EchoNumbers": 1,
      "EchoTime": 37.0,
      "EchoTrainLength": 104,
      "FlipAngle": 52.0,
      "HighBit": 15,
      "ImageOrientationPatient": [0.99922063278662, -0.0381255505817, -0.0102259183623, 0.03105264489284, 0.91916411290608, -0.3926487829992],
      "ImagePositionPatient": [-858.29399282467, -766.84983992686, 299.36660199661],
      "ImageType": [
        "ORIGINAL",
        "PRIMARY",
        "M",
        "MB",
        "ND",
        "MOSAIC"
],
      "ImagedNucleus": "1H",
      "ImagingFrequency": 123.259602,
      "InPlanePhaseEncodingDirection": "COL",
      "MRAcquisitionType": "2D",
      "MagneticFieldStrength": 3.0,
      "Manufacturer": "SIEMENS",
      "ManufacturerModelName": "Prisma_fit",
      "Modality": "MR",
      "NumberOfAverages": 1.0,
      "NumberOfPhaseEncodingSteps": 104,
      "PercentPhaseFieldOfView": 100.0,
      "PercentSampling": 100.0,
      "PerformedProcedureStepStartTime": "144947.947000",
      "PhotometricInterpretation": "MONOCHROME2",
      "PixelBandwidth": 2290.0,
      "PixelRepresentation": 0,
      "PixelSpacing": [2.0, 2.0],
      "ProtocolName": "func_task-gambling_run-1",
      "RepetitionTime": 1490.0,
      "Rows": 832,
      "SAR": 0.03662880676491,
      "SamplesPerPixel": 1,
      "ScanOptions": "FS",
      "ScanningSequence": "EP",
      "SequenceName": "epfid2d1_104",
      "SequenceVariant": [
        "SK",
        "SS"
],
      "SeriesDescription": "func_task-gambling_run-1",
      "SeriesNumber": 11,
      "SeriesTime": "151658.223000",
      "SliceLocation": -46.233458452585,
      "SliceThickness": 2.0,
      "SmallestImagePixelValue": 0,
      "SoftwareVersions": "syngo MR E11",
      "SpacingBetweenSlices": 2.0000000023508,
      "SpecificCharacterSet": "ISO_IR 100",
      "StudyID": "1",
      "StudyTime": "144947.878000",
      "TransmitCoilName": "Body",
      "VariableFlipAngleFlag": "N",
      "WindowCenterWidthExplanation": "Algo1",
      "dBdt": 0.0},
    "slices": {}
  },
  "time": {
    "samples": {
      "AcquisitionNumber": [1, 2, 3, 4, 5, 6, 7, 8, 9, 10, 11, 12, 13, 14, 15, 16, 17, 18, 19, 20, 21, 22, 23, 24, 25, 26, 27, 28, 29, 30, 31, 32, 33, 34, 35, 36, 37, 38, 39, 40, 41, 42, 43, 44, 45, 46, 47, 48, 49, 50, 51, 52, 53, 54, 55, 56, 57, 58, 59, 60, 61, 62, 63, 64, 65, 66, 67, 68, 69, 70, 71, 72, 73, 74, 75, 76, 77, 78, 79, 80, 81, 82, 83, 84, 85, 86, 87, 88, 89, 90, 91, 92, 93, 94, 95, 96, 97, 98, 99, 100, 101, 102, 103, 104, 105, 106, 107, 108, 109, 110, 111, 112, 113, 114, 115, 116, 117, 118, 119, 120, 121, 122, 123, 124, 125, 126, 127, 128, 129],
      "AcquisitionTime": ["151529.670000", "151531.160000", "151532.650000", "151534.140000", "151535.630000", "151537.120000", "151538.610000", "151540.100000", "151541.590000", "151543.080000", "151544.570000", "151546.060000", "151547.550000", "151549.040000", "151550.530000", "151552.020000", "151553.510000", "151555.000000", "151556.490000", "151557.980000", "151559.470000", "151600.960000", "151602.450000", "151603.940000", "151605.430000", "151606.920000", "151608.410000", "151609.900000", "151611.390000", "151612.880000", "151614.370000", "151615.860000", "151617.350000", "151618.840000", "151620.330000", "151621.820000", "151623.310000", "151624.800000", "151626.290000", "151627.780000", "151629.270000", "151630.760000", "151632.250000", "151633.740000", "151635.230000", "151636.720000", "151638.210000", "151639.700000", "151641.190000", "151642.680000", "151644.170000", "151645.660000", "151647.150000", "151648.640000", "151650.130000", "151651.620000", "151653.110000", "151654.600000", "151656.090000", "151657.580000", "151659.070000", "151700.560000", "151702.050000", "151703.540000", "151705.030000", "151706.520000", "151708.010000", "151709.500000", "151710.990000", "151712.480000", "151713.970000", "151715.460000", "151716.950000", "151718.440000", "151719.930000", "151721.420000", "151722.910000", "151724.400000", "151725.890000", "151727.380000", "151728.870000", "151730.360000", "151731.850000", "151733.340000", "151734.830000", "151736.320000", "151737.810000", "151739.300000", "151740.790000", "151742.280000", "151743.770000", "151745.260000", "151746.750000", "151748.240000", "151749.730000", "151751.220000", "151752.710000", "151754.200000", "151755.690000", "151757.180000", "151758.670000", "151800.160000", "151801.650000", "151803.140000", "151804.630000", "151806.120000", "151807.610000", "151809.100000", "151810.590000", "151812.080000", "151813.570000", "151815.060000", "151816.550000", "151818.040000", "151819.530000", "151821.020000", "151822.510000", "151824.000000", "151825.490000", "151826.980000", "151828.470000", "151829.960000", "151831.450000", "151832.940000", "151834.430000", "151835.920000", "151837.410000", "151838.900000", "151840.390000"],
      "ContentTime": ["151658.226000", "151658.229000", "151658.232000", "151658.235000", "151658.238000", "151658.241000", "151658.244000", "151658.246000", "151658.249000", "151658.252000", "151658.255000", "151658.258000", "151658.261000", "151658.264000", "151658.272000", "151658.275000", "151658.278000", "151658.281000", "151658.284000", "151658.286000", "151658.289000", "151658.292000", "151658.295000", "151658.298000", "151658.301000", "151658.304000", "151658.307000", "151658.309000", "151658.312000", "151658.315000", "151658.318000", "151658.321000", "151658.324000", "151718.194000", "151718.197000", "151718.206000", "151718.209000", "151718.212000", "151718.215000", "151718.218000", "151718.221000", "151718.224000", "151718.226000", "151718.229000", "151718.232000", "151718.235000", "151718.238000", "151718.241000", "151718.244000", "151718.247000", "151718.249000", "151718.252000", "151718.255000", "151718.258000", "151738.194000", "151738.197000", "151738.200000", "151738.202000", "151738.205000", "151738.208000", "151738.211000", "151738.214000", "151738.217000", "151738.220000", "151738.223000", "151738.225000", "151738.228000", "151738.231000", "151738.234000", "151738.237000", "151738.240000", "151738.243000", "151738.245000", "151738.248000", "151758.193000", "151758.196000", "151758.199000", "151758.202000", "151758.204000", "151758.207000", "151758.210000", "151758.213000", "151758.216000", "151758.219000", "151758.221000", "151758.224000", "151758.227000", "151758.230000", "151758.233000", "151758.236000", "151758.238000", "151758.241000", "151758.244000", "151758.247000", "151838.193000", "151838.196000", "151838.199000", "151838.202000", "151838.204000", "151838.207000", "151838.210000", "151838.213000", "151838.216000", "151838.228000", "151838.231000", "151838.233000", "151838.236000", "151838.239000", "151838.242000", "151838.245000", "151838.248000", "151838.251000", "151838.254000", "151838.256000", "151838.259000", "151838.262000", "151838.265000", "151838.268000", "151838.271000", "151838.274000", "151838.277000", "151838.280000", "151838.283000", "151838.285000", "151838.288000", "151838.291000", "151842.511000", "151842.514000", "151842.517000"],
      "InstanceCreationTime": ["151658.226000", "151658.229000", "151658.232000", "151658.235000", "151658.238000", "151658.241000", "151658.244000", "151658.246000", "151658.249000", "151658.252000", "151658.255000", "151658.258000", "151658.261000", "151658.264000", "151658.272000", "151658.275000", "151658.278000", "151658.281000", "151658.284000", "151658.286000", "151658.289000", "151658.292000", "151658.295000", "151658.298000", "151658.301000", "151658.304000", "151658.307000", "151658.309000", "151658.312000", "151658.315000", "151658.318000", "151658.321000", "151658.324000", "151718.194000", "151718.197000", "151718.206000", "151718.209000", "151718.212000", "151718.215000", "151718.218000", "151718.221000", "151718.224000", "151718.226000", "151718.229000", "151718.232000", "151718.235000", "151718.238000", "151718.241000", "151718.244000", "151718.247000", "151718.249000", "151718.252000", "151718.255000", "151718.258000", "151738.194000", "151738.197000", "151738.200000", "151738.202000", "151738.205000", "151738.208000", "151738.211000", "151738.214000", "151738.217000", "151738.220000", "151738.223000", "151738.225000", "151738.228000", "151738.231000", "151738.234000", "151738.237000", "151738.240000", "151738.243000", "151738.245000", "151738.248000", "151758.193000", "151758.196000", "151758.199000", "151758.202000", "151758.204000", "151758.207000", "151758.210000", "151758.213000", "151758.216000", "151758.219000", "151758.221000", "151758.224000", "151758.227000", "151758.230000", "151758.233000", "151758.236000", "151758.238000", "151758.241000", "151758.244000", "151758.247000", "151838.193000", "151838.196000", "151838.199000", "151838.202000", "151838.204000", "151838.207000", "151838.210000", "151838.213000", "151838.216000", "151838.228000", "151838.231000", "151838.233000", "151838.236000", "151838.239000", "151838.242000", "151838.245000", "151838.248000", "151838.251000", "151838.254000", "151838.256000", "151838.259000", "151838.262000", "151838.265000", "151838.268000", "151838.271000", "151838.274000", "151838.277000", "151838.280000", "151838.283000", "151838.285000", "151838.288000", "151838.291000", "151842.511000", "151842.514000", "151842.517000"],
      "InstanceNumber": [1, 2, 3, 4, 5, 6, 7, 8, 9, 10, 11, 12, 13, 14, 15, 16, 17, 18, 19, 20, 21, 22, 23, 24, 25, 26, 27, 28, 29, 30, 31, 32, 33, 34, 35, 36, 37, 38, 39, 40, 41, 42, 43, 44, 45, 46, 47, 48, 49, 50, 51, 52, 53, 54, 55, 56, 57, 58, 59, 60, 61, 62, 63, 64, 65, 66, 67, 68, 69, 70, 71, 72, 73, 74, 75, 76, 77, 78, 79, 80, 81, 82, 83, 84, 85, 86, 87, 88, 89, 90, 91, 92, 93, 94, 95, 96, 97, 98, 99, 100, 101, 102, 103, 104, 105, 106, 107, 108, 109, 110, 111, 112, 113, 114, 115, 116, 117, 118, 119, 120, 121, 122, 123, 124, 125, 126, 127, 128, 129],
      "LargestImagePixelValue": [53014, 51388, 50443, 49996, 49807, 49442, 49252, 49601, 49959, 50796, 50869, 50751, 51237, 51012, 51175, 51707, 52486, 51670, 52237, 52217, 51932, 52628, 52407, 52159, 53032, 52085, 52020, 51649, 51416, 51574, 52086, 52118, 51407, 52214, 52097, 52373, 52622, 52508, 52488, 52510, 52726, 53258, 53146, 53010, 53973, 53411, 54076, 53596, 54280, 54074, 54204, 54002, 54134, 53872, 52942, 51711, 52425, 52760, 52735, 53067, 53135, 53452, 52981, 53626, 53517, 54352, 54253, 53750, 54073, 54459, 54114, 53797, 53855, 53948, 53193, 53806, 53865, 54122, 53928, 54268, 54247, 53926, 54083, 54017, 53795, 53840, 54039, 53701, 54237, 53649, 53572, 53663, 54222, 54357, 54318, 54380, 54155, 54637, 54798, 54496, 54579, 54272, 54952, 54914, 54445, 54575, 54498, 55049, 54616, 54887, 54665, 54662, 54840, 54357, 54765, 55412, 54517, 54580, 54778, 54811, 54596, 54686, 54305, 54562, 53928, 53872, 53870, 53641, 52348],
      "WindowCenter": [10307.0, 10273.0, 10256.0, 10232.0, 10217.0, 10222.0, 10227.0, 10232.0, 10224.0, 10234.0, 10234.0, 10235.0, 10248.0, 10251.0, 10265.0, 10280.0, 10293.0, 10285.0, 10290.0, 10289.0, 10290.0, 10295.0, 10289.0, 10289.0, 10293.0, 10283.0, 10273.0, 10266.0, 10255.0, 10248.0, 10253.0, 10260.0, 10257.0, 10251.0, 10240.0, 10238.0, 10243.0, 10247.0, 10253.0, 10255.0, 10262.0, 10262.0, 10260.0, 10260.0, 10270.0, 10266.0, 10272.0, 10268.0, 10272.0, 10273.0, 10272.0, 10275.0, 10281.0, 10258.0, 10249.0, 10247.0, 10239.0, 10237.0, 10251.0, 10246.0, 10252.0, 10252.0, 10262.0, 10271.0, 10270.0, 10260.0, 10250.0, 10240.0, 10245.0, 10246.0, 10255.0, 10257.0, 10260.0, 10258.0, 10251.0, 10266.0, 10274.0, 10274.0, 10264.0, 10261.0, 10272.0, 10288.0, 10285.0, 10268.0, 10251.0, 10234.0, 10236.0, 10247.0, 10257.0, 10258.0, 10251.0, 10251.0, 10265.0, 10262.0, 10269.0, 10289.0, 10283.0, 10281.0, 10271.0, 10264.0, 10255.0, 10260.0, 10267.0, 10276.0, 10276.0, 10264.0, 10263.0, 10271.0, 10271.0, 10262.0, 10253.0, 10262.0, 10263.0, 10283.0, 10287.0, 10288.0, 10268.0, 10273.0, 10276.0, 10264.0, 10276.0, 10266.0, 10250.0, 10254.0, 10256.0, 10259.0, 10260.0, 10259.0, 10240.0],
      "WindowWidth": [22235.0, 22126.0, 22060.0, 21994.0, 21947.0, 21952.0, 21962.0, 21969.0, 21949.0, 21965.0, 21966.0, 21970.0, 21998.0, 22007.0, 22034.0, 22065.0, 22090.0, 22084.0, 22088.0, 22086.0, 22087.0, 22098.0, 22088.0, 22085.0, 22092.0, 22072.0, 22051.0, 22040.0, 22010.0, 21994.0, 22008.0, 22018.0, 22015.0, 22001.0, 21975.0, 21968.0, 21981.0, 21988.0, 22004.0, 22007.0, 22022.0, 22020.0, 22016.0, 22018.0, 22035.0, 22031.0, 22042.0, 22034.0, 22040.0, 22040.0, 22040.0, 22048.0, 22063.0, 22011.0, 21991.0, 21984.0, 21963.0, 21957.0, 21986.0, 21977.0, 21989.0, 21990.0, 22014.0, 22034.0, 22031.0, 22005.0, 21983.0, 21959.0, 21974.0, 21977.0, 21997.0, 22002.0, 22013.0, 22007.0, 21989.0, 22026.0, 22040.0, 22038.0, 22015.0, 22008.0, 22030.0, 22067.0, 22065.0, 22028.0, 21988.0, 21959.0, 21954.0, 21980.0, 22006.0, 22009.0, 21997.0, 21995.0, 22028.0, 22017.0, 22028.0, 22073.0, 22062.0, 22053.0, 22031.0, 22023.0, 21999.0, 22005.0, 22020.0, 22041.0, 22057.0, 22017.0, 22013.0, 22030.0, 22033.0, 22011.0, 21993.0, 22018.0, 22015.0, 22065.0, 22064.0, 22073.0, 22026.0, 22038.0, 22054.0, 22017.0, 22051.0, 22023.0, 21988.0, 22003.0, 22005.0, 22014.0, 22016.0, 22012.0, 21977.0]
    },
    "slices": {}
  }
}