{
  "AcquisitionMatrixPE": 104,
  "AcquisitionNumber": 1,
  "AcquisitionTime": "15:09:34.230000",
  "BandwidthPerPixelPhaseEncode": 17.17,
  "BaseResolution": 104,
  "BodyPartExamined": "BRAIN",
  "CoilString": "HC1-7;NC1_2",
  "ConsistencyInfo": "N4_VE11C_LATEST_20160120",
  "ConversionSoftware": "dcm2niix",
  "ConversionSoftwareVersion": "v1.0.20190720  (JP2:OpenJPEG) GCC7.3.0",
  "DerivedVendorReportedEchoSpacing": 0.000560011,
  "DeviceSerialNumber": "167006",
  "DwellTime": 2.1e-06,
  "EchoTime": 0.037,
  "EchoTrainLength": 104,
  "EffectiveEchoSpacing": 0.000560011,
  "FlipAngle": 52,
  "ImageComments": "Unaliased_MB4_PE3_LB",
  "ImageOrientationPatientDICOM": [0.999221, -0.0381256, -0.0102259, 0.0310526, 0.919164, -0.392649],
  "ImageType": [
    "ORIGINAL",
    "PRIMARY",
    "M",
    "MB",
    "ND",
    "MOSAIC"
],
  "ImagingFrequency": 123.26,
  "InPlanePhaseEncodingDirectionDICOM": "COL",
  "InstitutionAddress": "Chemin_Queen-Mary_4565_Montreal_District_CA_H3W_1W5",
  "InstitutionName": "IUGM",
  "InstitutionalDepartmentName": "Department",
  "MRAcquisitionType": "2D",
  "MagneticFieldStrength": 3,
  "Manufacturer": "Siemens",
  "ManufacturersModelName": "Prisma_fit",
  "Modality": "MR",
  "MultibandAccelerationFactor": 4,
  "PartialFourier": 1,
  "PatientPosition": "HFS",
  "PercentPhaseFOV": 100,
  "PhaseEncodingDirection": "j",
  "PhaseEncodingSteps": 104,
  "PhaseResolution": 1,
  "PixelBandwidth": 2290,
  "ProcedureStepDescription": "hcptrt_generic",
  "ProtocolName": "func_task-wm_run-1",
  "PulseSequenceDetails": "%CustomerSeq%_cmrr_mbep2d_bold",
  "ReceiveCoilActiveElements": "HC1-7;NC1,2",
  "ReceiveCoilName": "HeadNeck_64",
  "ReconMatrixPE": 104,
  "RepetitionTime": 1.49,
  "SAR": 0.0368223,
  "ScanOptions": "FS",
  "ScanningSequence": "EP",
  "SequenceName": "epfid2d1_104",
  "SequenceVariant": "SK_SS",
  "SeriesDescription": "func_task-wm_run-1",
  "SeriesNumber": 9,
  "ShimSetting": [606, -7241, -8850, 405, 10, -356, 28, 38],
  "SliceThickness": 2,
  "SliceTiming": [0, 0.785, 0.0975, 0.8825, 0.1975, 0.98, 0.295, 1.0775, 0.3925, 1.1775, 0.49, 1.275, 0.5875, 1.3725, 0.6875, 0, 0.785, 0.0975, 0.8825, 0.1975, 0.98, 0.295, 1.0775, 0.3925, 1.1775, 0.49, 1.275, 0.5875, 1.3725, 0.6875, 0, 0.785, 0.0975, 0.8825, 0.1975, 0.98, 0.295, 1.0775, 0.3925, 1.1775, 0.49, 1.275, 0.5875, 1.3725, 0.6875, 0, 0.785, 0.0975, 0.8825, 0.1975, 0.98, 0.295, 1.0775, 0.3925, 1.1775, 0.49, 1.275, 0.5875, 1.3725, 0.6875],
  "SoftwareVersions": "syngo_MR_E11",
  "SpacingBetweenSlices": 2,
  "StationName": "MRC35049",
  "TaskName": "wm",
  "TotalReadoutTime": 0.0576811,
  "TxRefAmp": 240.392,
  "WipMemBlock": "54b6e83f-4d06-4660-b169-a4db53281bc7||Sequence: R016 ve11c/master r/e634e98; Dec 19 2017 11:00:25 by eja",
  "dcmmeta_affine": [
    [-1.998441219329834, 0.062105290591716766, -0.048738498240709305, 101.85820007324219],
    [0.07625110447406769, 1.838328242301941, -0.784050464630127, -63.894039154052734],
    [-0.02045183628797531, 0.7852975726127625, 1.8392633199691772, -74.81182861328125],
    [0.0, 0.0, 0.0, 1.0]
],
  "dcmmeta_reorient_transform": [
    [0.0, -1.0, 0.0, 103.0],
    [1.0, 0.0, 0.0, 0.0],
    [0.0, 0.0, 1.0, 0.0],
    [0.0, 0.0, 0.0, 1.0]
],
  "dcmmeta_shape": [104, 104, 60, 202],
  "dcmmeta_slice_dim": 2,
  "dcmmeta_version": 0.6,
  "global": {
    "const": {
      "AcquisitionMatrix": [104, 0, 0, 104],
      "AngioFlag": "N",
      "BitsAllocated": 16,
      "BitsStored": 16,
      "BodyPartExamined": "BRAIN",
      "Columns": 832,
      "EchoNumbers": 1,
      "EchoTime": 37.0,
      "EchoTrainLength": 104,
      "FlipAngle": 52.0,
      "HighBit": 15,
      "ImageOrientationPatient": [0.99922063278662, -0.0381255505817, -0.0102259183623, 0.03105264489284, 0.91916411290608, -0.3926487829992],
      "ImagePositionPatient": [-858.29399282467, -766.84983992686, 299.36660199661],
      "ImageType": [
        "ORIGINAL",
        "PRIMARY",
        "M",
        "MB",
        "ND",
        "MOSAIC"
],
      "ImagedNucleus": "1H",
      "ImagingFrequency": 123.259598,
      "InPlanePhaseEncodingDirection": "COL",
      "MRAcquisitionType": "2D",
      "MagneticFieldStrength": 3.0,
      "Manufacturer": "SIEMENS",
      "ManufacturerModelName": "Prisma_fit",
      "Modality": "MR",
      "NumberOfAverages": 1.0,
      "NumberOfPhaseEncodingSteps": 104,
      "PercentPhaseFieldOfView": 100.0,
      "PercentSampling": 100.0,
      "PerformedProcedureStepStartTime": "144947.947000",
      "PhotometricInterpretation": "MONOCHROME2",
      "PixelBandwidth": 2290.0,
      "PixelRepresentation": 0,
      "PixelSpacing": [2.0, 2.0],
      "ProtocolName": "func_task-wm_run-1",
      "RepetitionTime": 1490.0,
      "Rows": 832,
      "SAR": 0.03682229904136,
      "SamplesPerPixel": 1,
      "ScanOptions": "FS",
      "ScanningSequence": "EP",
      "SequenceName": "epfid2d1_104",
      "SequenceVariant": [
        "SK",
        "SS"
],
      "SeriesDescription": "func_task-wm_run-1",
      "SeriesNumber": 9,
      "SeriesTime": "151105.072000",
      "SliceLocation": -46.233458452585,
      "SliceThickness": 2.0,
      "SmallestImagePixelValue": 0,
      "SoftwareVersions": "syngo MR E11",
      "SpacingBetweenSlices": 2.0000000023508,
      "SpecificCharacterSet": "ISO_IR 100",
      "StudyID": "1",
      "StudyTime": "144947.878000",
      "TransmitCoilName": "Body",
      "VariableFlipAngleFlag": "N",
      "WindowCenterWidthExplanation": "Algo1",
      "dBdt": 0.0},
    "slices": {}
  },
  "time": {
    "samples": {
      "AcquisitionNumber": [1, 2, 3, 4, 5, 6, 7, 8, 9, 10, 11, 12, 13, 14, 15, 16, 17, 18, 19, 20, 21, 22, 23, 24, 25, 26, 27, 28, 29, 30, 31, 32, 33, 34, 35, 36, 37, 38, 39, 40, 41, 42, 43, 44, 45, 46, 47, 48, 49, 50, 51, 52, 53, 54, 55, 56, 57, 58, 59, 60, 61, 62, 63, 64, 65, 66, 67, 68, 69, 70, 71, 72, 73, 74, 75, 76, 77, 78, 79, 80, 81, 82, 83, 84, 85, 86, 87, 88, 89, 90, 91, 92, 93, 94, 95, 96, 97, 98, 99, 100, 101, 102, 103, 104, 105, 106, 107, 108, 109, 110, 111, 112, 113, 114, 115, 116, 117, 118, 119, 120, 121, 122, 123, 124, 125, 126, 127, 128, 129, 130, 131, 132, 133, 134, 135, 136, 137, 138, 139, 140, 141, 142, 143, 144, 145, 146, 147, 148, 149, 150, 151, 152, 153, 154, 155, 156, 157, 158, 159, 160, 161, 162, 163, 164, 165, 166, 167, 168, 169, 170, 171, 172, 173, 174, 175, 176, 177, 178, 179, 180, 181, 182, 183, 184, 185, 186, 187, 188, 189, 190, 191, 192, 193, 194, 195, 196, 197, 198, 199, 200, 201, 202],
      "AcquisitionTime": ["150934.230000", "150935.720000", "150937.210000", "150938.700000", "150940.190000", "150941.680000", "150943.170000", "150944.660000", "150946.150000", "150947.640000", "150949.130000", "150950.620000", "150952.110000", "150953.600000", "150955.090000", "150956.580000", "150958.070000", "150959.560000", "151001.050000", "151002.540000", "151004.030000", "151005.520000", "151007.010000", "151008.500000", "151009.990000", "151011.480000", "151012.970000", "151014.460000", "151015.950000", "151017.440000", "151018.930000", "151020.420000", "151021.910000", "151023.400000", "151024.890000", "151026.380000", "151027.870000", "151029.360000", "151030.850000", "151032.340000", "151033.830000", "151035.320000", "151036.810000", "151038.300000", "151039.790000", "151041.280000", "151042.770000", "151044.260000", "151045.750000", "151047.240000", "151048.730000", "151050.220000", "151051.710000", "151053.200000", "151054.690000", "151056.180000", "151057.670000", "151059.160000", "151100.650000", "151102.140000", "151103.630000", "151105.120000", "151106.610000", "151108.100000", "151109.590000", "151111.080000", "151112.570000", "151114.060000", "151115.550000", "151117.040000", "151118.530000", "151120.020000", "151121.510000", "151123.000000", "151124.490000", "151125.980000", "151127.470000", "151128.960000", "151130.450000", "151131.940000", "151133.430000", "151134.920000", "151136.410000", "151137.900000", "151139.390000", "151140.880000", "151142.370000", "151143.860000", "151145.350000", "151146.840000", "151148.330000", "151149.820000", "151151.310000", "151152.800000", "151154.290000", "151155.780000", "151157.270000", "151158.760000", "151200.250000", "151201.740000", "151203.230000", "151204.720000", "151206.210000", "151207.700000", "151209.190000", "151210.680000", "151212.170000", "151213.660000", "151215.150000", "151216.640000", "151218.130000", "151219.620000", "151221.110000", "151222.600000", "151224.090000", "151225.580000", "151227.070000", "151228.560000", "151230.050000", "151231.540000", "151233.030000", "151234.520000", "151236.010000", "151237.500000", "151238.990000", "151240.480000", "151241.970000", "151243.460000", "151244.950000", "151246.440000", "151247.930000", "151249.420000", "151250.910000", "151252.400000", "151253.890000", "151255.380000", "151256.870000", "151258.360000", "151259.850000", "151301.340000", "151302.830000", "151304.320000", "151305.810000", "151307.300000", "151308.790000", "151310.280000", "151311.770000", "151313.260000", "151314.750000", "151316.240000", "151317.730000", "151319.220000", "151320.710000", "151322.200000", "151323.690000", "151325.180000", "151326.670000", "151328.160000", "151329.650000", "151331.140000", "151332.630000", "151334.120000", "151335.610000", "151337.100000", "151338.590000", "151340.080000", "151341.570000", "151343.060000", "151344.550000", "151346.040000", "151347.530000", "151349.020000", "151350.510000", "151352.000000", "151353.490000", "151354.980000", "151356.470000", "151357.960000", "151359.450000", "151400.940000", "151402.430000", "151403.920000", "151405.410000", "151406.900000", "151408.390000", "151409.880000", "151411.370000", "151412.860000", "151414.350000", "151415.840000", "151417.330000", "151418.820000", "151420.310000", "151421.800000", "151423.290000", "151424.780000", "151426.270000", "151427.760000", "151429.250000", "151430.740000", "151432.230000", "151433.720000"],
      "ContentTime": ["151105.074000", "151105.088000", "151105.091000", "151105.094000", "151105.096000", "151105.099000", "151105.102000", "151105.105000", "151105.108000", "151105.110000", "151105.113000", "151105.116000", "151105.119000", "151105.122000", "151105.125000", "151105.128000", "151105.130000", "151105.133000", "151105.136000", "151105.139000", "151105.142000", "151105.144000", "151105.147000", "151105.150000", "151105.153000", "151105.156000", "151105.159000", "151105.162000", "151105.165000", "151105.167000", "151105.170000", "151105.173000", "151105.176000", "151105.179000", "151105.182000", "151125.038000", "151125.041000", "151125.044000", "151125.047000", "151125.050000", "151125.052000", "151125.055000", "151125.058000", "151125.061000", "151125.064000", "151125.067000", "151125.069000", "151125.072000", "151125.075000", "151125.078000", "151125.081000", "151125.084000", "151125.087000", "151125.090000", "151125.092000", "151145.038000", "151145.041000", "151145.044000", "151145.046000", "151145.049000", "151145.052000", "151145.055000", "151145.058000", "151145.061000", "151145.064000", "151145.066000", "151145.069000", "151145.072000", "151145.075000", "151145.078000", "151145.081000", "151145.084000", "151145.087000", "151145.089000", "151145.092000", "151145.095000", "151205.037000", "151205.040000", "151205.043000", "151205.046000", "151205.049000", "151205.052000", "151205.054000", "151205.057000", "151205.060000", "151205.063000", "151205.066000", "151205.069000", "151205.072000", "151205.074000", "151205.077000", "151205.080000", "151205.083000", "151205.086000", "151205.089000", "151205.092000", "151245.037000", "151245.040000", "151245.043000", "151245.046000", "151245.049000", "151245.052000", "151245.055000", "151245.058000", "151245.061000", "151245.064000", "151245.067000", "151245.069000", "151245.072000", "151245.075000", "151245.078000", "151245.081000", "151245.084000", "151245.087000", "151245.089000", "151245.092000", "151245.107000", "151245.110000", "151245.113000", "151245.116000", "151245.119000", "151245.122000", "151245.124000", "151245.127000", "151245.130000", "151245.133000", "151245.136000", "151325.037000", "151325.040000", "151325.044000", "151325.048000", "151325.051000", "151325.055000", "151325.058000", "151325.061000", "151325.064000", "151325.067000", "151325.070000", "151325.073000", "151325.076000", "151325.079000", "151325.082000", "151325.085000", "151325.088000", "151325.091000", "151325.093000", "151325.096000", "151325.099000", "151325.102000", "151325.105000", "151325.108000", "151325.111000", "151325.115000", "151325.119000", "151405.038000", "151405.041000", "151405.044000", "151405.047000", "151405.050000", "151405.053000", "151405.055000", "151405.058000", "151405.061000", "151405.064000", "151405.067000", "151405.070000", "151405.073000", "151405.076000", "151405.078000", "151405.081000", "151405.084000", "151405.087000", "151405.090000", "151405.093000", "151405.096000", "151405.098000", "151405.101000", "151405.104000", "151405.107000", "151405.110000", "151405.113000", "151435.653000", "151435.657000", "151435.660000", "151435.663000", "151435.666000", "151435.669000", "151435.672000", "151435.675000", "151435.677000", "151435.680000", "151435.684000", "151435.687000", "151435.690000", "151435.693000", "151435.696000", "151435.699000", "151435.702000", "151435.705000", "151435.708000", "151435.711000", "151435.714000"],
      "InstanceCreationTime": ["151105.074000", "151105.088000", "151105.091000", "151105.094000", "151105.096000", "151105.099000", "151105.102000", "151105.105000", "151105.108000", "151105.110000", "151105.113000", "151105.116000", "151105.119000", "151105.122000", "151105.125000", "151105.128000", "151105.130000", "151105.133000", "151105.136000", "151105.139000", "151105.142000", "151105.144000", "151105.147000", "151105.150000", "151105.153000", "151105.156000", "151105.159000", "151105.162000", "151105.165000", "151105.167000", "151105.170000", "151105.173000", "151105.176000", "151105.179000", "151105.182000", "151125.038000", "151125.041000", "151125.044000", "151125.047000", "151125.050000", "151125.052000", "151125.055000", "151125.058000", "151125.061000", "151125.064000", "151125.067000", "151125.069000", "151125.072000", "151125.075000", "151125.078000", "151125.081000", "151125.084000", "151125.087000", "151125.090000", "151125.092000", "151145.038000", "151145.041000", "151145.044000", "151145.046000", "151145.049000", "151145.052000", "151145.055000", "151145.058000", "151145.061000", "151145.064000", "151145.066000", "151145.069000", "151145.072000", "151145.075000", "151145.078000", "151145.081000", "151145.084000", "151145.087000", "151145.089000", "151145.092000", "151145.095000", "151205.037000", "151205.040000", "151205.043000", "151205.046000", "151205.049000", "151205.052000", "151205.054000", "151205.057000", "151205.060000", "151205.063000", "151205.066000", "151205.069000", "151205.072000", "151205.074000", "151205.077000", "151205.080000", "151205.083000", "151205.086000", "151205.089000", "151205.092000", "151245.037000", "151245.040000", "151245.043000", "151245.046000", "151245.049000", "151245.052000", "151245.055000", "151245.058000", "151245.061000", "151245.064000", "151245.067000", "151245.069000", "151245.072000", "151245.075000", "151245.078000", "151245.081000", "151245.084000", "151245.087000", "151245.089000", "151245.092000", "151245.107000", "151245.110000", "151245.113000", "151245.116000", "151245.119000", "151245.122000", "151245.124000", "151245.127000", "151245.130000", "151245.133000", "151245.136000", "151325.037000", "151325.040000", "151325.044000", "151325.048000", "151325.051000", "151325.055000", "151325.058000", "151325.061000", "151325.064000", "151325.067000", "151325.070000", "151325.073000", "151325.076000", "151325.079000", "151325.082000", "151325.085000", "151325.088000", "151325.091000", "151325.093000", "151325.096000", "151325.099000", "151325.102000", "151325.105000", "151325.108000", "151325.111000", "151325.115000", "151325.119000", "151405.038000", "151405.041000", "151405.044000", "151405.047000", "151405.050000", "151405.053000", "151405.055000", "151405.058000", "151405.061000", "151405.064000", "151405.067000", "151405.070000", "151405.073000", "151405.076000", "151405.078000", "151405.081000", "151405.084000", "151405.087000", "151405.090000", "151405.093000", "151405.096000", "151405.098000", "151405.101000", "151405.104000", "151405.107000", "151405.110000", "151405.113000", "151435.653000", "151435.657000", "151435.660000", "151435.663000", "151435.666000", "151435.669000", "151435.672000", "151435.675000", "151435.677000", "151435.680000", "151435.684000", "151435.687000", "151435.690000", "151435.693000", "151435.696000", "151435.699000", "151435.702000", "151435.705000", "151435.708000", "151435.711000", "151435.714000"],
      "InstanceNumber": [1, 2, 3, 4, 5, 6, 7, 8, 9, 10, 11, 12, 13, 14, 15, 16, 17, 18, 19, 20, 21, 22, 23, 24, 25, 26, 27, 28, 29, 30, 31, 32, 33, 34, 35, 36, 37, 38, 39, 40, 41, 42, 43, 44, 45, 46, 47, 48, 49, 50, 51, 52, 53, 54, 55, 56, 57, 58, 59, 60, 61, 62, 63, 64, 65, 66, 67, 68, 69, 70, 71, 72, 73, 74, 75, 76, 77, 78, 79, 80, 81, 82, 83, 84, 85, 86, 87, 88, 89, 90, 91, 92, 93, 94, 95, 96, 97, 98, 99, 100, 101, 102, 103, 104, 105, 106, 107, 108, 109, 110, 111, 112, 113, 114, 115, 116, 117, 118, 119, 120, 121, 122, 123, 124, 125, 126, 127, 128, 129, 130, 131, 132, 133, 134, 135, 136, 137, 138, 139, 140, 141, 142, 143, 144, 145, 146, 147, 148, 149, 150, 151, 152, 153, 154, 155, 156, 157, 158, 159, 160, 161, 162, 163, 164, 165, 166, 167, 168, 169, 170, 171, 172, 173, 174, 175, 176, 177, 178, 179, 180, 181, 182, 183, 184, 185, 186, 187, 188, 189, 190, 191, 192, 193, 194, 195, 196, 197, 198, 199, 200, 201, 202],
      "LargestImagePixelValue": [55763, 53559, 52679, 52413, 51712, 51648, 51553, 51354, 51514, 51331, 51224, 51707, 51610, 51905, 51302, 52464, 51669, 51550, 51774, 51316, 51570, 51481, 51534, 51808, 52020, 51860, 51910, 51714, 51740, 51286, 51750, 51654, 51740, 51428, 51065, 51746, 51607, 51270, 51801, 51254, 51423, 51282, 51674, 51312, 51543, 51422, 51116, 51362, 51236, 51480, 50919, 50757, 51153, 51039, 50983, 51394, 51109, 51358, 51283, 51332, 50999, 50830, 50785, 50998, 50676, 50505, 50736, 50811, 50568, 50589, 50475, 51159, 51153, 50830, 50966, 51501, 51666, 51176, 51172, 51013, 51047, 51165, 51600, 50878, 50942, 50933, 51294, 51401, 51321, 51289, 50993, 51080, 51154, 51755, 51262, 50956, 51250, 51355, 51350, 50874, 51096, 51169, 51083, 51385, 51395, 51633, 51350, 50978, 51626, 51341, 51345, 51291, 51538, 51533, 51145, 51397, 51306, 51287, 51008, 51458, 51201, 51215, 51275, 51585, 51245, 51462, 51479, 51555, 51444, 51691, 51258, 51348, 51214, 51259, 51529, 51429, 52030, 51523, 51339, 51312, 51635, 52144, 51414, 51659, 52000, 51639, 51997, 51890, 51221, 51438, 51796, 51514, 51584, 51754, 51587, 51396, 51219, 51483, 51587, 51360, 51363, 51736, 51254, 51600, 51310, 51322, 51016, 51751, 51322, 51278, 51389, 51226, 51384, 51552, 51523, 51097, 52276, 51468, 51281, 51218, 51215, 51654, 51339, 51430, 51620, 50909, 51512, 51430, 52060, 51222, 51627, 51487, 51323, 51335, 51747, 51813, 51671, 51290, 51555, 52005, 51723, 51276],
      "WindowCenter": [10353.0, 10263.0, 10204.0, 10178.0, 10168.0, 10191.0, 10210.0, 10215.0, 10215.0, 10222.0, 10246.0, 10270.0, 10268.0, 10274.0, 10262.0, 10280.0, 10278.0, 10278.0, 10284.0, 10287.0, 10298.0, 10297.0, 10287.0, 10277.0, 10281.0, 10282.0, 10284.0, 10299.0, 10294.0, 10278.0, 10273.0, 10266.0, 10267.0, 10275.0, 10267.0, 10272.0, 10276.0, 10278.0, 10267.0, 10265.0, 10260.0, 10258.0, 10265.0, 10254.0, 10250.0, 10243.0, 10240.0, 10249.0, 10253.0, 10251.0, 10243.0, 10237.0, 10236.0, 10240.0, 10245.0, 10249.0, 10250.0, 10256.0, 10265.0, 10266.0, 10275.0, 10270.0, 10267.0, 10252.0, 10245.0, 10244.0, 10250.0, 10252.0, 10252.0, 10252.0, 10254.0, 10252.0, 10251.0, 10235.0, 10251.0, 10274.0, 10285.0, 10281.0, 10278.0, 10262.0, 10260.0, 10258.0, 10257.0, 10243.0, 10235.0, 10233.0, 10246.0, 10254.0, 10250.0, 10260.0, 10259.0, 10259.0, 10260.0, 10273.0, 10253.0, 10244.0, 10256.0, 10257.0, 10235.0, 10227.0, 10233.0, 10241.0, 10242.0, 10250.0, 10257.0, 10257.0, 10261.0, 10256.0, 10260.0, 10244.0, 10242.0, 10244.0, 10249.0, 10257.0, 10246.0, 10259.0, 10260.0, 10261.0, 10261.0, 10259.0, 10251.0, 10252.0, 10244.0, 10250.0, 10253.0, 10265.0, 10276.0, 10284.0, 10276.0, 10260.0, 10253.0, 10250.0, 10256.0, 10266.0, 10267.0, 10254.0, 10252.0, 10232.0, 10225.0, 10240.0, 10240.0, 10237.0, 10239.0, 10241.0, 10248.0, 10234.0, 10230.0, 10222.0, 10223.0, 10224.0, 10238.0, 10233.0, 10232.0, 10236.0, 10239.0, 10242.0, 10242.0, 10234.0, 10233.0, 10237.0, 10256.0, 10266.0, 10262.0, 10244.0, 10244.0, 10250.0, 10252.0, 10257.0, 10251.0, 10250.0, 10250.0, 10243.0, 10241.0, 10239.0, 10231.0, 10232.0, 10253.0, 10250.0, 10251.0, 10258.0, 10253.0, 10260.0, 10254.0, 10258.0, 10260.0, 10246.0, 10244.0, 10244.0, 10249.0, 10237.0, 10234.0, 10234.0, 10230.0, 10221.0, 10226.0, 10233.0, 10235.0, 10237.0, 10238.0, 10250.0, 10257.0, 10253.0],
      "WindowWidth": [22317.0, 22076.0, 21919.0, 21849.0, 21819.0, 21864.0, 21907.0, 21920.0, 21920.0, 21934.0, 21985.0, 22038.0, 22034.0, 22048.0, 22024.0, 22059.0, 22063.0, 22061.0, 22071.0, 22083.0, 22105.0, 22104.0, 22081.0, 22058.0, 22062.0, 22065.0, 22072.0, 22104.0, 22094.0, 22059.0, 22044.0, 22032.0, 22035.0, 22054.0, 22033.0, 22043.0, 22052.0, 22059.0, 22030.0, 22024.0, 22015.0, 22012.0, 22027.0, 22004.0, 21992.0, 21977.0, 21967.0, 21990.0, 22001.0, 21997.0, 21981.0, 21966.0, 21965.0, 21976.0, 21988.0, 21990.0, 21994.0, 22006.0, 22027.0, 22030.0, 22052.0, 22039.0, 22031.0, 21999.0, 21986.0, 21984.0, 21994.0, 22001.0, 21999.0, 21999.0, 22007.0, 22000.0, 21997.0, 21964.0, 21996.0, 22048.0, 22071.0, 22065.0, 22055.0, 22024.0, 22016.0, 22010.0, 22006.0, 21975.0, 21960.0, 21955.0, 21981.0, 21998.0, 21992.0, 22018.0, 22011.0, 22012.0, 22012.0, 22041.0, 21995.0, 21977.0, 22004.0, 22010.0, 21958.0, 21941.0, 21955.0, 21967.0, 21972.0, 21988.0, 22002.0, 22001.0, 22014.0, 22005.0, 22011.0, 21977.0, 21973.0, 21978.0, 21988.0, 22003.0, 21983.0, 22011.0, 22015.0, 22017.0, 22019.0, 22009.0, 21993.0, 21997.0, 21981.0, 21989.0, 21998.0, 22022.0, 22046.0, 22064.0, 22046.0, 22011.0, 22001.0, 21987.0, 22001.0, 22025.0, 22026.0, 21998.0, 21990.0, 21943.0, 21932.0, 21963.0, 21964.0, 21956.0, 21963.0, 21966.0, 21982.0, 21952.0, 21937.0, 21920.0, 21925.0, 21928.0, 21958.0, 21948.0, 21947.0, 21951.0, 21960.0, 21970.0, 21972.0, 21957.0, 21953.0, 21959.0, 22006.0, 22027.0, 22023.0, 21981.0, 21981.0, 21992.0, 21995.0, 22003.0, 21988.0, 21985.0, 21989.0, 21972.0, 21967.0, 21962.0, 21946.0, 21949.0, 21991.0, 21991.0, 21994.0, 22007.0, 21998.0, 22015.0, 22001.0, 22007.0, 22015.0, 21979.0, 21972.0, 21975.0, 21982.0, 21957.0, 21949.0, 21949.0, 21947.0, 21922.0, 21934.0, 21947.0, 21949.0, 21959.0, 21972.0, 21992.0, 22003.0, 22001.0]
    },
    "slices": {}
  }
}