{
  "AcquisitionMatrixPE": 104,
  "AcquisitionNumber": 1,
  "AcquisitionTime": "19:15:35.245000",
  "BandwidthPerPixelPhaseEncode": 17.17,
  "BaseResolution": 104,
  "BodyPartExamined": "BRAIN",
  "CoilString": "HC1-7;NC1_2",
  "ConsistencyInfo": "N4_VE11C_LATEST_20160120",
  "ConversionSoftware": "dcm2niix",
  "ConversionSoftwareVersion": "v1.0.20190720  (JP2:OpenJPEG) GCC7.3.0",
  "DerivedVendorReportedEchoSpacing": 0.000560011,
  "DeviceSerialNumber": "167006",
  "DwellTime": 2.1e-06,
  "EchoTime": 0.037,
  "EchoTrainLength": 104,
  "EffectiveEchoSpacing": 0.000560011,
  "FlipAngle": 52,
  "ImageComments": "Unaliased_MB4_PE3_LB",
  "ImageOrientationPatientDICOM": [0.999428, -0.0270395, -0.0202948, 0.0163982, 0.912649, -0.408414],
  "ImageType": [
    "ORIGINAL",
    "PRIMARY",
    "M",
    "MB",
    "ND",
    "MOSAIC"
],
  "ImagingFrequency": 123.259,
  "InPlanePhaseEncodingDirectionDICOM": "COL",
  "InstitutionAddress": "Chemin_Queen-Mary_4565_Montreal_District_CA_H3W_1W5",
  "InstitutionName": "IUGM",
  "InstitutionalDepartmentName": "Department",
  "MRAcquisitionType": "2D",
  "MagneticFieldStrength": 3,
  "Manufacturer": "Siemens",
  "ManufacturersModelName": "Prisma_fit",
  "Modality": "MR",
  "MultibandAccelerationFactor": 4,
  "PartialFourier": 1,
  "PatientPosition": "HFS",
  "PercentPhaseFOV": 100,
  "PhaseEncodingDirection": "j",
  "PhaseEncodingSteps": 104,
  "PhaseResolution": 1,
  "PixelBandwidth": 2290,
  "ProcedureStepDescription": "hcptrt_generic",
  "ProtocolName": "func_task-motor_run-1",
  "PulseSequenceDetails": "%CustomerSeq%_cmrr_mbep2d_bold",
  "ReceiveCoilActiveElements": "HC1-7;NC1,2",
  "ReceiveCoilName": "HeadNeck_64",
  "ReconMatrixPE": 104,
  "RepetitionTime": 1.49,
  "SAR": 0.0364479,
  "ScanOptions": "FS",
  "ScanningSequence": "EP",
  "SequenceName": "epfid2d1_104",
  "SequenceVariant": "SK_SS",
  "SeriesDescription": "func_task-motor_run-1",
  "SeriesNumber": 22,
  "ShimSetting": [620, -7249, -8879, 374, 56, -415, 25, 41],
  "SliceThickness": 2,
  "SliceTiming": [0, 0.785, 0.0975, 0.8825, 0.1975, 0.98, 0.295, 1.0775, 0.3925, 1.1775, 0.49, 1.275, 0.5875, 1.3725, 0.6875, 0, 0.785, 0.0975, 0.8825, 0.1975, 0.98, 0.295, 1.0775, 0.3925, 1.1775, 0.49, 1.275, 0.5875, 1.3725, 0.6875, 0, 0.785, 0.0975, 0.8825, 0.1975, 0.98, 0.295, 1.0775, 0.3925, 1.1775, 0.49, 1.275, 0.5875, 1.3725, 0.6875, 0, 0.785, 0.0975, 0.8825, 0.1975, 0.98, 0.295, 1.0775, 0.3925, 1.1775, 0.49, 1.275, 0.5875, 1.3725, 0.6875],
  "SoftwareVersions": "syngo_MR_E11",
  "SpacingBetweenSlices": 2,
  "StationName": "MRC35049",
  "TaskName": "motor",
  "TotalReadoutTime": 0.0576811,
  "TxRefAmp": 242.15,
  "WipMemBlock": "480ce1e4-cff8-49c2-913d-1ebee1fa763f||Sequence: R016 ve11c/master r/e634e98; Dec 19 2017 11:00:25 by eja",
  "dcmmeta_affine": [
    [-1.9988566637039185, 0.03279642388224602, -0.05913075432181358, 104.11499786376953],
    [0.05407892167568207, 1.825298547744751, -0.8156964778900146, -61.98261260986328],
    [-0.04058967903256416, 0.8168289661407471, 1.8251419067382812, -77.02831268310547],
    [0.0, 0.0, 0.0, 1.0]
],
  "dcmmeta_reorient_transform": [
    [0.0, -1.0, 0.0, 103.0],
    [1.0, 0.0, 0.0, 0.0],
    [0.0, 0.0, 1.0, 0.0],
    [0.0, 0.0, 0.0, 1.0]
],
  "dcmmeta_shape": [104, 104, 60, 144],
  "dcmmeta_slice_dim": 2,
  "dcmmeta_version": 0.6,
  "global": {
    "const": {
      "AcquisitionMatrix": [104, 0, 0, 104],
      "AngioFlag": "N",
      "BitsAllocated": 16,
      "BitsStored": 16,
      "BodyPartExamined": "BRAIN",
      "Columns": 832,
      "EchoNumbers": 1,
      "EchoTime": 37.0,
      "EchoTrainLength": 104,
      "FlipAngle": 52.0,
      "HighBit": 15,
      "ImageOrientationPatient": [0.99942833014349, -0.0270394606516, -0.0202948386114, 0.01639821217982, 0.91264927379278, -0.4084144973955],
      "ImagePositionPatient": [-847.01475128436, -770.74708041482, 319.20546992592],
      "ImageType": [
        "ORIGINAL",
        "PRIMARY",
        "M",
        "MB",
        "ND",
        "MOSAIC"
],
      "ImagedNucleus": "1H",
      "ImagingFrequency": 123.259464,
      "InPlanePhaseEncodingDirection": "COL",
      "MRAcquisitionType": "2D",
      "MagneticFieldStrength": 3.0,
      "Manufacturer": "SIEMENS",
      "ManufacturerModelName": "Prisma_fit",
      "Modality": "MR",
      "NumberOfAverages": 1.0,
      "NumberOfPhaseEncodingSteps": 104,
      "PercentPhaseFieldOfView": 100.0,
      "PercentSampling": 100.0,
      "PerformedProcedureStepStartTime": "182921.491000",
      "PhotometricInterpretation": "MONOCHROME2",
      "PixelBandwidth": 2290.0,
      "PixelRepresentation": 0,
      "PixelSpacing": [2.0, 2.0],
      "ProtocolName": "func_task-motor_run-1",
      "RepetitionTime": 1490.0,
      "Rows": 832,
      "SAR": 0.03644787448384,
      "SamplesPerPixel": 1,
      "ScanOptions": "FS",
      "ScanningSequence": "EP",
      "SequenceName": "epfid2d1_104",
      "SequenceVariant": [
        "SK",
        "SS"
],
      "SeriesDescription": "func_task-motor_run-1",
      "SeriesNumber": 22,
      "SeriesTime": "191649.653000",
      "SliceLocation": -48.092500426661,
      "SliceThickness": 2.0,
      "SmallestImagePixelValue": 0,
      "SoftwareVersions": "syngo MR E11",
      "SpacingBetweenSlices": 2.0000000208413,
      "SpecificCharacterSet": "ISO_IR 100",
      "StudyID": "1",
      "StudyTime": "182921.402000",
      "TransmitCoilName": "Body",
      "VariableFlipAngleFlag": "N",
      "WindowCenterWidthExplanation": "Algo1",
      "dBdt": 0.0},
    "slices": {}
  },
  "time": {
    "samples": {
      "AcquisitionNumber": [1, 2, 3, 4, 5, 6, 7, 8, 9, 10, 11, 12, 13, 14, 15, 16, 17, 18, 19, 20, 21, 22, 23, 24, 25, 26, 27, 28, 29, 30, 31, 32, 33, 34, 35, 36, 37, 38, 39, 40, 41, 42, 43, 44, 45, 46, 47, 48, 49, 50, 51, 52, 53, 54, 55, 56, 57, 58, 59, 60, 61, 62, 63, 64, 65, 66, 67, 68, 69, 70, 71, 72, 73, 74, 75, 76, 77, 78, 79, 80, 81, 82, 83, 84, 85, 86, 87, 88, 89, 90, 91, 92, 93, 94, 95, 96, 97, 98, 99, 100, 101, 102, 103, 104, 105, 106, 107, 108, 109, 110, 111, 112, 113, 114, 115, 116, 117, 118, 119, 120, 121, 122, 123, 124, 125, 126, 127, 128, 129, 130, 131, 132, 133, 134, 135, 136, 137, 138, 139, 140, 141, 142, 143, 144],
      "AcquisitionTime": ["191535.245000", "191536.735000", "191538.225000", "191539.715000", "191541.205000", "191542.695000", "191544.185000", "191545.675000", "191547.165000", "191548.655000", "191550.145000", "191551.635000", "191553.125000", "191554.615000", "191556.105000", "191557.595000", "191559.085000", "191600.575000", "191602.065000", "191603.555000", "191605.045000", "191606.535000", "191608.025000", "191609.515000", "191611.005000", "191612.495000", "191613.985000", "191615.475000", "191616.965000", "191618.455000", "191619.945000", "191621.435000", "191622.925000", "191624.415000", "191625.905000", "191627.395000", "191628.885000", "191630.375000", "191631.865000", "191633.355000", "191634.845000", "191636.335000", "191637.825000", "191639.315000", "191640.805000", "191642.295000", "191643.785000", "191645.275000", "191646.765000", "191648.255000", "191649.745000", "191651.235000", "191652.725000", "191654.215000", "191655.705000", "191657.195000", "191658.685000", "191700.175000", "191701.665000", "191703.155000", "191704.645000", "191706.135000", "191707.625000", "191709.115000", "191710.605000", "191712.095000", "191713.585000", "191715.075000", "191716.565000", "191718.055000", "191719.545000", "191721.035000", "191722.525000", "191724.015000", "191725.505000", "191726.995000", "191728.485000", "191729.975000", "191731.465000", "191732.955000", "191734.445000", "191735.935000", "191737.425000", "191738.915000", "191740.405000", "191741.895000", "191743.385000", "191744.875000", "191746.365000", "191747.855000", "191749.345000", "191750.835000", "191752.325000", "191753.815000", "191755.305000", "191756.795000", "191758.285000", "191759.775000", "191801.265000", "191802.755000", "191804.245000", "191805.735000", "191807.225000", "191808.715000", "191810.205000", "191811.695000", "191813.185000", "191814.675000", "191816.165000", "191817.655000", "191819.145000", "191820.635000", "191822.125000", "191823.615000", "191825.105000", "191826.595000", "191828.085000", "191829.575000", "191831.065000", "191832.555000", "191834.045000", "191835.535000", "191837.025000", "191838.515000", "191840.005000", "191841.495000", "191842.985000", "191844.475000", "191845.965000", "191847.455000", "191848.945000", "191850.435000", "191851.925000", "191853.415000", "191854.905000", "191856.395000", "191857.885000", "191859.375000", "191900.865000", "191902.355000", "191903.845000", "191905.335000", "191906.825000", "191908.315000"],
      "ContentTime": ["191649.656000", "191649.659000", "191649.666000", "191649.668000", "191649.671000", "191649.674000", "191649.677000", "191649.680000", "191649.683000", "191649.686000", "191649.689000", "191649.691000", "191649.694000", "191649.697000", "191649.700000", "191649.703000", "191649.706000", "191649.709000", "191649.711000", "191649.714000", "191709.626000", "191709.629000", "191709.632000", "191709.635000", "191709.638000", "191709.641000", "191709.643000", "191709.646000", "191709.649000", "191709.652000", "191709.655000", "191709.658000", "191709.660000", "191709.663000", "191709.666000", "191709.669000", "191709.672000", "191709.675000", "191709.678000", "191709.681000", "191729.626000", "191729.629000", "191729.632000", "191729.635000", "191729.637000", "191729.640000", "191729.643000", "191729.655000", "191729.658000", "191729.661000", "191729.664000", "191729.684000", "191729.687000", "191729.690000", "191729.693000", "191729.696000", "191729.699000", "191729.702000", "191729.704000", "191729.707000", "191749.627000", "191749.630000", "191749.633000", "191749.636000", "191749.639000", "191749.641000", "191749.644000", "191749.647000", "191749.650000", "191749.653000", "191749.660000", "191749.663000", "191749.666000", "191749.669000", "191749.672000", "191749.675000", "191749.678000", "191749.680000", "191749.684000", "191749.686000", "191809.627000", "191809.630000", "191809.633000", "191809.635000", "191809.638000", "191809.641000", "191809.644000", "191809.647000", "191809.650000", "191809.653000", "191809.656000", "191809.659000", "191809.661000", "191809.664000", "191809.667000", "191809.670000", "191809.673000", "191809.676000", "191809.678000", "191809.681000", "191809.684000", "191849.627000", "191849.630000", "191849.633000", "191849.636000", "191849.639000", "191849.642000", "191849.644000", "191849.647000", "191849.650000", "191849.653000", "191849.656000", "191849.659000", "191849.662000", "191849.675000", "191849.678000", "191849.681000", "191849.684000", "191849.687000", "191849.690000", "191849.693000", "191849.696000", "191849.699000", "191849.702000", "191849.705000", "191849.707000", "191849.710000", "191849.713000", "191849.716000", "191849.719000", "191909.970000", "191909.974000", "191909.977000", "191909.979000", "191909.982000", "191909.985000", "191909.988000", "191909.991000", "191909.994000", "191909.997000", "191910.001000", "191910.004000", "191910.007000", "191910.010000"],
      "InstanceCreationTime": ["191649.656000", "191649.659000", "191649.666000", "191649.668000", "191649.671000", "191649.674000", "191649.677000", "191649.680000", "191649.683000", "191649.686000", "191649.689000", "191649.691000", "191649.694000", "191649.697000", "191649.700000", "191649.703000", "191649.706000", "191649.709000", "191649.711000", "191649.714000", "191709.626000", "191709.629000", "191709.632000", "191709.635000", "191709.638000", "191709.641000", "191709.643000", "191709.646000", "191709.649000", "191709.652000", "191709.655000", "191709.658000", "191709.660000", "191709.663000", "191709.666000", "191709.669000", "191709.672000", "191709.675000", "191709.678000", "191709.681000", "191729.626000", "191729.629000", "191729.632000", "191729.635000", "191729.637000", "191729.640000", "191729.643000", "191729.655000", "191729.658000", "191729.661000", "191729.664000", "191729.684000", "191729.687000", "191729.690000", "191729.693000", "191729.696000", "191729.699000", "191729.702000", "191729.704000", "191729.707000", "191749.627000", "191749.630000", "191749.633000", "191749.636000", "191749.639000", "191749.641000", "191749.644000", "191749.647000", "191749.650000", "191749.653000", "191749.660000", "191749.663000", "191749.666000", "191749.669000", "191749.672000", "191749.675000", "191749.678000", "191749.680000", "191749.684000", "191749.686000", "191809.627000", "191809.630000", "191809.633000", "191809.635000", "191809.638000", "191809.641000", "191809.644000", "191809.647000", "191809.650000", "191809.653000", "191809.656000", "191809.659000", "191809.661000", "191809.664000", "191809.667000", "191809.670000", "191809.673000", "191809.676000", "191809.678000", "191809.681000", "191809.684000", "191849.627000", "191849.630000", "191849.633000", "191849.636000", "191849.639000", "191849.642000", "191849.644000", "191849.647000", "191849.650000", "191849.653000", "191849.656000", "191849.659000", "191849.662000", "191849.675000", "191849.678000", "191849.681000", "191849.684000", "191849.687000", "191849.690000", "191849.693000", "191849.696000", "191849.699000", "191849.702000", "191849.705000", "191849.707000", "191849.710000", "191849.713000", "191849.716000", "191849.719000", "191909.970000", "191909.974000", "191909.977000", "191909.979000", "191909.982000", "191909.985000", "191909.988000", "191909.991000", "191909.994000", "191909.997000", "191910.001000", "191910.004000", "191910.007000", "191910.010000"],
      "InstanceNumber": [1, 2, 3, 4, 5, 6, 7, 8, 9, 10, 11, 12, 13, 14, 15, 16, 17, 18, 19, 20, 21, 22, 23, 24, 25, 26, 27, 28, 29, 30, 31, 32, 33, 34, 35, 36, 37, 38, 39, 40, 41, 42, 43, 44, 45, 46, 47, 48, 49, 50, 51, 52, 53, 54, 55, 56, 57, 58, 59, 60, 61, 62, 63, 64, 65, 66, 67, 68, 69, 70, 71, 72, 73, 74, 75, 76, 77, 78, 79, 80, 81, 82, 83, 84, 85, 86, 87, 88, 89, 90, 91, 92, 93, 94, 95, 96, 97, 98, 99, 100, 101, 102, 103, 104, 105, 106, 107, 108, 109, 110, 111, 112, 113, 114, 115, 116, 117, 118, 119, 120, 121, 122, 123, 124, 125, 126, 127, 128, 129, 130, 131, 132, 133, 134, 135, 136, 137, 138, 139, 140, 141, 142, 143, 144],
      "LargestImagePixelValue": [54445, 53931, 53887, 53438, 53508, 53884, 53987, 53691, 53606, 52967, 52237, 52915, 52590, 53134, 52964, 52894, 53979, 53980, 53481, 54363, 54271, 53856, 54590, 54228, 53733, 54354, 54498, 55263, 55150, 54849, 55424, 55252, 55484, 55608, 55606, 56003, 56518, 56713, 56755, 55589, 56106, 56630, 56590, 56532, 56086, 56444, 56399, 56399, 55292, 56160, 56520, 56950, 56581, 56348, 56432, 56432, 55730, 56295, 56348, 56430, 56118, 55881, 56545, 56450, 56452, 56245, 56143, 56010, 56020, 56378, 55916, 56059, 56053, 56116, 56324, 55868, 56119, 55871, 55907, 56005, 56140, 55958, 56092, 56178, 55709, 55889, 55559, 56251, 55406, 55339, 55697, 55885, 55743, 56142, 56101, 56628, 55891, 56293, 56071, 55368, 55501, 55670, 55640, 55350, 55518, 56426, 55640, 56103, 56015, 55673, 55675, 56447, 55958, 55994, 56348, 56216, 55922, 56023, 56187, 55909, 55873, 55592, 56409, 55518, 55576, 55646, 55408, 55470, 55439, 55665, 55519, 55859, 55740, 55716, 55136, 54830, 55803, 55524, 55661, 55373, 55079, 55631, 55409, 55037],
      "WindowCenter": [10389.0, 10347.0, 10306.0, 10271.0, 10259.0, 10245.0, 10236.0, 10230.0, 10225.0, 10221.0, 10215.0, 10227.0, 10243.0, 10261.0, 10277.0, 10282.0, 10301.0, 10304.0, 10310.0, 10325.0, 10320.0, 10318.0, 10328.0, 10316.0, 10308.0, 10303.0, 10303.0, 10313.0, 10321.0, 10316.0, 10316.0, 10322.0, 10327.0, 10326.0, 10327.0, 10326.0, 10332.0, 10342.0, 10342.0, 10337.0, 10347.0, 10356.0, 10345.0, 10337.0, 10324.0, 10321.0, 10321.0, 10341.0, 10351.0, 10368.0, 10356.0, 10338.0, 10315.0, 10312.0, 10319.0, 10321.0, 10316.0, 10321.0, 10319.0, 10312.0, 10312.0, 10313.0, 10327.0, 10332.0, 10336.0, 10338.0, 10326.0, 10321.0, 10322.0, 10338.0, 10339.0, 10330.0, 10317.0, 10306.0, 10312.0, 10321.0, 10321.0, 10307.0, 10310.0, 10311.0, 10310.0, 10311.0, 10317.0, 10327.0, 10329.0, 10328.0, 10321.0, 10321.0, 10314.0, 10308.0, 10305.0, 10304.0, 10305.0, 10310.0, 10321.0, 10338.0, 10341.0, 10322.0, 10320.0, 10314.0, 10324.0, 10332.0, 10321.0, 10307.0, 10305.0, 10324.0, 10330.0, 10322.0, 10304.0, 10296.0, 10312.0, 10319.0, 10311.0, 10313.0, 10318.0, 10326.0, 10329.0, 10328.0, 10352.0, 10355.0, 10355.0, 10343.0, 10340.0, 10326.0, 10314.0, 10311.0, 10311.0, 10314.0, 10322.0, 10329.0, 10335.0, 10332.0, 10321.0, 10310.0, 10288.0, 10293.0, 10307.0, 10325.0, 10337.0, 10335.0, 10342.0, 10325.0, 10309.0, 10291.0],
      "WindowWidth": [22421.0, 22282.0, 22161.0, 22073.0, 22034.0, 21993.0, 21972.0, 21963.0, 21946.0, 21943.0, 21931.0, 21954.0, 21994.0, 22032.0, 22067.0, 22083.0, 22117.0, 22124.0, 22147.0, 22173.0, 22163.0, 22162.0, 22179.0, 22156.0, 22138.0, 22124.0, 22123.0, 22141.0, 22158.0, 22152.0, 22150.0, 22164.0, 22177.0, 22172.0, 22174.0, 22173.0, 22182.0, 22203.0, 22203.0, 22195.0, 22216.0, 22237.0, 22210.0, 22195.0, 22168.0, 22161.0, 22159.0, 22201.0, 22232.0, 22268.0, 22237.0, 22191.0, 22142.0, 22136.0, 22154.0, 22158.0, 22150.0, 22157.0, 22149.0, 22137.0, 22137.0, 22141.0, 22170.0, 22188.0, 22191.0, 22195.0, 22173.0, 22156.0, 22160.0, 22193.0, 22199.0, 22179.0, 22152.0, 22125.0, 22139.0, 22164.0, 22158.0, 22129.0, 22130.0, 22134.0, 22132.0, 22134.0, 22147.0, 22170.0, 22177.0, 22176.0, 22162.0, 22158.0, 22139.0, 22129.0, 22122.0, 22123.0, 22120.0, 22132.0, 22158.0, 22191.0, 22203.0, 22161.0, 22153.0, 22141.0, 22166.0, 22186.0, 22158.0, 22132.0, 22122.0, 22158.0, 22179.0, 22162.0, 22116.0, 22102.0, 22137.0, 22152.0, 22134.0, 22141.0, 22151.0, 22169.0, 22177.0, 22174.0, 22229.0, 22238.0, 22236.0, 22210.0, 22202.0, 22172.0, 22141.0, 22132.0, 22133.0, 22145.0, 22160.0, 22174.0, 22191.0, 22184.0, 22156.0, 22130.0, 22083.0, 22092.0, 22124.0, 22166.0, 22199.0, 22195.0, 22206.0, 22170.0, 22134.0, 22095.0]
    },
    "slices": {}
  }
}