{
  "AcquisitionMatrixPE": 104,
  "AcquisitionNumber": 1,
  "AcquisitionTime": "18:57:54.235000",
  "BandwidthPerPixelPhaseEncode": 17.17,
  "BaseResolution": 104,
  "BodyPartExamined": "BRAIN",
  "CoilString": "HC1-7;NC1_2",
  "ConsistencyInfo": "N4_VE11C_LATEST_20160120",
  "ConversionSoftware": "dcm2niix",
  "ConversionSoftwareVersion": "v1.0.20190720  (JP2:OpenJPEG) GCC7.3.0",
  "DerivedVendorReportedEchoSpacing": 0.000560011,
  "DeviceSerialNumber": "167006",
  "DwellTime": 2.1e-06,
  "EchoTime": 0.037,
  "EchoTrainLength": 104,
  "EffectiveEchoSpacing": 0.000560011,
  "FlipAngle": 52,
  "ImageComments": "Unaliased_MB4_PE3_LB",
  "ImageOrientationPatientDICOM": [0.999428, -0.0270395, -0.0202948, 0.0163982, 0.912649, -0.408414],
  "ImageType": [
    "ORIGINAL",
    "PRIMARY",
    "M",
    "MB",
    "ND",
    "MOSAIC"
],
  "ImagingFrequency": 123.259,
  "InPlanePhaseEncodingDirectionDICOM": "COL",
  "InstitutionAddress": "Chemin_Queen-Mary_4565_Montreal_District_CA_H3W_1W5",
  "InstitutionName": "IUGM",
  "InstitutionalDepartmentName": "Department",
  "MRAcquisitionType": "2D",
  "MagneticFieldStrength": 3,
  "Manufacturer": "Siemens",
  "ManufacturersModelName": "Prisma_fit",
  "Modality": "MR",
  "MultibandAccelerationFactor": 4,
  "PartialFourier": 1,
  "PatientPosition": "HFS",
  "PercentPhaseFOV": 100,
  "PhaseEncodingDirection": "j",
  "PhaseEncodingSteps": 104,
  "PhaseResolution": 1,
  "PixelBandwidth": 2290,
  "ProcedureStepDescription": "hcptrt_generic",
  "ProtocolName": "func_task-wm_run-1",
  "PulseSequenceDetails": "%CustomerSeq%_cmrr_mbep2d_bold",
  "ReceiveCoilActiveElements": "HC1-7;NC1,2",
  "ReceiveCoilName": "HeadNeck_64",
  "ReconMatrixPE": 104,
  "RepetitionTime": 1.49,
  "SAR": 0.0365854,
  "ScanOptions": "FS",
  "ScanningSequence": "EP",
  "SequenceName": "epfid2d1_104",
  "SequenceVariant": "SK_SS",
  "SeriesDescription": "func_task-wm_run-1",
  "SeriesNumber": 14,
  "ShimSetting": [620, -7249, -8879, 374, 56, -415, 25, 41],
  "SliceThickness": 2,
  "SliceTiming": [0, 0.785, 0.1, 0.8825, 0.1975, 0.98, 0.295, 1.08, 0.3925, 1.1775, 0.49, 1.275, 0.59, 1.3725, 0.6875, 0, 0.785, 0.1, 0.8825, 0.1975, 0.98, 0.295, 1.08, 0.3925, 1.1775, 0.49, 1.275, 0.59, 1.3725, 0.6875, 0, 0.785, 0.1, 0.8825, 0.1975, 0.98, 0.295, 1.08, 0.3925, 1.1775, 0.49, 1.275, 0.59, 1.3725, 0.6875, 0, 0.785, 0.1, 0.8825, 0.1975, 0.98, 0.295, 1.08, 0.3925, 1.1775, 0.49, 1.275, 0.59, 1.3725, 0.6875],
  "SoftwareVersions": "syngo_MR_E11",
  "SpacingBetweenSlices": 2,
  "StationName": "MRC35049",
  "TaskName": "wm",
  "TotalReadoutTime": 0.0576811,
  "TxRefAmp": 242.15,
  "WipMemBlock": "cb3ca9be-f672-423b-910c-2ad3aa6ee60e||Sequence: R016 ve11c/master r/e634e98; Dec 19 2017 11:00:25 by eja",
  "dcmmeta_affine": [
    [-1.9988566637039185, 0.03279642388224602, -0.05913075432181358, 104.11499786376953],
    [0.05407892167568207, 1.825298547744751, -0.8156964778900146, -61.98261260986328],
    [-0.04058967903256416, 0.8168289661407471, 1.8251419067382812, -77.02831268310547],
    [0.0, 0.0, 0.0, 1.0]
],
  "dcmmeta_reorient_transform": [
    [0.0, -1.0, 0.0, 103.0],
    [1.0, 0.0, 0.0, 0.0],
    [0.0, 0.0, 1.0, 0.0],
    [0.0, 0.0, 0.0, 1.0]
],
  "dcmmeta_shape": [104, 104, 60, 202],
  "dcmmeta_slice_dim": 2,
  "dcmmeta_version": 0.6,
  "global": {
    "const": {
      "AcquisitionMatrix": [104, 0, 0, 104],
      "AngioFlag": "N",
      "BitsAllocated": 16,
      "BitsStored": 16,
      "BodyPartExamined": "BRAIN",
      "Columns": 832,
      "EchoNumbers": 1,
      "EchoTime": 37.0,
      "EchoTrainLength": 104,
      "FlipAngle": 52.0,
      "HighBit": 15,
      "ImageOrientationPatient": [0.99942833014349, -0.0270394606516, -0.0202948386114, 0.01639821217982, 0.91264927379278, -0.4084144973955],
      "ImagePositionPatient": [-847.01475128436, -770.74708041482, 319.20546992592],
      "ImageType": [
        "ORIGINAL",
        "PRIMARY",
        "M",
        "MB",
        "ND",
        "MOSAIC"
],
      "ImagedNucleus": "1H",
      "ImagingFrequency": 123.259462,
      "InPlanePhaseEncodingDirection": "COL",
      "MRAcquisitionType": "2D",
      "MagneticFieldStrength": 3.0,
      "Manufacturer": "SIEMENS",
      "ManufacturerModelName": "Prisma_fit",
      "Modality": "MR",
      "NumberOfAverages": 1.0,
      "NumberOfPhaseEncodingSteps": 104,
      "PercentPhaseFieldOfView": 100.0,
      "PercentSampling": 100.0,
      "PerformedProcedureStepStartTime": "182921.491000",
      "PhotometricInterpretation": "MONOCHROME2",
      "PixelBandwidth": 2290.0,
      "PixelRepresentation": 0,
      "PixelSpacing": [2.0, 2.0],
      "ProtocolName": "func_task-wm_run-1",
      "RepetitionTime": 1490.0,
      "Rows": 832,
      "SAR": 0.0365854412755,
      "SamplesPerPixel": 1,
      "ScanOptions": "FS",
      "ScanningSequence": "EP",
      "SequenceName": "epfid2d1_104",
      "SequenceVariant": [
        "SK",
        "SS"
],
      "SeriesDescription": "func_task-wm_run-1",
      "SeriesNumber": 14,
      "SeriesTime": "185908.182000",
      "SliceLocation": -48.092500426661,
      "SliceThickness": 2.0,
      "SmallestImagePixelValue": 0,
      "SoftwareVersions": "syngo MR E11",
      "SpacingBetweenSlices": 2.0000000208413,
      "SpecificCharacterSet": "ISO_IR 100",
      "StudyID": "1",
      "StudyTime": "182921.402000",
      "TransmitCoilName": "Body",
      "VariableFlipAngleFlag": "N",
      "WindowCenterWidthExplanation": "Algo1",
      "dBdt": 0.0},
    "slices": {}
  },
  "time": {
    "samples": {
      "AcquisitionNumber": [1, 2, 3, 4, 5, 6, 7, 8, 9, 10, 11, 12, 13, 14, 15, 16, 17, 18, 19, 20, 21, 22, 23, 24, 25, 26, 27, 28, 29, 30, 31, 32, 33, 34, 35, 36, 37, 38, 39, 40, 41, 42, 43, 44, 45, 46, 47, 48, 49, 50, 51, 52, 53, 54, 55, 56, 57, 58, 59, 60, 61, 62, 63, 64, 65, 66, 67, 68, 69, 70, 71, 72, 73, 74, 75, 76, 77, 78, 79, 80, 81, 82, 83, 84, 85, 86, 87, 88, 89, 90, 91, 92, 93, 94, 95, 96, 97, 98, 99, 100, 101, 102, 103, 104, 105, 106, 107, 108, 109, 110, 111, 112, 113, 114, 115, 116, 117, 118, 119, 120, 121, 122, 123, 124, 125, 126, 127, 128, 129, 130, 131, 132, 133, 134, 135, 136, 137, 138, 139, 140, 141, 142, 143, 144, 145, 146, 147, 148, 149, 150, 151, 152, 153, 154, 155, 156, 157, 158, 159, 160, 161, 162, 163, 164, 165, 166, 167, 168, 169, 170, 171, 172, 173, 174, 175, 176, 177, 178, 179, 180, 181, 182, 183, 184, 185, 186, 187, 188, 189, 190, 191, 192, 193, 194, 195, 196, 197, 198, 199, 200, 201, 202],
      "AcquisitionTime": ["185754.235000", "185755.725000", "185757.215000", "185758.705000", "185800.195000", "185801.685000", "185803.175000", "185804.665000", "185806.155000", "185807.645000", "185809.135000", "185810.625000", "185812.115000", "185813.605000", "185815.095000", "185816.585000", "185818.075000", "185819.565000", "185821.055000", "185822.545000", "185824.035000", "185825.525000", "185827.015000", "185828.505000", "185829.995000", "185831.485000", "185832.975000", "185834.465000", "185835.955000", "185837.445000", "185838.935000", "185840.425000", "185841.915000", "185843.405000", "185844.895000", "185846.385000", "185847.875000", "185849.365000", "185850.855000", "185852.345000", "185853.835000", "185855.325000", "185856.815000", "185858.305000", "185859.795000", "185901.285000", "185902.775000", "185904.265000", "185905.755000", "185907.245000", "185908.735000", "185910.225000", "185911.715000", "185913.205000", "185914.695000", "185916.185000", "185917.675000", "185919.165000", "185920.655000", "185922.145000", "185923.635000", "185925.125000", "185926.615000", "185928.105000", "185929.595000", "185931.085000", "185932.575000", "185934.065000", "185935.555000", "185937.045000", "185938.535000", "185940.025000", "185941.515000", "185943.005000", "185944.495000", "185945.985000", "185947.475000", "185948.965000", "185950.455000", "185951.945000", "185953.435000", "185954.925000", "185956.415000", "185957.905000", "185959.395000", "190000.885000", "190002.375000", "190003.865000", "190005.355000", "190006.845000", "190008.335000", "190009.825000", "190011.315000", "190012.805000", "190014.295000", "190015.785000", "190017.275000", "190018.765000", "190020.255000", "190021.745000", "190023.235000", "190024.725000", "190026.215000", "190027.705000", "190029.195000", "190030.685000", "190032.175000", "190033.665000", "190035.155000", "190036.645000", "190038.135000", "190039.625000", "190041.115000", "190042.605000", "190044.095000", "190045.585000", "190047.075000", "190048.565000", "190050.055000", "190051.545000", "190053.035000", "190054.525000", "190056.015000", "190057.505000", "190058.995000", "190100.485000", "190101.975000", "190103.465000", "190104.955000", "190106.445000", "190107.935000", "190109.425000", "190110.915000", "190112.405000", "190113.895000", "190115.385000", "190116.875000", "190118.365000", "190119.855000", "190121.345000", "190122.835000", "190124.325000", "190125.815000", "190127.305000", "190128.795000", "190130.285000", "190131.775000", "190133.265000", "190134.755000", "190136.245000", "190137.735000", "190139.225000", "190140.715000", "190142.205000", "190143.695000", "190145.185000", "190146.675000", "190148.165000", "190149.655000", "190151.145000", "190152.635000", "190154.125000", "190155.615000", "190157.105000", "190158.595000", "190200.085000", "190201.575000", "190203.065000", "190204.555000", "190206.045000", "190207.535000", "190209.025000", "190210.515000", "190212.005000", "190213.495000", "190214.985000", "190216.475000", "190217.965000", "190219.455000", "190220.945000", "190222.435000", "190223.925000", "190225.415000", "190226.905000", "190228.395000", "190229.885000", "190231.375000", "190232.865000", "190234.355000", "190235.845000", "190237.335000", "190238.825000", "190240.315000", "190241.805000", "190243.295000", "190244.785000", "190246.275000", "190247.765000", "190249.255000", "190250.745000", "190252.235000", "190253.725000"],
      "ContentTime": ["185908.185000", "185908.188000", "185908.191000", "185908.194000", "185908.197000", "185908.200000", "185908.202000", "185908.205000", "185908.208000", "185908.219000", "185908.223000", "185908.232000", "185908.236000", "185908.241000", "185908.244000", "185908.248000", "185908.251000", "185908.254000", "185908.257000", "185908.260000", "185928.183000", "185928.186000", "185928.189000", "185928.191000", "185928.194000", "185928.197000", "185928.200000", "185928.203000", "185928.206000", "185928.208000", "185928.211000", "185928.214000", "185928.217000", "185928.220000", "185928.223000", "185928.226000", "185928.228000", "185928.231000", "185928.234000", "185928.237000", "185928.240000", "185948.183000", "185948.186000", "185948.189000", "185948.191000", "185948.194000", "185948.197000", "185948.200000", "185948.203000", "185948.206000", "185948.209000", "185948.221000", "185948.224000", "185948.227000", "185948.230000", "185948.232000", "185948.235000", "185948.238000", "185948.241000", "185948.244000", "185948.247000", "190008.183000", "190008.186000", "190008.189000", "190008.192000", "190008.194000", "190008.197000", "190008.200000", "190008.203000", "190008.206000", "190008.209000", "190008.211000", "190008.214000", "190008.217000", "190008.220000", "190008.223000", "190008.226000", "190008.229000", "190008.231000", "190008.234000", "190008.237000", "190028.183000", "190028.186000", "190028.189000", "190028.191000", "190028.194000", "190028.197000", "190028.200000", "190028.203000", "190028.206000", "190028.209000", "190028.212000", "190028.214000", "190028.217000", "190028.220000", "190028.223000", "190028.226000", "190028.229000", "190028.232000", "190028.235000", "190028.237000", "190028.240000", "190108.183000", "190108.186000", "190108.189000", "190108.192000", "190108.195000", "190108.198000", "190108.201000", "190108.203000", "190108.206000", "190108.209000", "190108.212000", "190108.215000", "190108.218000", "190108.221000", "190108.224000", "190108.226000", "190108.229000", "190108.232000", "190108.235000", "190108.238000", "190108.241000", "190108.243000", "190108.246000", "190108.249000", "190108.252000", "190108.255000", "190108.258000", "190108.261000", "190148.183000", "190148.186000", "190148.189000", "190148.192000", "190148.195000", "190148.197000", "190148.200000", "190148.203000", "190148.206000", "190148.209000", "190148.212000", "190148.214000", "190148.217000", "190148.221000", "190148.224000", "190148.227000", "190148.230000", "190148.233000", "190148.236000", "190148.239000", "190148.242000", "190148.244000", "190148.247000", "190148.250000", "190148.253000", "190148.256000", "190228.183000", "190228.186000", "190228.189000", "190228.192000", "190228.194000", "190228.197000", "190228.200000", "190228.203000", "190228.206000", "190228.209000", "190228.212000", "190228.214000", "190228.217000", "190228.220000", "190228.223000", "190228.226000", "190228.229000", "190228.232000", "190228.235000", "190228.238000", "190228.240000", "190228.243000", "190228.246000", "190228.249000", "190228.252000", "190228.255000", "190228.258000", "190255.469000", "190255.473000", "190255.476000", "190255.479000", "190255.482000", "190255.485000", "190255.487000", "190255.490000", "190255.493000", "190255.496000", "190255.499000", "190255.502000", "190255.505000", "190255.508000", "190255.511000", "190255.514000", "190255.517000", "190255.520000", "190255.523000"],
      "InstanceCreationTime": ["185908.185000", "185908.188000", "185908.191000", "185908.194000", "185908.197000", "185908.200000", "185908.202000", "185908.205000", "185908.208000", "185908.219000", "185908.223000", "185908.232000", "185908.236000", "185908.241000", "185908.244000", "185908.248000", "185908.251000", "185908.254000", "185908.257000", "185908.260000", "185928.183000", "185928.186000", "185928.189000", "185928.191000", "185928.194000", "185928.197000", "185928.200000", "185928.203000", "185928.206000", "185928.208000", "185928.211000", "185928.214000", "185928.217000", "185928.220000", "185928.223000", "185928.226000", "185928.228000", "185928.231000", "185928.234000", "185928.237000", "185928.240000", "185948.183000", "185948.186000", "185948.189000", "185948.191000", "185948.194000", "185948.197000", "185948.200000", "185948.203000", "185948.206000", "185948.209000", "185948.221000", "185948.224000", "185948.227000", "185948.230000", "185948.232000", "185948.235000", "185948.238000", "185948.241000", "185948.244000", "185948.247000", "190008.183000", "190008.186000", "190008.189000", "190008.192000", "190008.194000", "190008.197000", "190008.200000", "190008.203000", "190008.206000", "190008.209000", "190008.211000", "190008.214000", "190008.217000", "190008.220000", "190008.223000", "190008.226000", "190008.229000", "190008.231000", "190008.234000", "190008.237000", "190028.183000", "190028.186000", "190028.189000", "190028.191000", "190028.194000", "190028.197000", "190028.200000", "190028.203000", "190028.206000", "190028.209000", "190028.212000", "190028.214000", "190028.217000", "190028.220000", "190028.223000", "190028.226000", "190028.229000", "190028.232000", "190028.235000", "190028.237000", "190028.240000", "190108.183000", "190108.186000", "190108.189000", "190108.192000", "190108.195000", "190108.198000", "190108.201000", "190108.203000", "190108.206000", "190108.209000", "190108.212000", "190108.215000", "190108.218000", "190108.221000", "190108.224000", "190108.226000", "190108.229000", "190108.232000", "190108.235000", "190108.238000", "190108.241000", "190108.243000", "190108.246000", "190108.249000", "190108.252000", "190108.255000", "190108.258000", "190108.261000", "190148.183000", "190148.186000", "190148.189000", "190148.192000", "190148.195000", "190148.197000", "190148.200000", "190148.203000", "190148.206000", "190148.209000", "190148.212000", "190148.214000", "190148.217000", "190148.221000", "190148.224000", "190148.227000", "190148.230000", "190148.233000", "190148.236000", "190148.239000", "190148.242000", "190148.244000", "190148.247000", "190148.250000", "190148.253000", "190148.256000", "190228.183000", "190228.186000", "190228.189000", "190228.192000", "190228.194000", "190228.197000", "190228.200000", "190228.203000", "190228.206000", "190228.209000", "190228.212000", "190228.214000", "190228.217000", "190228.220000", "190228.223000", "190228.226000", "190228.229000", "190228.232000", "190228.235000", "190228.238000", "190228.240000", "190228.243000", "190228.246000", "190228.249000", "190228.252000", "190228.255000", "190228.258000", "190255.469000", "190255.473000", "190255.476000", "190255.479000", "190255.482000", "190255.485000", "190255.487000", "190255.490000", "190255.493000", "190255.496000", "190255.499000", "190255.502000", "190255.505000", "190255.508000", "190255.511000", "190255.514000", "190255.517000", "190255.520000", "190255.523000"],
      "InstanceNumber": [1, 2, 3, 4, 5, 6, 7, 8, 9, 10, 11, 12, 13, 14, 15, 16, 17, 18, 19, 20, 21, 22, 23, 24, 25, 26, 27, 28, 29, 30, 31, 32, 33, 34, 35, 36, 37, 38, 39, 40, 41, 42, 43, 44, 45, 46, 47, 48, 49, 50, 51, 52, 53, 54, 55, 56, 57, 58, 59, 60, 61, 62, 63, 64, 65, 66, 67, 68, 69, 70, 71, 72, 73, 74, 75, 76, 77, 78, 79, 80, 81, 82, 83, 84, 85, 86, 87, 88, 89, 90, 91, 92, 93, 94, 95, 96, 97, 98, 99, 100, 101, 102, 103, 104, 105, 106, 107, 108, 109, 110, 111, 112, 113, 114, 115, 116, 117, 118, 119, 120, 121, 122, 123, 124, 125, 126, 127, 128, 129, 130, 131, 132, 133, 134, 135, 136, 137, 138, 139, 140, 141, 142, 143, 144, 145, 146, 147, 148, 149, 150, 151, 152, 153, 154, 155, 156, 157, 158, 159, 160, 161, 162, 163, 164, 165, 166, 167, 168, 169, 170, 171, 172, 173, 174, 175, 176, 177, 178, 179, 180, 181, 182, 183, 184, 185, 186, 187, 188, 189, 190, 191, 192, 193, 194, 195, 196, 197, 198, 199, 200, 201, 202],
      "LargestImagePixelValue": [57548, 55137, 55639, 55113, 55289, 55298, 55424, 55678, 55573, 55413, 55416, 55675, 55222, 55500, 55264, 55289, 55702, 55661, 55891, 55527, 55672, 55871, 55763, 56077, 56026, 56256, 55616, 55382, 54429, 54330, 53833, 54586, 54966, 55657, 55277, 55301, 55276, 54959, 54841, 55751, 55079, 55274, 55285, 55809, 55492, 55654, 55462, 55242, 55771, 55205, 56120, 56001, 55685, 56054, 55930, 55866, 56392, 56246, 56001, 55628, 56414, 55849, 55977, 55924, 56282, 56014, 55968, 55845, 55860, 55997, 55388, 55398, 55605, 55485, 55912, 55351, 55407, 55351, 56258, 55818, 55763, 55935, 55735, 55807, 55581, 55490, 55487, 55248, 55714, 55882, 55247, 55876, 55729, 55771, 55571, 55649, 55989, 55685, 56010, 55817, 56091, 55827, 56099, 56096, 55755, 55713, 55729, 55833, 55231, 55600, 55626, 55996, 55444, 55854, 55272, 55513, 55638, 55075, 55337, 55414, 55497, 55931, 55582, 55416, 55534, 55484, 55692, 55646, 55802, 55768, 56039, 56033, 55378, 55170, 55601, 55377, 55528, 55437, 55383, 55288, 55674, 55627, 55457, 55133, 55350, 55865, 55509, 55274, 55477, 55259, 55663, 55506, 55736, 55601, 55568, 55882, 55264, 55640, 55709, 55092, 55121, 55126, 55125, 55143, 55077, 55259, 55074, 54874, 54878, 55019, 55142, 55465, 55333, 55338, 55156, 55551, 55147, 55269, 55044, 55439, 55109, 54692, 55187, 54744, 55116, 55047, 54890, 55192, 55304, 55270, 54618, 55039, 55254, 55983, 55157, 55482, 54558, 55333, 54880, 54826, 55220, 54554],
      "WindowCenter": [10410.0, 10354.0, 10362.0, 10355.0, 10337.0, 10316.0, 10288.0, 10277.0, 10279.0, 10290.0, 10302.0, 10307.0, 10293.0, 10283.0, 10273.0, 10272.0, 10287.0, 10303.0, 10314.0, 10307.0, 10291.0, 10288.0, 10282.0, 10295.0, 10296.0, 10297.0, 10301.0, 10311.0, 10285.0, 10266.0, 10243.0, 10245.0, 10256.0, 10268.0, 10223.0, 10207.0, 10197.0, 10196.0, 10202.0, 10223.0, 10227.0, 10241.0, 10237.0, 10244.0, 10247.0, 10262.0, 10265.0, 10266.0, 10266.0, 10266.0, 10271.0, 10274.0, 10291.0, 10300.0, 10308.0, 10303.0, 10306.0, 10298.0, 10299.0, 10300.0, 10313.0, 10307.0, 10301.0, 10298.0, 10283.0, 10273.0, 10272.0, 10279.0, 10281.0, 10273.0, 10272.0, 10281.0, 10281.0, 10281.0, 10287.0, 10299.0, 10308.0, 10310.0, 10308.0, 10291.0, 10282.0, 10281.0, 10286.0, 10275.0, 10272.0, 10272.0, 10280.0, 10290.0, 10283.0, 10278.0, 10264.0, 10278.0, 10285.0, 10296.0, 10300.0, 10290.0, 10279.0, 10264.0, 10260.0, 10268.0, 10273.0, 10268.0, 10268.0, 10270.0, 10284.0, 10281.0, 10286.0, 10281.0, 10288.0, 10289.0, 10287.0, 10286.0, 10282.0, 10292.0, 10282.0, 10286.0, 10279.0, 10274.0, 10287.0, 10304.0, 10315.0, 10316.0, 10306.0, 10291.0, 10286.0, 10281.0, 10295.0, 10305.0, 10313.0, 10306.0, 10307.0, 10299.0, 10284.0, 10275.0, 10263.0, 10255.0, 10268.0, 10272.0, 10275.0, 10280.0, 10273.0, 10279.0, 10279.0, 10274.0, 10266.0, 10269.0, 10271.0, 10282.0, 10282.0, 10273.0, 10272.0, 10279.0, 10290.0, 10298.0, 10304.0, 10298.0, 10291.0, 10289.0, 10286.0, 10274.0, 10272.0, 10280.0, 10299.0, 10301.0, 10285.0, 10271.0, 10247.0, 10251.0, 10277.0, 10305.0, 10309.0, 10300.0, 10290.0, 10278.0, 10272.0, 10283.0, 10288.0, 10297.0, 10303.0, 10298.0, 10292.0, 10284.0, 10297.0, 10302.0, 10308.0, 10290.0, 10266.0, 10255.0, 10250.0, 10274.0, 10299.0, 10313.0, 10307.0, 10332.0, 10313.0, 10314.0, 10310.0, 10319.0, 10311.0, 10306.0, 10298.0, 10279.0],
      "WindowWidth": [22461.0, 22289.0, 22279.0, 22249.0, 22203.0, 22149.0, 22087.0, 22059.0, 22057.0, 22085.0, 22113.0, 22120.0, 22088.0, 22065.0, 22043.0, 22044.0, 22079.0, 22112.0, 22136.0, 22121.0, 22087.0, 22078.0, 22066.0, 22095.0, 22096.0, 22099.0, 22109.0, 22130.0, 22076.0, 22031.0, 21981.0, 21974.0, 22001.0, 22028.0, 21923.0, 21887.0, 21867.0, 21867.0, 21881.0, 21926.0, 21937.0, 21966.0, 21956.0, 21972.0, 21980.0, 22011.0, 22018.0, 22021.0, 22025.0, 22027.0, 22036.0, 22044.0, 22084.0, 22105.0, 22121.0, 22112.0, 22115.0, 22098.0, 22098.0, 22102.0, 22128.0, 22119.0, 22107.0, 22096.0, 22065.0, 22039.0, 22039.0, 22051.0, 22056.0, 22039.0, 22038.0, 22059.0, 22061.0, 22059.0, 22071.0, 22100.0, 22122.0, 22125.0, 22119.0, 22080.0, 22058.0, 22057.0, 22069.0, 22048.0, 22039.0, 22037.0, 22057.0, 22082.0, 22066.0, 22049.0, 22022.0, 22054.0, 22068.0, 22092.0, 22103.0, 22079.0, 22052.0, 22025.0, 22009.0, 22026.0, 22038.0, 22028.0, 22027.0, 22033.0, 22062.0, 22059.0, 22068.0, 22059.0, 22074.0, 22079.0, 22072.0, 22069.0, 22061.0, 22079.0, 22062.0, 22070.0, 22056.0, 22048.0, 22071.0, 22110.0, 22136.0, 22137.0, 22115.0, 22080.0, 22070.0, 22060.0, 22091.0, 22116.0, 22132.0, 22117.0, 22115.0, 22098.0, 22067.0, 22045.0, 22019.0, 22004.0, 22028.0, 22040.0, 22047.0, 22058.0, 22042.0, 22051.0, 22054.0, 22043.0, 22029.0, 22030.0, 22035.0, 22064.0, 22064.0, 22043.0, 22039.0, 22055.0, 22078.0, 22099.0, 22108.0, 22098.0, 22081.0, 22077.0, 22068.0, 22044.0, 22039.0, 22056.0, 22098.0, 22107.0, 22073.0, 22036.0, 21980.0, 21990.0, 22049.0, 22111.0, 22124.0, 22103.0, 22079.0, 22050.0, 22040.0, 22061.0, 22082.0, 22100.0, 22112.0, 22102.0, 22089.0, 22069.0, 22095.0, 22111.0, 22119.0, 22079.0, 22028.0, 22004.0, 21989.0, 22043.0, 22106.0, 22133.0, 22121.0, 22181.0, 22146.0, 22139.0, 22144.0, 22162.0, 22137.0, 22125.0, 22102.0, 22066.0]
    },
    "slices": {}
  }
}