{
  "AcquisitionMatrixPE": 104,
  "AcquisitionNumber": 1,
  "AcquisitionTime": "18:53:37.637500",
  "BandwidthPerPixelPhaseEncode": 17.17,
  "BaseResolution": 104,
  "BodyPartExamined": "BRAIN",
  "CoilString": "HC1-7;NC1_2",
  "ConsistencyInfo": "N4_VE11C_LATEST_20160120",
  "ConversionSoftware": "dcm2niix",
  "ConversionSoftwareVersion": "v1.0.20190720  (JP2:OpenJPEG) GCC7.3.0",
  "DerivedVendorReportedEchoSpacing": 0.000560011,
  "DeviceSerialNumber": "167006",
  "DwellTime": 2.1e-06,
  "EchoTime": 0.037,
  "EchoTrainLength": 104,
  "EffectiveEchoSpacing": 0.000560011,
  "FlipAngle": 52,
  "ImageComments": "Unaliased_MB4_PE3_LB",
  "ImageOrientationPatientDICOM": [0.999428, -0.0270395, -0.0202948, 0.0163982, 0.912649, -0.408414],
  "ImageType": [
    "ORIGINAL",
    "PRIMARY",
    "M",
    "MB",
    "ND",
    "MOSAIC"
],
  "ImagingFrequency": 123.259,
  "InPlanePhaseEncodingDirectionDICOM": "COL",
  "InstitutionAddress": "Chemin_Queen-Mary_4565_Montreal_District_CA_H3W_1W5",
  "InstitutionName": "IUGM",
  "InstitutionalDepartmentName": "Department",
  "MRAcquisitionType": "2D",
  "MagneticFieldStrength": 3,
  "Manufacturer": "Siemens",
  "ManufacturersModelName": "Prisma_fit",
  "Modality": "MR",
  "MultibandAccelerationFactor": 4,
  "PartialFourier": 1,
  "PatientPosition": "HFS",
  "PercentPhaseFOV": 100,
  "PhaseEncodingDirection": "j",
  "PhaseEncodingSteps": 104,
  "PhaseResolution": 1,
  "PixelBandwidth": 2290,
  "ProcedureStepDescription": "hcptrt_generic",
  "ProtocolName": "func_task-social_run-1",
  "PulseSequenceDetails": "%CustomerSeq%_cmrr_mbep2d_bold",
  "ReceiveCoilActiveElements": "HC1-7;NC1,2",
  "ReceiveCoilName": "HeadNeck_64",
  "ReconMatrixPE": 104,
  "RepetitionTime": 1.49,
  "SAR": 0.0364309,
  "ScanOptions": "FS",
  "ScanningSequence": "EP",
  "SequenceName": "epfid2d1_104",
  "SequenceVariant": "SK_SS",
  "SeriesDescription": "func_task-social_run-1",
  "SeriesNumber": 12,
  "ShimSetting": [620, -7249, -8879, 374, 56, -415, 25, 41],
  "SliceThickness": 2,
  "SliceTiming": [0, 0.785, 0.1, 0.8825, 0.1975, 0.98, 0.295, 1.0775, 0.3925, 1.1775, 0.49, 1.275, 0.5875, 1.3725, 0.6875, 0, 0.785, 0.1, 0.8825, 0.1975, 0.98, 0.295, 1.0775, 0.3925, 1.1775, 0.49, 1.275, 0.5875, 1.3725, 0.6875, 0, 0.785, 0.1, 0.8825, 0.1975, 0.98, 0.295, 1.0775, 0.3925, 1.1775, 0.49, 1.275, 0.5875, 1.3725, 0.6875, 0, 0.785, 0.1, 0.8825, 0.1975, 0.98, 0.295, 1.0775, 0.3925, 1.1775, 0.49, 1.275, 0.5875, 1.3725, 0.6875],
  "SoftwareVersions": "syngo_MR_E11",
  "SpacingBetweenSlices": 2,
  "StationName": "MRC35049",
  "TaskName": "social",
  "TotalReadoutTime": 0.0576811,
  "TxRefAmp": 242.15,
  "WipMemBlock": "35c3f51d-737f-448e-9ff3-b7fc92cabd0c||Sequence: R016 ve11c/master r/e634e98; Dec 19 2017 11:00:25 by eja",
  "dcmmeta_affine": [
    [-1.9988566637039185, 0.03279642388224602, -0.05913075432181358, 104.11499786376953],
    [0.05407892167568207, 1.825298547744751, -0.8156964778900146, -61.98261260986328],
    [-0.04058967903256416, 0.8168289661407471, 1.8251419067382812, -77.02831268310547],
    [0.0, 0.0, 0.0, 1.0]
],
  "dcmmeta_reorient_transform": [
    [0.0, -1.0, 0.0, 103.0],
    [1.0, 0.0, 0.0, 0.0],
    [0.0, 0.0, 1.0, 0.0],
    [0.0, 0.0, 0.0, 1.0]
],
  "dcmmeta_shape": [104, 104, 60, 139],
  "dcmmeta_slice_dim": 2,
  "dcmmeta_version": 0.6,
  "global": {
    "const": {
      "AcquisitionMatrix": [104, 0, 0, 104],
      "AngioFlag": "N",
      "BitsAllocated": 16,
      "BitsStored": 16,
      "BodyPartExamined": "BRAIN",
      "Columns": 832,
      "EchoNumbers": 1,
      "EchoTime": 37.0,
      "EchoTrainLength": 104,
      "FlipAngle": 52.0,
      "HighBit": 15,
      "ImageOrientationPatient": [0.99942833014349, -0.0270394606516, -0.0202948386114, 0.01639821217982, 0.91264927379278, -0.4084144973955],
      "ImagePositionPatient": [-847.01475128436, -770.74708041482, 319.20546992592],
      "ImageType": [
        "ORIGINAL",
        "PRIMARY",
        "M",
        "MB",
        "ND",
        "MOSAIC"
],
      "ImagedNucleus": "1H",
      "ImagingFrequency": 123.259462,
      "InPlanePhaseEncodingDirection": "COL",
      "MRAcquisitionType": "2D",
      "MagneticFieldStrength": 3.0,
      "Manufacturer": "SIEMENS",
      "ManufacturerModelName": "Prisma_fit",
      "Modality": "MR",
      "NumberOfAverages": 1.0,
      "NumberOfPhaseEncodingSteps": 104,
      "PercentPhaseFieldOfView": 100.0,
      "PercentSampling": 100.0,
      "PerformedProcedureStepStartTime": "182921.491000",
      "PhotometricInterpretation": "MONOCHROME2",
      "PixelBandwidth": 2290.0,
      "PixelRepresentation": 0,
      "PixelSpacing": [2.0, 2.0],
      "ProtocolName": "func_task-social_run-1",
      "RepetitionTime": 1490.0,
      "Rows": 832,
      "SAR": 0.03643089507722,
      "SamplesPerPixel": 1,
      "ScanOptions": "FS",
      "ScanningSequence": "EP",
      "SequenceName": "epfid2d1_104",
      "SequenceVariant": [
        "SK",
        "SS"
],
      "SeriesDescription": "func_task-social_run-1",
      "SeriesNumber": 12,
      "SeriesTime": "185453.767000",
      "SliceLocation": -48.092500426661,
      "SliceThickness": 2.0,
      "SmallestImagePixelValue": 0,
      "SoftwareVersions": "syngo MR E11",
      "SpacingBetweenSlices": 2.0000000208413,
      "SpecificCharacterSet": "ISO_IR 100",
      "StudyID": "1",
      "StudyTime": "182921.402000",
      "TransmitCoilName": "Body",
      "VariableFlipAngleFlag": "N",
      "WindowCenterWidthExplanation": "Algo1",
      "dBdt": 0.0},
    "slices": {}
  },
  "time": {
    "samples": {
      "AcquisitionNumber": [1, 2, 3, 4, 5, 6, 7, 8, 9, 10, 11, 12, 13, 14, 15, 16, 17, 18, 19, 20, 21, 22, 23, 24, 25, 26, 27, 28, 29, 30, 31, 32, 33, 34, 35, 36, 37, 38, 39, 40, 41, 42, 43, 44, 45, 46, 47, 48, 49, 50, 51, 52, 53, 54, 55, 56, 57, 58, 59, 60, 61, 62, 63, 64, 65, 66, 67, 68, 69, 70, 71, 72, 73, 74, 75, 76, 77, 78, 79, 80, 81, 82, 83, 84, 85, 86, 87, 88, 89, 90, 91, 92, 93, 94, 95, 96, 97, 98, 99, 100, 101, 102, 103, 104, 105, 106, 107, 108, 109, 110, 111, 112, 113, 114, 115, 116, 117, 118, 119, 120, 121, 122, 123, 124, 125, 126, 127, 128, 129, 130, 131, 132, 133, 134, 135, 136, 137, 138, 139],
      "AcquisitionTime": ["185337.637500", "185339.127500", "185340.617500", "185342.107500", "185343.597500", "185345.087500", "185346.577500", "185348.067500", "185349.557500", "185351.047500", "185352.537500", "185354.027500", "185355.517500", "185357.007500", "185358.497500", "185359.987500", "185401.477500", "185402.967500", "185404.457500", "185405.947500", "185407.437500", "185408.927500", "185410.417500", "185411.907500", "185413.397500", "185414.887500", "185416.377500", "185417.867500", "185419.357500", "185420.847500", "185422.337500", "185423.827500", "185425.317500", "185426.807500", "185428.297500", "185429.787500", "185431.277500", "185432.767500", "185434.257500", "185435.747500", "185437.237500", "185438.727500", "185440.217500", "185441.707500", "185443.197500", "185444.687500", "185446.177500", "185447.667500", "185449.157500", "185450.647500", "185452.137500", "185453.627500", "185455.117500", "185456.607500", "185458.097500", "185459.587500", "185501.077500", "185502.567500", "185504.057500", "185505.547500", "185507.037500", "185508.527500", "185510.017500", "185511.507500", "185512.997500", "185514.487500", "185515.977500", "185517.467500", "185518.957500", "185520.447500", "185521.937500", "185523.427500", "185524.917500", "185526.407500", "185527.897500", "185529.387500", "185530.877500", "185532.367500", "185533.857500", "185535.347500", "185536.837500", "185538.327500", "185539.817500", "185541.307500", "185542.797500", "185544.287500", "185545.777500", "185547.267500", "185548.757500", "185550.247500", "185551.737500", "185553.227500", "185554.717500", "185556.207500", "185557.697500", "185559.187500", "185600.677500", "185602.167500", "185603.657500", "185605.147500", "185606.637500", "185608.127500", "185609.617500", "185611.107500", "185612.597500", "185614.087500", "185615.577500", "185617.067500", "185618.557500", "185620.047500", "185621.537500", "185623.027500", "185624.517500", "185626.007500", "185627.497500", "185628.987500", "185630.477500", "185631.967500", "185633.457500", "185634.947500", "185636.437500", "185637.927500", "185639.417500", "185640.907500", "185642.397500", "185643.887500", "185645.377500", "185646.867500", "185648.357500", "185649.847500", "185651.337500", "185652.827500", "185654.317500", "185655.807500", "185657.297500", "185658.787500", "185700.277500", "185701.767500", "185703.257500"],
      "ContentTime": ["185453.770000", "185453.773000", "185453.777000", "185453.789000", "185453.792000", "185453.795000", "185453.801000", "185453.804000", "185453.806000", "185453.809000", "185453.812000", "185453.815000", "185453.818000", "185453.821000", "185453.824000", "185453.827000", "185453.829000", "185453.832000", "185453.835000", "185453.845000", "185453.847000", "185453.850000", "185453.853000", "185513.734000", "185513.737000", "185513.740000", "185513.743000", "185513.746000", "185513.748000", "185513.751000", "185513.754000", "185513.757000", "185513.760000", "185513.770000", "185513.772000", "185513.775000", "185513.778000", "185513.781000", "185513.784000", "185513.787000", "185513.790000", "185513.792000", "185513.795000", "185533.733000", "185533.736000", "185533.739000", "185533.742000", "185533.745000", "185533.747000", "185533.750000", "185533.753000", "185533.756000", "185533.759000", "185533.762000", "185533.765000", "185533.768000", "185533.770000", "185533.773000", "185533.776000", "185533.779000", "185533.782000", "185533.785000", "185533.788000", "185533.790000", "185553.733000", "185553.736000", "185553.739000", "185553.742000", "185553.745000", "185553.748000", "185553.750000", "185553.753000", "185553.756000", "185553.759000", "185553.762000", "185553.765000", "185553.768000", "185553.771000", "185553.774000", "185553.777000", "185553.779000", "185553.782000", "185553.785000", "185553.788000", "185613.733000", "185613.736000", "185613.739000", "185613.742000", "185613.745000", "185613.747000", "185613.750000", "185613.753000", "185613.756000", "185613.759000", "185613.762000", "185613.765000", "185613.768000", "185613.771000", "185613.773000", "185613.776000", "185613.779000", "185613.782000", "185613.785000", "185613.788000", "185653.734000", "185653.737000", "185653.740000", "185653.743000", "185653.746000", "185653.748000", "185653.751000", "185653.754000", "185653.757000", "185653.760000", "185653.763000", "185653.766000", "185653.769000", "185653.778000", "185653.780000", "185653.783000", "185653.786000", "185653.789000", "185653.792000", "185653.795000", "185653.797000", "185653.800000", "185653.803000", "185653.806000", "185653.809000", "185653.812000", "185653.815000", "185705.154000", "185705.157000", "185705.160000", "185705.163000", "185705.166000", "185705.168000", "185705.171000", "185705.174000"],
      "InstanceCreationTime": ["185453.770000", "185453.773000", "185453.777000", "185453.789000", "185453.792000", "185453.795000", "185453.801000", "185453.804000", "185453.806000", "185453.809000", "185453.812000", "185453.815000", "185453.818000", "185453.821000", "185453.824000", "185453.827000", "185453.829000", "185453.832000", "185453.835000", "185453.845000", "185453.847000", "185453.850000", "185453.853000", "185513.734000", "185513.737000", "185513.740000", "185513.743000", "185513.746000", "185513.748000", "185513.751000", "185513.754000", "185513.757000", "185513.760000", "185513.770000", "185513.772000", "185513.775000", "185513.778000", "185513.781000", "185513.784000", "185513.787000", "185513.790000", "185513.792000", "185513.795000", "185533.733000", "185533.736000", "185533.739000", "185533.742000", "185533.745000", "185533.747000", "185533.750000", "185533.753000", "185533.756000", "185533.759000", "185533.762000", "185533.765000", "185533.768000", "185533.770000", "185533.773000", "185533.776000", "185533.779000", "185533.782000", "185533.785000", "185533.788000", "185533.790000", "185553.733000", "185553.736000", "185553.739000", "185553.742000", "185553.745000", "185553.748000", "185553.750000", "185553.753000", "185553.756000", "185553.759000", "185553.762000", "185553.765000", "185553.768000", "185553.771000", "185553.774000", "185553.777000", "185553.779000", "185553.782000", "185553.785000", "185553.788000", "185613.733000", "185613.736000", "185613.739000", "185613.742000", "185613.745000", "185613.747000", "185613.750000", "185613.753000", "185613.756000", "185613.759000", "185613.762000", "185613.765000", "185613.768000", "185613.771000", "185613.773000", "185613.776000", "185613.779000", "185613.782000", "185613.785000", "185613.788000", "185653.734000", "185653.737000", "185653.740000", "185653.743000", "185653.746000", "185653.748000", "185653.751000", "185653.754000", "185653.757000", "185653.760000", "185653.763000", "185653.766000", "185653.769000", "185653.778000", "185653.780000", "185653.783000", "185653.786000", "185653.789000", "185653.792000", "185653.795000", "185653.797000", "185653.800000", "185653.803000", "185653.806000", "185653.809000", "185653.812000", "185653.815000", "185705.154000", "185705.157000", "185705.160000", "185705.163000", "185705.166000", "185705.168000", "185705.171000", "185705.174000"],
      "InstanceNumber": [1, 2, 3, 4, 5, 6, 7, 8, 9, 10, 11, 12, 13, 14, 15, 16, 17, 18, 19, 20, 21, 22, 23, 24, 25, 26, 27, 28, 29, 30, 31, 32, 33, 34, 35, 36, 37, 38, 39, 40, 41, 42, 43, 44, 45, 46, 47, 48, 49, 50, 51, 52, 53, 54, 55, 56, 57, 58, 59, 60, 61, 62, 63, 64, 65, 66, 67, 68, 69, 70, 71, 72, 73, 74, 75, 76, 77, 78, 79, 80, 81, 82, 83, 84, 85, 86, 87, 88, 89, 90, 91, 92, 93, 94, 95, 96, 97, 98, 99, 100, 101, 102, 103, 104, 105, 106, 107, 108, 109, 110, 111, 112, 113, 114, 115, 116, 117, 118, 119, 120, 121, 122, 123, 124, 125, 126, 127, 128, 129, 130, 131, 132, 133, 134, 135, 136, 137, 138, 139],
      "LargestImagePixelValue": [58945, 57014, 56017, 55712, 55698, 54662, 53731, 52639, 53704, 54241, 54713, 54543, 54463, 54457, 54511, 55113, 54457, 54783, 55133, 54775, 55031, 54084, 54823, 54791, 54141, 54798, 54723, 53908, 54776, 55040, 54568, 55166, 54302, 54737, 54906, 54379, 54907, 54700, 54574, 54193, 54498, 54105, 54113, 53934, 54428, 54845, 54119, 54093, 53835, 53737, 52957, 53713, 54433, 53745, 54331, 54041, 54704, 54193, 54639, 54296, 54560, 54707, 54553, 55286, 54723, 55187, 55252, 53915, 54318, 54320, 55254, 54792, 54266, 54686, 54623, 55014, 54254, 54844, 54092, 53988, 53646, 53850, 54591, 54090, 53979, 54923, 54096, 54400, 54440, 54721, 54578, 54593, 55373, 55044, 54342, 55297, 55276, 54324, 54772, 54653, 55197, 54712, 55224, 55183, 55497, 55943, 54357, 53985, 53721, 55251, 55538, 55691, 55408, 55446, 55702, 55646, 55272, 55150, 54925, 54968, 55385, 54897, 54951, 55228, 54803, 55499, 54677, 55680, 55013, 55208, 54909, 55091, 55455, 55271, 55971, 55456, 55306, 54506, 53430],
      "WindowCenter": [10412.0, 10347.0, 10318.0, 10320.0, 10323.0, 10311.0, 10275.0, 10249.0, 10252.0, 10266.0, 10291.0, 10305.0, 10323.0, 10323.0, 10303.0, 10289.0, 10267.0, 10271.0, 10275.0, 10294.0, 10305.0, 10296.0, 10283.0, 10264.0, 10248.0, 10252.0, 10261.0, 10274.0, 10287.0, 10288.0, 10291.0, 10305.0, 10301.0, 10297.0, 10281.0, 10280.0, 10286.0, 10296.0, 10295.0, 10284.0, 10279.0, 10274.0, 10282.0, 10291.0, 10293.0, 10297.0, 10308.0, 10326.0, 10315.0, 10292.0, 10276.0, 10282.0, 10278.0, 10281.0, 10279.0, 10280.0, 10285.0, 10277.0, 10274.0, 10268.0, 10271.0, 10265.0, 10274.0, 10282.0, 10286.0, 10296.0, 10296.0, 10285.0, 10283.0, 10272.0, 10274.0, 10284.0, 10298.0, 10295.0, 10288.0, 10285.0, 10287.0, 10280.0, 10265.0, 10256.0, 10245.0, 10244.0, 10265.0, 10278.0, 10296.0, 10294.0, 10281.0, 10272.0, 10269.0, 10283.0, 10293.0, 10316.0, 10324.0, 10325.0, 10314.0, 10309.0, 10299.0, 10285.0, 10289.0, 10286.0, 10298.0, 10296.0, 10285.0, 10276.0, 10273.0, 10277.0, 10281.0, 10274.0, 10265.0, 10269.0, 10267.0, 10253.0, 10243.0, 10227.0, 10224.0, 10231.0, 10228.0, 10234.0, 10235.0, 10251.0, 10270.0, 10282.0, 10290.0, 10282.0, 10270.0, 10273.0, 10282.0, 10295.0, 10298.0, 10292.0, 10283.0, 10266.0, 10262.0, 10278.0, 10333.0, 10327.0, 10332.0, 10300.0, 10283.0],
      "WindowWidth": [22458.0, 22277.0, 22188.0, 22174.0, 22172.0, 22143.0, 22057.0, 22002.0, 22000.0, 22031.0, 22088.0, 22121.0, 22163.0, 22161.0, 22120.0, 22088.0, 22039.0, 22047.0, 22052.0, 22097.0, 22121.0, 22108.0, 22073.0, 22030.0, 21995.0, 22003.0, 22023.0, 22058.0, 22085.0, 22085.0, 22093.0, 22123.0, 22117.0, 22105.0, 22068.0, 22064.0, 22076.0, 22104.0, 22100.0, 22080.0, 22066.0, 22055.0, 22072.0, 22093.0, 22101.0, 22103.0, 22129.0, 22171.0, 22150.0, 22100.0, 22066.0, 22075.0, 22065.0, 22074.0, 22068.0, 22068.0, 22076.0, 22058.0, 22052.0, 22040.0, 22045.0, 22034.0, 22054.0, 22074.0, 22083.0, 22106.0, 22104.0, 22085.0, 22078.0, 22048.0, 22048.0, 22071.0, 22105.0, 22099.0, 22084.0, 22076.0, 22081.0, 22070.0, 22037.0, 22016.0, 21986.0, 21986.0, 22028.0, 22062.0, 22102.0, 22097.0, 22070.0, 22049.0, 22042.0, 22072.0, 22098.0, 22147.0, 22166.0, 22168.0, 22146.0, 22131.0, 22105.0, 22079.0, 22084.0, 22079.0, 22104.0, 22107.0, 22075.0, 22057.0, 22046.0, 22053.0, 22066.0, 22054.0, 22032.0, 22033.0, 22029.0, 22001.0, 21977.0, 21941.0, 21930.0, 21947.0, 21945.0, 21957.0, 21962.0, 21995.0, 22038.0, 22068.0, 22085.0, 22064.0, 22043.0, 22045.0, 22067.0, 22092.0, 22100.0, 22089.0, 22068.0, 22034.0, 22019.0, 22060.0, 22197.0, 22181.0, 22191.0, 22122.0, 22080.0]
    },
    "slices": {}
  }
}