{
  "AcquisitionMatrixPE": 104,
  "AcquisitionNumber": 1,
  "AcquisitionTime": "19:07:13.905000",
  "BandwidthPerPixelPhaseEncode": 17.17,
  "BaseResolution": 104,
  "BodyPartExamined": "BRAIN",
  "CoilString": "HC1-7;NC1_2",
  "ConsistencyInfo": "N4_VE11C_LATEST_20160120",
  "ConversionSoftware": "dcm2niix",
  "ConversionSoftwareVersion": "v1.0.20190720  (JP2:OpenJPEG) GCC7.3.0",
  "DerivedVendorReportedEchoSpacing": 0.000560011,
  "DeviceSerialNumber": "167006",
  "DwellTime": 2.1e-06,
  "EchoTime": 0.037,
  "EchoTrainLength": 104,
  "EffectiveEchoSpacing": 0.000560011,
  "FlipAngle": 52,
  "ImageComments": "Unaliased_MB4_PE3_LB",
  "ImageOrientationPatientDICOM": [0.999428, -0.0270395, -0.0202948, 0.0163982, 0.912649, -0.408414],
  "ImageType": [
    "ORIGINAL",
    "PRIMARY",
    "M",
    "MB",
    "ND",
    "MOSAIC"
],
  "ImagingFrequency": 123.259,
  "InPlanePhaseEncodingDirectionDICOM": "COL",
  "InstitutionAddress": "Chemin_Queen-Mary_4565_Montreal_District_CA_H3W_1W5",
  "InstitutionName": "IUGM",
  "InstitutionalDepartmentName": "Department",
  "MRAcquisitionType": "2D",
  "MagneticFieldStrength": 3,
  "Manufacturer": "Siemens",
  "ManufacturersModelName": "Prisma_fit",
  "Modality": "MR",
  "MultibandAccelerationFactor": 4,
  "PartialFourier": 1,
  "PatientPosition": "HFS",
  "PercentPhaseFOV": 100,
  "PhaseEncodingDirection": "j",
  "PhaseEncodingSteps": 104,
  "PhaseResolution": 1,
  "PixelBandwidth": 2290,
  "ProcedureStepDescription": "hcptrt_generic",
  "ProtocolName": "func_task-relational_run-1",
  "PulseSequenceDetails": "%CustomerSeq%_cmrr_mbep2d_bold",
  "ReceiveCoilActiveElements": "HC1-7;NC1,2",
  "ReceiveCoilName": "HeadNeck_64",
  "ReconMatrixPE": 104,
  "RepetitionTime": 1.49,
  "SAR": 0.0363495,
  "ScanOptions": "FS",
  "ScanningSequence": "EP",
  "SequenceName": "epfid2d1_104",
  "SequenceVariant": "SK_SS",
  "SeriesDescription": "func_task-relational_run-1",
  "SeriesNumber": 18,
  "ShimSetting": [620, -7249, -8879, 374, 56, -415, 25, 41],
  "SliceThickness": 2,
  "SliceTiming": [0, 0.7825, 0.0975, 0.88, 0.195, 0.98, 0.2925, 1.0775, 0.39, 1.175, 0.49, 1.2725, 0.5875, 1.37, 0.685, 0, 0.7825, 0.0975, 0.88, 0.195, 0.98, 0.2925, 1.0775, 0.39, 1.175, 0.49, 1.2725, 0.5875, 1.37, 0.685, 0, 0.7825, 0.0975, 0.88, 0.195, 0.98, 0.2925, 1.0775, 0.39, 1.175, 0.49, 1.2725, 0.5875, 1.37, 0.685, 0, 0.7825, 0.0975, 0.88, 0.195, 0.98, 0.2925, 1.0775, 0.39, 1.175, 0.49, 1.2725, 0.5875, 1.37, 0.685],
  "SoftwareVersions": "syngo_MR_E11",
  "SpacingBetweenSlices": 2,
  "StationName": "MRC35049",
  "TaskName": "relational",
  "TotalReadoutTime": 0.0576811,
  "TxRefAmp": 242.15,
  "WipMemBlock": "ac11819d-24fd-427e-9641-4e2adf0ac504||Sequence: R016 ve11c/master r/e634e98; Dec 19 2017 11:00:25 by eja",
  "dcmmeta_affine": [
    [-1.9988566637039185, 0.03279642388224602, -0.05913075432181358, 104.11499786376953],
    [0.05407892167568207, 1.825298547744751, -0.8156964778900146, -61.98261260986328],
    [-0.04058967903256416, 0.8168289661407471, 1.8251419067382812, -77.02831268310547],
    [0.0, 0.0, 0.0, 1.0]
],
  "dcmmeta_reorient_transform": [
    [0.0, -1.0, 0.0, 103.0],
    [1.0, 0.0, 0.0, 0.0],
    [0.0, 0.0, 1.0, 0.0],
    [0.0, 0.0, 0.0, 1.0]
],
  "dcmmeta_shape": [104, 104, 60, 119],
  "dcmmeta_slice_dim": 2,
  "dcmmeta_version": 0.6,
  "global": {
    "const": {
      "AcquisitionMatrix": [104, 0, 0, 104],
      "AngioFlag": "N",
      "BitsAllocated": 16,
      "BitsStored": 16,
      "BodyPartExamined": "BRAIN",
      "Columns": 832,
      "EchoNumbers": 1,
      "EchoTime": 37.0,
      "EchoTrainLength": 104,
      "FlipAngle": 52.0,
      "HighBit": 15,
      "ImageOrientationPatient": [0.99942833014349, -0.0270394606516, -0.0202948386114, 0.01639821217982, 0.91264927379278, -0.4084144973955],
      "ImagePositionPatient": [-847.01475128436, -770.74708041482, 319.20546992592],
      "ImageType": [
        "ORIGINAL",
        "PRIMARY",
        "M",
        "MB",
        "ND",
        "MOSAIC"
],
      "ImagedNucleus": "1H",
      "ImagingFrequency": 123.259463,
      "InPlanePhaseEncodingDirection": "COL",
      "MRAcquisitionType": "2D",
      "MagneticFieldStrength": 3.0,
      "Manufacturer": "SIEMENS",
      "ManufacturerModelName": "Prisma_fit",
      "Modality": "MR",
      "NumberOfAverages": 1.0,
      "NumberOfPhaseEncodingSteps": 104,
      "PercentPhaseFieldOfView": 100.0,
      "PercentSampling": 100.0,
      "PerformedProcedureStepStartTime": "182921.491000",
      "PhotometricInterpretation": "MONOCHROME2",
      "PixelBandwidth": 2290.0,
      "PixelRepresentation": 0,
      "PixelSpacing": [2.0, 2.0],
      "ProtocolName": "func_task-relational_run-1",
      "RepetitionTime": 1490.0,
      "Rows": 832,
      "SAR": 0.03634951745177,
      "SamplesPerPixel": 1,
      "ScanOptions": "FS",
      "ScanningSequence": "EP",
      "SequenceName": "epfid2d1_104",
      "SequenceVariant": [
        "SK",
        "SS"
],
      "SeriesDescription": "func_task-relational_run-1",
      "SeriesNumber": 18,
      "SeriesTime": "190833.762000",
      "SliceLocation": -48.092500426661,
      "SliceThickness": 2.0,
      "SmallestImagePixelValue": 0,
      "SoftwareVersions": "syngo MR E11",
      "SpacingBetweenSlices": 2.0000000208413,
      "SpecificCharacterSet": "ISO_IR 100",
      "StudyID": "1",
      "StudyTime": "182921.402000",
      "TransmitCoilName": "Body",
      "VariableFlipAngleFlag": "N",
      "WindowCenterWidthExplanation": "Algo1",
      "dBdt": 0.0},
    "slices": {}
  },
  "time": {
    "samples": {
      "AcquisitionNumber": [1, 2, 3, 4, 5, 6, 7, 8, 9, 10, 11, 12, 13, 14, 15, 16, 17, 18, 19, 20, 21, 22, 23, 24, 25, 26, 27, 28, 29, 30, 31, 32, 33, 34, 35, 36, 37, 38, 39, 40, 41, 42, 43, 44, 45, 46, 47, 48, 49, 50, 51, 52, 53, 54, 55, 56, 57, 58, 59, 60, 61, 62, 63, 64, 65, 66, 67, 68, 69, 70, 71, 72, 73, 74, 75, 76, 77, 78, 79, 80, 81, 82, 83, 84, 85, 86, 87, 88, 89, 90, 91, 92, 93, 94, 95, 96, 97, 98, 99, 100, 101, 102, 103, 104, 105, 106, 107, 108, 109, 110, 111, 112, 113, 114, 115, 116, 117, 118, 119],
      "AcquisitionTime": ["190713.905000", "190715.395000", "190716.885000", "190718.375000", "190719.865000", "190721.355000", "190722.845000", "190724.335000", "190725.825000", "190727.315000", "190728.805000", "190730.295000", "190731.785000", "190733.275000", "190734.765000", "190736.255000", "190737.745000", "190739.235000", "190740.725000", "190742.215000", "190743.705000", "190745.195000", "190746.685000", "190748.175000", "190749.665000", "190751.155000", "190752.645000", "190754.135000", "190755.625000", "190757.115000", "190758.605000", "190800.095000", "190801.585000", "190803.075000", "190804.565000", "190806.055000", "190807.545000", "190809.035000", "190810.525000", "190812.015000", "190813.505000", "190814.995000", "190816.485000", "190817.975000", "190819.465000", "190820.955000", "190822.445000", "190823.935000", "190825.425000", "190826.915000", "190828.405000", "190829.895000", "190831.385000", "190832.875000", "190834.365000", "190835.855000", "190837.345000", "190838.835000", "190840.325000", "190841.815000", "190843.305000", "190844.795000", "190846.285000", "190847.775000", "190849.265000", "190850.755000", "190852.245000", "190853.735000", "190855.225000", "190856.715000", "190858.205000", "190859.695000", "190901.185000", "190902.675000", "190904.165000", "190905.655000", "190907.145000", "190908.635000", "190910.125000", "190911.615000", "190913.105000", "190914.595000", "190916.085000", "190917.575000", "190919.065000", "190920.555000", "190922.045000", "190923.535000", "190925.025000", "190926.515000", "190928.005000", "190929.495000", "190930.985000", "190932.475000", "190933.965000", "190935.455000", "190936.945000", "190938.435000", "190939.925000", "190941.415000", "190942.905000", "190944.395000", "190945.885000", "190947.375000", "190948.865000", "190950.355000", "190951.845000", "190953.335000", "190954.825000", "190956.315000", "190957.805000", "190959.295000", "191000.785000", "191002.275000", "191003.765000", "191005.255000", "191006.745000", "191008.235000", "191009.725000"],
      "ContentTime": ["190833.765000", "190833.768000", "190833.772000", "190833.774000", "190833.782000", "190833.784000", "190833.787000", "190833.790000", "190833.793000", "190833.799000", "190833.801000", "190833.804000", "190833.807000", "190833.810000", "190833.813000", "190833.816000", "190833.819000", "190833.822000", "190833.825000", "190833.828000", "190833.832000", "190833.835000", "190833.838000", "190833.841000", "190833.844000", "190833.848000", "190833.853000", "190853.734000", "190853.737000", "190853.740000", "190853.743000", "190853.746000", "190853.749000", "190853.752000", "190853.754000", "190853.757000", "190853.760000", "190853.763000", "190853.766000", "190853.774000", "190853.777000", "190853.779000", "190853.782000", "190853.785000", "190853.788000", "190853.791000", "190853.794000", "190853.797000", "190913.733000", "190913.736000", "190913.739000", "190913.742000", "190913.746000", "190913.748000", "190913.751000", "190913.754000", "190913.757000", "190913.764000", "190913.767000", "190913.770000", "190913.773000", "190913.776000", "190913.779000", "190913.782000", "190913.785000", "190913.787000", "190913.790000", "190913.793000", "190933.733000", "190933.736000", "190933.739000", "190933.742000", "190933.745000", "190933.748000", "190933.751000", "190933.753000", "190933.756000", "190933.759000", "190933.762000", "190933.765000", "190933.768000", "190933.771000", "190933.774000", "190933.777000", "190933.779000", "190933.782000", "190933.785000", "190933.788000", "191011.826000", "191011.829000", "191011.832000", "191011.835000", "191011.838000", "191011.846000", "191011.849000", "191011.852000", "191011.855000", "191011.858000", "191011.861000", "191011.864000", "191011.867000", "191011.870000", "191011.873000", "191011.875000", "191011.879000", "191011.882000", "191011.885000", "191011.888000", "191011.890000", "191011.893000", "191011.896000", "191011.899000", "191011.902000", "191011.905000", "191011.908000", "191011.911000", "191011.914000", "191011.917000", "191011.920000"],
      "InstanceCreationTime": ["190833.765000", "190833.768000", "190833.772000", "190833.774000", "190833.782000", "190833.784000", "190833.787000", "190833.790000", "190833.793000", "190833.799000", "190833.801000", "190833.804000", "190833.807000", "190833.810000", "190833.813000", "190833.816000", "190833.819000", "190833.822000", "190833.825000", "190833.828000", "190833.832000", "190833.835000", "190833.838000", "190833.841000", "190833.844000", "190833.848000", "190833.853000", "190853.734000", "190853.737000", "190853.740000", "190853.743000", "190853.746000", "190853.749000", "190853.752000", "190853.754000", "190853.757000", "190853.760000", "190853.763000", "190853.766000", "190853.774000", "190853.777000", "190853.779000", "190853.782000", "190853.785000", "190853.788000", "190853.791000", "190853.794000", "190853.797000", "190913.733000", "190913.736000", "190913.739000", "190913.742000", "190913.746000", "190913.748000", "190913.751000", "190913.754000", "190913.757000", "190913.764000", "190913.767000", "190913.770000", "190913.773000", "190913.776000", "190913.779000", "190913.782000", "190913.785000", "190913.787000", "190913.790000", "190913.793000", "190933.733000", "190933.736000", "190933.739000", "190933.742000", "190933.745000", "190933.748000", "190933.751000", "190933.753000", "190933.756000", "190933.759000", "190933.762000", "190933.765000", "190933.768000", "190933.771000", "190933.774000", "190933.777000", "190933.779000", "190933.782000", "190933.785000", "190933.788000", "191011.826000", "191011.829000", "191011.832000", "191011.835000", "191011.838000", "191011.846000", "191011.849000", "191011.852000", "191011.855000", "191011.858000", "191011.861000", "191011.864000", "191011.867000", "191011.870000", "191011.873000", "191011.875000", "191011.879000", "191011.882000", "191011.885000", "191011.888000", "191011.890000", "191011.893000", "191011.896000", "191011.899000", "191011.902000", "191011.905000", "191011.908000", "191011.911000", "191011.914000", "191011.917000", "191011.920000"],
      "InstanceNumber": [1, 2, 3, 4, 5, 6, 7, 8, 9, 10, 11, 12, 13, 14, 15, 16, 17, 18, 19, 20, 21, 22, 23, 24, 25, 26, 27, 28, 29, 30, 31, 32, 33, 34, 35, 36, 37, 38, 39, 40, 41, 42, 43, 44, 45, 46, 47, 48, 49, 50, 51, 52, 53, 54, 55, 56, 57, 58, 59, 60, 61, 62, 63, 64, 65, 66, 67, 68, 69, 70, 71, 72, 73, 74, 75, 76, 77, 78, 79, 80, 81, 82, 83, 84, 85, 86, 87, 88, 89, 90, 91, 92, 93, 94, 95, 96, 97, 98, 99, 100, 101, 102, 103, 104, 105, 106, 107, 108, 109, 110, 111, 112, 113, 114, 115, 116, 117, 118, 119],
      "LargestImagePixelValue": [58947, 57043, 56025, 55818, 55242, 55379, 54800, 55352, 54576, 55038, 54529, 55301, 54769, 54906, 54931, 54271, 55304, 55041, 55518, 54914, 54544, 55140, 54692, 55589, 54903, 54947, 54905, 55225, 54782, 54963, 54765, 55026, 55056, 54682, 55176, 54840, 54683, 55263, 54431, 55364, 55240, 54919, 54844, 54190, 54344, 54543, 54594, 54597, 55193, 55160, 55003, 55203, 54683, 54723, 54945, 54676, 54834, 54653, 54583, 55238, 55114, 55205, 54629, 54764, 54342, 53687, 54118, 53832, 53554, 53798, 53562, 53505, 54168, 54089, 54005, 54207, 54652, 53802, 54746, 54486, 54705, 54691, 54957, 54555, 54892, 54423, 55086, 54674, 54731, 54625, 55182, 54665, 54940, 54940, 55037, 54693, 55280, 54481, 55020, 54800, 54981, 55309, 54940, 54735, 54523, 55134, 55098, 54369, 54189, 54962, 54292, 54203, 54406, 55616, 54740, 54584, 53950, 52398, 49754],
      "WindowCenter": [10437.0, 10367.0, 10319.0, 10290.0, 10285.0, 10281.0, 10269.0, 10271.0, 10251.0, 10248.0, 10246.0, 10252.0, 10263.0, 10274.0, 10282.0, 10283.0, 10289.0, 10296.0, 10304.0, 10305.0, 10301.0, 10298.0, 10291.0, 10285.0, 10287.0, 10289.0, 10290.0, 10290.0, 10291.0, 10289.0, 10282.0, 10273.0, 10273.0, 10273.0, 10279.0, 10273.0, 10273.0, 10269.0, 10258.0, 10271.0, 10301.0, 10323.0, 10327.0, 10305.0, 10285.0, 10268.0, 10263.0, 10272.0, 10285.0, 10295.0, 10289.0, 10287.0, 10267.0, 10263.0, 10262.0, 10272.0, 10290.0, 10306.0, 10293.0, 10282.0, 10265.0, 10259.0, 10260.0, 10276.0, 10287.0, 10294.0, 10293.0, 10293.0, 10296.0, 10312.0, 10318.0, 10309.0, 10305.0, 10294.0, 10284.0, 10284.0, 10290.0, 10286.0, 10300.0, 10293.0, 10283.0, 10272.0, 10263.0, 10257.0, 10278.0, 10292.0, 10306.0, 10301.0, 10299.0, 10298.0, 10299.0, 10299.0, 10298.0, 10282.0, 10271.0, 10257.0, 10260.0, 10271.0, 10288.0, 10286.0, 10292.0, 10292.0, 10285.0, 10284.0, 10277.0, 10289.0, 10298.0, 10293.0, 10274.0, 10270.0, 10256.0, 10255.0, 10268.0, 10330.0, 10342.0, 10351.0, 10323.0, 10234.0, 10095.0],
      "WindowWidth": [22511.0, 22319.0, 22184.0, 22105.0, 22082.0, 22066.0, 22039.0, 22039.0, 21997.0, 21989.0, 21986.0, 21996.0, 22022.0, 22052.0, 22066.0, 22072.0, 22084.0, 22095.0, 22115.0, 22116.0, 22113.0, 22101.0, 22086.0, 22068.0, 22074.0, 22080.0, 22083.0, 22084.0, 22087.0, 22080.0, 22064.0, 22050.0, 22045.0, 22046.0, 22058.0, 22050.0, 22049.0, 22036.0, 22018.0, 22044.0, 22110.0, 22160.0, 22171.0, 22121.0, 22072.0, 22033.0, 22021.0, 22043.0, 22070.0, 22095.0, 22083.0, 22075.0, 22038.0, 22027.0, 22023.0, 22047.0, 22088.0, 22120.0, 22093.0, 22069.0, 22033.0, 22019.0, 22020.0, 22056.0, 22083.0, 22102.0, 22099.0, 22099.0, 22107.0, 22141.0, 22158.0, 22137.0, 22123.0, 22097.0, 22075.0, 22075.0, 22087.0, 22079.0, 22103.0, 22088.0, 22066.0, 22043.0, 22023.0, 22013.0, 22058.0, 22092.0, 22122.0, 22113.0, 22106.0, 22103.0, 22105.0, 22106.0, 22100.0, 22068.0, 22041.0, 22015.0, 22016.0, 22044.0, 22083.0, 22081.0, 22094.0, 22094.0, 22080.0, 22078.0, 22060.0, 22084.0, 22103.0, 22095.0, 22052.0, 22037.0, 22006.0, 22005.0, 22035.0, 22182.0, 22211.0, 22228.0, 22170.0, 21963.0, 21633.0]
    },
    "slices": {}
  }
}