{
  "AcquisitionMatrixPE": 104,
  "AcquisitionNumber": 1,
  "AcquisitionTime": "19:11:11.190000",
  "BandwidthPerPixelPhaseEncode": 17.17,
  "BaseResolution": 104,
  "BodyPartExamined": "BRAIN",
  "CoilString": "HC1-7;NC1_2",
  "ConsistencyInfo": "N4_VE11C_LATEST_20160120",
  "ConversionSoftware": "dcm2niix",
  "ConversionSoftwareVersion": "v1.0.20190720  (JP2:OpenJPEG) GCC7.3.0",
  "DerivedVendorReportedEchoSpacing": 0.000560011,
  "DeviceSerialNumber": "167006",
  "DwellTime": 2.1e-06,
  "EchoTime": 0.037,
  "EchoTrainLength": 104,
  "EffectiveEchoSpacing": 0.000560011,
  "FlipAngle": 52,
  "ImageComments": "Unaliased_MB4_PE3_LB",
  "ImageOrientationPatientDICOM": [0.999428, -0.0270395, -0.0202948, 0.0163982, 0.912649, -0.408414],
  "ImageType": [
    "ORIGINAL",
    "PRIMARY",
    "M",
    "MB",
    "ND",
    "MOSAIC"
],
  "ImagingFrequency": 123.259,
  "InPlanePhaseEncodingDirectionDICOM": "COL",
  "InstitutionAddress": "Chemin_Queen-Mary_4565_Montreal_District_CA_H3W_1W5",
  "InstitutionName": "IUGM",
  "InstitutionalDepartmentName": "Department",
  "MRAcquisitionType": "2D",
  "MagneticFieldStrength": 3,
  "Manufacturer": "Siemens",
  "ManufacturersModelName": "Prisma_fit",
  "Modality": "MR",
  "MultibandAccelerationFactor": 4,
  "PartialFourier": 1,
  "PatientPosition": "HFS",
  "PercentPhaseFOV": 100,
  "PhaseEncodingDirection": "j",
  "PhaseEncodingSteps": 104,
  "PhaseResolution": 1,
  "PixelBandwidth": 2290,
  "ProcedureStepDescription": "hcptrt_generic",
  "ProtocolName": "func_task-gambling_run-1",
  "PulseSequenceDetails": "%CustomerSeq%_cmrr_mbep2d_bold",
  "ReceiveCoilActiveElements": "HC1-7;NC1,2",
  "ReceiveCoilName": "HeadNeck_64",
  "ReconMatrixPE": 104,
  "RepetitionTime": 1.49,
  "SAR": 0.0363932,
  "ScanOptions": "FS",
  "ScanningSequence": "EP",
  "SequenceName": "epfid2d1_104",
  "SequenceVariant": "SK_SS",
  "SeriesDescription": "func_task-gambling_run-1",
  "SeriesNumber": 20,
  "ShimSetting": [620, -7249, -8879, 374, 56, -415, 25, 41],
  "SliceThickness": 2,
  "SliceTiming": [0, 0.7825, 0.0975, 0.88, 0.195, 0.98, 0.2925, 1.0775, 0.39, 1.175, 0.49, 1.2725, 0.5875, 1.37, 0.685, 0, 0.7825, 0.0975, 0.88, 0.195, 0.98, 0.2925, 1.0775, 0.39, 1.175, 0.49, 1.2725, 0.5875, 1.37, 0.685, 0, 0.7825, 0.0975, 0.88, 0.195, 0.98, 0.2925, 1.0775, 0.39, 1.175, 0.49, 1.2725, 0.5875, 1.37, 0.685, 0, 0.7825, 0.0975, 0.88, 0.195, 0.98, 0.2925, 1.0775, 0.39, 1.175, 0.49, 1.2725, 0.5875, 1.37, 0.685],
  "SoftwareVersions": "syngo_MR_E11",
  "SpacingBetweenSlices": 2,
  "StationName": "MRC35049",
  "TaskName": "gambling",
  "TotalReadoutTime": 0.0576811,
  "TxRefAmp": 242.15,
  "WipMemBlock": "df706b31-b19c-46a4-acb3-ac6e096cdca4||Sequence: R016 ve11c/master r/e634e98; Dec 19 2017 11:00:25 by eja",
  "dcmmeta_affine": [
    [-1.9988566637039185, 0.03279642388224602, -0.05913075432181358, 104.11499786376953],
    [0.05407892167568207, 1.825298547744751, -0.8156964778900146, -61.98261260986328],
    [-0.04058967903256416, 0.8168289661407471, 1.8251419067382812, -77.02831268310547],
    [0.0, 0.0, 0.0, 1.0]
],
  "dcmmeta_reorient_transform": [
    [0.0, -1.0, 0.0, 103.0],
    [1.0, 0.0, 0.0, 0.0],
    [0.0, 0.0, 1.0, 0.0],
    [0.0, 0.0, 0.0, 1.0]
],
  "dcmmeta_shape": [104, 104, 60, 129],
  "dcmmeta_slice_dim": 2,
  "dcmmeta_version": 0.6,
  "global": {
    "const": {
      "AcquisitionMatrix": [104, 0, 0, 104],
      "AngioFlag": "N",
      "BitsAllocated": 16,
      "BitsStored": 16,
      "BodyPartExamined": "BRAIN",
      "Columns": 832,
      "EchoNumbers": 1,
      "EchoTime": 37.0,
      "EchoTrainLength": 104,
      "FlipAngle": 52.0,
      "HighBit": 15,
      "ImageOrientationPatient": [0.99942833014349, -0.0270394606516, -0.0202948386114, 0.01639821217982, 0.91264927379278, -0.4084144973955],
      "ImagePositionPatient": [-847.01475128436, -770.74708041482, 319.20546992592],
      "ImageType": [
        "ORIGINAL",
        "PRIMARY",
        "M",
        "MB",
        "ND",
        "MOSAIC"
],
      "ImagedNucleus": "1H",
      "ImagingFrequency": 123.259462,
      "InPlanePhaseEncodingDirection": "COL",
      "MRAcquisitionType": "2D",
      "MagneticFieldStrength": 3.0,
      "Manufacturer": "SIEMENS",
      "ManufacturerModelName": "Prisma_fit",
      "Modality": "MR",
      "NumberOfAverages": 1.0,
      "NumberOfPhaseEncodingSteps": 104,
      "PercentPhaseFieldOfView": 100.0,
      "PercentSampling": 100.0,
      "PerformedProcedureStepStartTime": "182921.491000",
      "PhotometricInterpretation": "MONOCHROME2",
      "PixelBandwidth": 2290.0,
      "PixelRepresentation": 0,
      "PixelSpacing": [2.0, 2.0],
      "ProtocolName": "func_task-gambling_run-1",
      "RepetitionTime": 1490.0,
      "Rows": 832,
      "SAR": 0.0363931965708,
      "SamplesPerPixel": 1,
      "ScanOptions": "FS",
      "ScanningSequence": "EP",
      "SequenceName": "epfid2d1_104",
      "SequenceVariant": [
        "SK",
        "SS"
],
      "SeriesDescription": "func_task-gambling_run-1",
      "SeriesNumber": 20,
      "SeriesTime": "191228.223000",
      "SliceLocation": -48.092500426661,
      "SliceThickness": 2.0,
      "SmallestImagePixelValue": 0,
      "SoftwareVersions": "syngo MR E11",
      "SpacingBetweenSlices": 2.0000000208413,
      "SpecificCharacterSet": "ISO_IR 100",
      "StudyID": "1",
      "StudyTime": "182921.402000",
      "TransmitCoilName": "Body",
      "VariableFlipAngleFlag": "N",
      "WindowCenterWidthExplanation": "Algo1",
      "dBdt": 0.0},
    "slices": {}
  },
  "time": {
    "samples": {
      "AcquisitionNumber": [1, 2, 3, 4, 5, 6, 7, 8, 9, 10, 11, 12, 13, 14, 15, 16, 17, 18, 19, 20, 21, 22, 23, 24, 25, 26, 27, 28, 29, 30, 31, 32, 33, 34, 35, 36, 37, 38, 39, 40, 41, 42, 43, 44, 45, 46, 47, 48, 49, 50, 51, 52, 53, 54, 55, 56, 57, 58, 59, 60, 61, 62, 63, 64, 65, 66, 67, 68, 69, 70, 71, 72, 73, 74, 75, 76, 77, 78, 79, 80, 81, 82, 83, 84, 85, 86, 87, 88, 89, 90, 91, 92, 93, 94, 95, 96, 97, 98, 99, 100, 101, 102, 103, 104, 105, 106, 107, 108, 109, 110, 111, 112, 113, 114, 115, 116, 117, 118, 119, 120, 121, 122, 123, 124, 125, 126, 127, 128, 129],
      "AcquisitionTime": ["191111.190000", "191112.680000", "191114.170000", "191115.660000", "191117.150000", "191118.640000", "191120.130000", "191121.620000", "191123.110000", "191124.600000", "191126.090000", "191127.580000", "191129.070000", "191130.560000", "191132.050000", "191133.540000", "191135.030000", "191136.520000", "191138.010000", "191139.500000", "191140.990000", "191142.480000", "191143.970000", "191145.460000", "191146.950000", "191148.440000", "191149.930000", "191151.420000", "191152.910000", "191154.400000", "191155.890000", "191157.380000", "191158.870000", "191200.360000", "191201.850000", "191203.340000", "191204.830000", "191206.320000", "191207.810000", "191209.300000", "191210.790000", "191212.280000", "191213.770000", "191215.260000", "191216.750000", "191218.240000", "191219.730000", "191221.220000", "191222.710000", "191224.200000", "191225.690000", "191227.180000", "191228.670000", "191230.160000", "191231.650000", "191233.140000", "191234.630000", "191236.120000", "191237.610000", "191239.100000", "191240.590000", "191242.080000", "191243.570000", "191245.060000", "191246.550000", "191248.040000", "191249.530000", "191251.020000", "191252.510000", "191254.000000", "191255.490000", "191256.980000", "191258.470000", "191259.960000", "191301.450000", "191302.940000", "191304.430000", "191305.920000", "191307.410000", "191308.900000", "191310.390000", "191311.880000", "191313.370000", "191314.860000", "191316.350000", "191317.840000", "191319.330000", "191320.820000", "191322.310000", "191323.800000", "191325.290000", "191326.780000", "191328.270000", "191329.760000", "191331.250000", "191332.740000", "191334.230000", "191335.720000", "191337.210000", "191338.700000", "191340.190000", "191341.680000", "191343.170000", "191344.660000", "191346.150000", "191347.640000", "191349.130000", "191350.620000", "191352.110000", "191353.600000", "191355.090000", "191356.580000", "191358.070000", "191359.560000", "191401.050000", "191402.540000", "191404.030000", "191405.520000", "191407.010000", "191408.500000", "191409.990000", "191411.480000", "191412.970000", "191414.460000", "191415.950000", "191417.440000", "191418.930000", "191420.420000", "191421.910000"],
      "ContentTime": ["191228.226000", "191228.229000", "191228.233000", "191228.236000", "191228.238000", "191228.241000", "191228.244000", "191228.247000", "191228.250000", "191228.263000", "191228.265000", "191228.268000", "191228.276000", "191228.279000", "191228.281000", "191228.284000", "191228.287000", "191228.290000", "191228.293000", "191228.295000", "191228.298000", "191228.301000", "191228.304000", "191248.183000", "191248.186000", "191248.189000", "191248.191000", "191248.194000", "191248.197000", "191248.200000", "191248.203000", "191248.206000", "191248.209000", "191248.212000", "191248.222000", "191248.224000", "191248.227000", "191248.230000", "191248.233000", "191248.236000", "191248.239000", "191248.241000", "191248.244000", "191308.184000", "191308.188000", "191308.191000", "191308.194000", "191308.197000", "191308.200000", "191308.203000", "191308.206000", "191308.208000", "191308.211000", "191308.214000", "191308.217000", "191308.220000", "191308.223000", "191308.226000", "191308.228000", "191308.231000", "191308.234000", "191308.237000", "191308.240000", "191328.183000", "191328.186000", "191328.189000", "191328.191000", "191328.194000", "191328.197000", "191328.200000", "191328.203000", "191328.206000", "191328.209000", "191328.211000", "191328.214000", "191328.217000", "191328.220000", "191328.223000", "191328.226000", "191328.229000", "191328.231000", "191328.234000", "191328.237000", "191328.240000", "191348.183000", "191348.186000", "191348.189000", "191348.192000", "191348.195000", "191348.198000", "191348.201000", "191348.203000", "191348.206000", "191348.209000", "191348.212000", "191348.215000", "191348.218000", "191348.220000", "191348.223000", "191348.226000", "191348.229000", "191348.232000", "191348.235000", "191348.238000", "191424.197000", "191424.201000", "191424.204000", "191424.207000", "191424.210000", "191424.213000", "191424.216000", "191424.219000", "191424.222000", "191424.225000", "191424.228000", "191424.231000", "191424.235000", "191424.242000", "191424.245000", "191424.248000", "191424.251000", "191424.254000", "191424.257000", "191424.260000", "191424.263000", "191424.266000", "191424.269000", "191424.272000", "191424.274000"],
      "InstanceCreationTime": ["191228.226000", "191228.229000", "191228.233000", "191228.236000", "191228.238000", "191228.241000", "191228.244000", "191228.247000", "191228.250000", "191228.263000", "191228.265000", "191228.268000", "191228.276000", "191228.279000", "191228.281000", "191228.284000", "191228.287000", "191228.290000", "191228.293000", "191228.295000", "191228.298000", "191228.301000", "191228.304000", "191248.183000", "191248.186000", "191248.189000", "191248.191000", "191248.194000", "191248.197000", "191248.200000", "191248.203000", "191248.206000", "191248.209000", "191248.212000", "191248.222000", "191248.224000", "191248.227000", "191248.230000", "191248.233000", "191248.236000", "191248.239000", "191248.241000", "191248.244000", "191308.184000", "191308.188000", "191308.191000", "191308.194000", "191308.197000", "191308.200000", "191308.203000", "191308.206000", "191308.208000", "191308.211000", "191308.214000", "191308.217000", "191308.220000", "191308.223000", "191308.226000", "191308.228000", "191308.231000", "191308.234000", "191308.237000", "191308.240000", "191328.183000", "191328.186000", "191328.189000", "191328.191000", "191328.194000", "191328.197000", "191328.200000", "191328.203000", "191328.206000", "191328.209000", "191328.211000", "191328.214000", "191328.217000", "191328.220000", "191328.223000", "191328.226000", "191328.229000", "191328.231000", "191328.234000", "191328.237000", "191328.240000", "191348.183000", "191348.186000", "191348.189000", "191348.192000", "191348.195000", "191348.198000", "191348.201000", "191348.203000", "191348.206000", "191348.209000", "191348.212000", "191348.215000", "191348.218000", "191348.220000", "191348.223000", "191348.226000", "191348.229000", "191348.232000", "191348.235000", "191348.238000", "191424.197000", "191424.201000", "191424.204000", "191424.207000", "191424.210000", "191424.213000", "191424.216000", "191424.219000", "191424.222000", "191424.225000", "191424.228000", "191424.231000", "191424.235000", "191424.242000", "191424.245000", "191424.248000", "191424.251000", "191424.254000", "191424.257000", "191424.260000", "191424.263000", "191424.266000", "191424.269000", "191424.272000", "191424.274000"],
      "InstanceNumber": [1, 2, 3, 4, 5, 6, 7, 8, 9, 10, 11, 12, 13, 14, 15, 16, 17, 18, 19, 20, 21, 22, 23, 24, 25, 26, 27, 28, 29, 30, 31, 32, 33, 34, 35, 36, 37, 38, 39, 40, 41, 42, 43, 44, 45, 46, 47, 48, 49, 50, 51, 52, 53, 54, 55, 56, 57, 58, 59, 60, 61, 62, 63, 64, 65, 66, 67, 68, 69, 70, 71, 72, 73, 74, 75, 76, 77, 78, 79, 80, 81, 82, 83, 84, 85, 86, 87, 88, 89, 90, 91, 92, 93, 94, 95, 96, 97, 98, 99, 100, 101, 102, 103, 104, 105, 106, 107, 108, 109, 110, 111, 112, 113, 114, 115, 116, 117, 118, 119, 120, 121, 122, 123, 124, 125, 126, 127, 128, 129],
      "LargestImagePixelValue": [57933, 56313, 56396, 55738, 54952, 54801, 54538, 54574, 54576, 54771, 55102, 54705, 55188, 55281, 55109, 55308, 55105, 55211, 55513, 54848, 54922, 54972, 54955, 54876, 55177, 54954, 55458, 54510, 55425, 54896, 55364, 55089, 54842, 55202, 54877, 54974, 54854, 54803, 54565, 55451, 54664, 55262, 54753, 54988, 54877, 55008, 54798, 55091, 54846, 55286, 54804, 55398, 55017, 55086, 55104, 55118, 55479, 54862, 54980, 54932, 55364, 54853, 54860, 55218, 54459, 54876, 55271, 54671, 54861, 54698, 54832, 54790, 54808, 54959, 54872, 55147, 55022, 55558, 55246, 55283, 55081, 55133, 55337, 55973, 55131, 55519, 55135, 54932, 55143, 54958, 55259, 55187, 54968, 54877, 54745, 54972, 54829, 55049, 54825, 54807, 54931, 55040, 55081, 55154, 54983, 55008, 55316, 55405, 55021, 55086, 55016, 54833, 55088, 55552, 56101, 55760, 55731, 55961, 55673, 55560, 55560, 55661, 55338, 55357, 55458, 55361, 55061, 55165, 54932],
      "WindowCenter": [10388.0, 10336.0, 10338.0, 10310.0, 10294.0, 10275.0, 10264.0, 10261.0, 10267.0, 10283.0, 10299.0, 10296.0, 10302.0, 10310.0, 10312.0, 10303.0, 10300.0, 10300.0, 10300.0, 10295.0, 10303.0, 10302.0, 10293.0, 10293.0, 10300.0, 10301.0, 10301.0, 10295.0, 10298.0, 10293.0, 10291.0, 10284.0, 10277.0, 10280.0, 10276.0, 10273.0, 10267.0, 10267.0, 10277.0, 10279.0, 10259.0, 10254.0, 10254.0, 10265.0, 10275.0, 10289.0, 10278.0, 10275.0, 10267.0, 10280.0, 10283.0, 10295.0, 10298.0, 10292.0, 10294.0, 10301.0, 10308.0, 10305.0, 10301.0, 10301.0, 10307.0, 10302.0, 10294.0, 10285.0, 10256.0, 10248.0, 10288.0, 10290.0, 10292.0, 10286.0, 10275.0, 10265.0, 10265.0, 10270.0, 10282.0, 10290.0, 10292.0, 10295.0, 10290.0, 10288.0, 10283.0, 10274.0, 10277.0, 10283.0, 10281.0, 10295.0, 10288.0, 10291.0, 10287.0, 10274.0, 10279.0, 10278.0, 10278.0, 10267.0, 10263.0, 10268.0, 10273.0, 10279.0, 10273.0, 10265.0, 10267.0, 10269.0, 10286.0, 10298.0, 10299.0, 10297.0, 10289.0, 10279.0, 10271.0, 10272.0, 10288.0, 10298.0, 10307.0, 10312.0, 10325.0, 10315.0, 10313.0, 10317.0, 10315.0, 10307.0, 10291.0, 10286.0, 10278.0, 10281.0, 10291.0, 10311.0, 10312.0, 10303.0, 10286.0],
      "WindowWidth": [22405.0, 22243.0, 22224.0, 22145.0, 22103.0, 22055.0, 22027.0, 22018.0, 22033.0, 22067.0, 22102.0, 22097.0, 22111.0, 22128.0, 22135.0, 22112.0, 22105.0, 22105.0, 22105.0, 22097.0, 22114.0, 22110.0, 22091.0, 22089.0, 22105.0, 22108.0, 22110.0, 22098.0, 22098.0, 22092.0, 22087.0, 22070.0, 22058.0, 22064.0, 22054.0, 22041.0, 22028.0, 22027.0, 22053.0, 22055.0, 22013.0, 21998.0, 22001.0, 22030.0, 22050.0, 22079.0, 22058.0, 22052.0, 22034.0, 22058.0, 22069.0, 22093.0, 22101.0, 22088.0, 22094.0, 22110.0, 22123.0, 22119.0, 22110.0, 22109.0, 22121.0, 22111.0, 22092.0, 22074.0, 22003.0, 21986.0, 22078.0, 22080.0, 22089.0, 22076.0, 22050.0, 22024.0, 22026.0, 22034.0, 22063.0, 22080.0, 22089.0, 22089.0, 22080.0, 22075.0, 22067.0, 22046.0, 22050.0, 22060.0, 22062.0, 22090.0, 22074.0, 22087.0, 22076.0, 22048.0, 22058.0, 22054.0, 22055.0, 22033.0, 22019.0, 22028.0, 22042.0, 22055.0, 22041.0, 22026.0, 22026.0, 22033.0, 22072.0, 22101.0, 22102.0, 22097.0, 22079.0, 22055.0, 22040.0, 22041.0, 22075.0, 22101.0, 22119.0, 22131.0, 22169.0, 22144.0, 22139.0, 22142.0, 22136.0, 22119.0, 22082.0, 22069.0, 22051.0, 22065.0, 22087.0, 22132.0, 22134.0, 22111.0, 22077.0]
    },
    "slices": {}
  }
}