{
  "AcquisitionMatrixPE": 104,
  "AcquisitionNumber": 1,
  "AcquisitionTime": "15:57:36.025000",
  "BandwidthPerPixelPhaseEncode": 17.17,
  "BaseResolution": 104,
  "BodyPartExamined": "BRAIN",
  "CoilString": "HC1-7;NC1_2",
  "ConsistencyInfo": "N4_VE11C_LATEST_20160120",
  "ConversionSoftware": "dcm2niix",
  "ConversionSoftwareVersion": "v1.0.20190720  (JP2:OpenJPEG) GCC7.3.0",
  "DerivedVendorReportedEchoSpacing": 0.000560011,
  "DeviceSerialNumber": "167006",
  "DwellTime": 2.1e-06,
  "EchoTime": 0.037,
  "EchoTrainLength": 104,
  "EffectiveEchoSpacing": 0.000560011,
  "FlipAngle": 52,
  "ImageComments": "Unaliased_MB4_PE3_LB",
  "ImageOrientationPatientDICOM": [0.99908, -0.0422974, 0.00708065, 0.0404764, 0.875443, -0.481623],
  "ImageType": [
    "ORIGINAL",
    "PRIMARY",
    "M",
    "MB",
    "ND",
    "MOSAIC"
],
  "ImagingFrequency": 123.259,
  "InPlanePhaseEncodingDirectionDICOM": "COL",
  "InstitutionAddress": "Chemin_Queen-Mary_4565_Montreal_District_CA_H3W_1W5",
  "InstitutionName": "IUGM",
  "InstitutionalDepartmentName": "Department",
  "MRAcquisitionType": "2D",
  "MagneticFieldStrength": 3,
  "Manufacturer": "Siemens",
  "ManufacturersModelName": "Prisma_fit",
  "Modality": "MR",
  "MultibandAccelerationFactor": 4,
  "PartialFourier": 1,
  "PatientPosition": "HFS",
  "PercentPhaseFOV": 100,
  "PhaseEncodingDirection": "j",
  "PhaseEncodingSteps": 104,
  "PhaseResolution": 1,
  "PixelBandwidth": 2290,
  "ProcedureStepDescription": "hcptrt_generic",
  "ProtocolName": "func_task-wm_run-1",
  "PulseSequenceDetails": "%CustomerSeq%_cmrr_mbep2d_bold",
  "ReceiveCoilActiveElements": "HC1-7;NC1,2",
  "ReceiveCoilName": "HeadNeck_64",
  "ReconMatrixPE": 104,
  "RepetitionTime": 1.49,
  "SAR": 0.0346338,
  "ScanOptions": "FS",
  "ScanningSequence": "EP",
  "SequenceName": "epfid2d1_104",
  "SequenceVariant": "SK_SS",
  "SeriesDescription": "func_task-wm_run-1",
  "SeriesNumber": 15,
  "ShimSetting": [613, -7195, -8884, 371, -74, -144, 14, -34],
  "SliceThickness": 2,
  "SliceTiming": [0, 0.7825, 0.0975, 0.88, 0.195, 0.98, 0.2925, 1.0775, 0.39, 1.175, 0.49, 1.2725, 0.5875, 1.37, 0.685, 0, 0.7825, 0.0975, 0.88, 0.195, 0.98, 0.2925, 1.0775, 0.39, 1.175, 0.49, 1.2725, 0.5875, 1.37, 0.685, 0, 0.7825, 0.0975, 0.88, 0.195, 0.98, 0.2925, 1.0775, 0.39, 1.175, 0.49, 1.2725, 0.5875, 1.37, 0.685, 0, 0.7825, 0.0975, 0.88, 0.195, 0.98, 0.2925, 1.0775, 0.39, 1.175, 0.49, 1.2725, 0.5875, 1.37, 0.685],
  "SoftwareVersions": "syngo_MR_E11",
  "SpacingBetweenSlices": 2,
  "StationName": "MRC35049",
  "TaskName": "wm",
  "TotalReadoutTime": 0.0576811,
  "TxRefAmp": 249.216,
  "WipMemBlock": "11917afe-40e9-4e85-b22f-0e8f39ea1e27||Sequence: R016 ve11c/master r/e634e98; Dec 19 2017 11:00:25 by eja",
  "dcmmeta_affine": [
    [-1.9981600046157837, 0.08095289021730423, -0.028345385566353798, 99.76165771484375],
    [0.08459484577178955, 1.7508867979049683, -0.9629326462745667, -65.9946060180664],
    [0.0141613082960248, 0.963245689868927, 1.7526999711990356, -94.46399688720703],
    [0.0, 0.0, 0.0, 1.0]
],
  "dcmmeta_reorient_transform": [
    [0.0, -1.0, 0.0, 103.0],
    [1.0, 0.0, 0.0, 0.0],
    [0.0, 0.0, 1.0, 0.0],
    [0.0, 0.0, 0.0, 1.0]
],
  "dcmmeta_shape": [104, 104, 60, 202],
  "dcmmeta_slice_dim": 2,
  "dcmmeta_version": 0.6,
  "global": {
    "const": {
      "AcquisitionMatrix": [104, 0, 0, 104],
      "AngioFlag": "N",
      "BitsAllocated": 16,
      "BitsStored": 16,
      "BodyPartExamined": "BRAIN",
      "Columns": 832,
      "EchoNumbers": 1,
      "EchoTime": 37.0,
      "EchoTrainLength": 104,
      "FlipAngle": 52.0,
      "HighBit": 15,
      "ImageOrientationPatient": [0.99907997291499, -0.0422974237401, 0.00708065428781, 0.0404764435873, 0.87544337439141, -0.4816228355765],
      "ImagePositionPatient": [-864.89687787057, -720.87697775588, 350.21701353332],
      "ImageType": [
        "ORIGINAL",
        "PRIMARY",
        "M",
        "MB",
        "ND",
        "MOSAIC"
],
      "ImagedNucleus": "1H",
      "ImagingFrequency": 123.25927,
      "InPlanePhaseEncodingDirection": "COL",
      "MRAcquisitionType": "2D",
      "MagneticFieldStrength": 3.0,
      "Manufacturer": "SIEMENS",
      "ManufacturerModelName": "Prisma_fit",
      "Modality": "MR",
      "NumberOfAverages": 1.0,
      "NumberOfPhaseEncodingSteps": 104,
      "PercentPhaseFieldOfView": 100.0,
      "PercentSampling": 100.0,
      "PerformedProcedureStepStartTime": "151626.827000",
      "PhotometricInterpretation": "MONOCHROME2",
      "PixelBandwidth": 2290.0,
      "PixelRepresentation": 0,
      "PixelSpacing": [2.0, 2.0],
      "ProtocolName": "func_task-wm_run-1",
      "RepetitionTime": 1490.0,
      "Rows": 832,
      "SAR": 0.03463383477317,
      "SamplesPerPixel": 1,
      "ScanOptions": "FS",
      "ScanningSequence": "EP",
      "SequenceName": "epfid2d1_104",
      "SequenceVariant": [
        "SK",
        "SS"
],
      "SeriesDescription": "func_task-wm_run-1",
      "SeriesNumber": 15,
      "SeriesTime": "155847.350000",
      "SliceLocation": -52.423233440507,
      "SliceThickness": 2.0,
      "SmallestImagePixelValue": 0,
      "SoftwareVersions": "syngo MR E11",
      "SpacingBetweenSlices": 1.9999999648178,
      "SpecificCharacterSet": "ISO_IR 100",
      "StudyID": "1",
      "StudyTime": "151626.778000",
      "TransmitCoilName": "Body",
      "VariableFlipAngleFlag": "N",
      "WindowCenterWidthExplanation": "Algo1",
      "dBdt": 0.0},
    "slices": {}
  },
  "time": {
    "samples": {
      "AcquisitionNumber": [1, 2, 3, 4, 5, 6, 7, 8, 9, 10, 11, 12, 13, 14, 15, 16, 17, 18, 19, 20, 21, 22, 23, 24, 25, 26, 27, 28, 29, 30, 31, 32, 33, 34, 35, 36, 37, 38, 39, 40, 41, 42, 43, 44, 45, 46, 47, 48, 49, 50, 51, 52, 53, 54, 55, 56, 57, 58, 59, 60, 61, 62, 63, 64, 65, 66, 67, 68, 69, 70, 71, 72, 73, 74, 75, 76, 77, 78, 79, 80, 81, 82, 83, 84, 85, 86, 87, 88, 89, 90, 91, 92, 93, 94, 95, 96, 97, 98, 99, 100, 101, 102, 103, 104, 105, 106, 107, 108, 109, 110, 111, 112, 113, 114, 115, 116, 117, 118, 119, 120, 121, 122, 123, 124, 125, 126, 127, 128, 129, 130, 131, 132, 133, 134, 135, 136, 137, 138, 139, 140, 141, 142, 143, 144, 145, 146, 147, 148, 149, 150, 151, 152, 153, 154, 155, 156, 157, 158, 159, 160, 161, 162, 163, 164, 165, 166, 167, 168, 169, 170, 171, 172, 173, 174, 175, 176, 177, 178, 179, 180, 181, 182, 183, 184, 185, 186, 187, 188, 189, 190, 191, 192, 193, 194, 195, 196, 197, 198, 199, 200, 201, 202],
      "AcquisitionTime": ["155736.025000", "155737.515000", "155739.005000", "155740.495000", "155741.985000", "155743.475000", "155744.965000", "155746.455000", "155747.945000", "155749.435000", "155750.925000", "155752.415000", "155753.905000", "155755.395000", "155756.885000", "155758.375000", "155759.865000", "155801.355000", "155802.845000", "155804.335000", "155805.825000", "155807.315000", "155808.805000", "155810.295000", "155811.785000", "155813.275000", "155814.765000", "155816.255000", "155817.745000", "155819.235000", "155820.725000", "155822.215000", "155823.705000", "155825.195000", "155826.685000", "155828.175000", "155829.665000", "155831.155000", "155832.645000", "155834.135000", "155835.625000", "155837.115000", "155838.605000", "155840.095000", "155841.585000", "155843.075000", "155844.565000", "155846.055000", "155847.545000", "155849.035000", "155850.525000", "155852.015000", "155853.505000", "155854.995000", "155856.485000", "155857.975000", "155859.465000", "155900.955000", "155902.445000", "155903.935000", "155905.425000", "155906.915000", "155908.405000", "155909.895000", "155911.385000", "155912.875000", "155914.365000", "155915.855000", "155917.345000", "155918.835000", "155920.325000", "155921.815000", "155923.305000", "155924.795000", "155926.285000", "155927.775000", "155929.265000", "155930.755000", "155932.245000", "155933.735000", "155935.225000", "155936.715000", "155938.205000", "155939.695000", "155941.185000", "155942.675000", "155944.165000", "155945.655000", "155947.145000", "155948.635000", "155950.125000", "155951.615000", "155953.105000", "155954.595000", "155956.085000", "155957.575000", "155959.065000", "160000.555000", "160002.045000", "160003.535000", "160005.025000", "160006.515000", "160008.005000", "160009.495000", "160010.985000", "160012.475000", "160013.965000", "160015.455000", "160016.945000", "160018.435000", "160019.925000", "160021.415000", "160022.905000", "160024.395000", "160025.885000", "160027.375000", "160028.865000", "160030.355000", "160031.845000", "160033.335000", "160034.825000", "160036.315000", "160037.805000", "160039.295000", "160040.785000", "160042.275000", "160043.765000", "160045.255000", "160046.745000", "160048.235000", "160049.725000", "160051.215000", "160052.705000", "160054.195000", "160055.685000", "160057.175000", "160058.665000", "160100.155000", "160101.645000", "160103.135000", "160104.625000", "160106.115000", "160107.605000", "160109.095000", "160110.585000", "160112.075000", "160113.565000", "160115.055000", "160116.545000", "160118.035000", "160119.525000", "160121.015000", "160122.505000", "160123.995000", "160125.485000", "160126.975000", "160128.465000", "160129.955000", "160131.445000", "160132.935000", "160134.425000", "160135.915000", "160137.405000", "160138.895000", "160140.385000", "160141.875000", "160143.365000", "160144.855000", "160146.345000", "160147.835000", "160149.325000", "160150.815000", "160152.305000", "160153.795000", "160155.285000", "160156.775000", "160158.265000", "160159.755000", "160201.245000", "160202.735000", "160204.225000", "160205.715000", "160207.205000", "160208.695000", "160210.185000", "160211.675000", "160213.165000", "160214.655000", "160216.145000", "160217.635000", "160219.125000", "160220.615000", "160222.105000", "160223.595000", "160225.085000", "160226.575000", "160228.065000", "160229.555000", "160231.045000", "160232.535000", "160234.025000", "160235.515000"],
      "ContentTime": ["155847.353000", "155847.356000", "155847.359000", "155847.362000", "155847.365000", "155847.367000", "155847.370000", "155847.379000", "155847.382000", "155847.385000", "155847.388000", "155847.390000", "155847.393000", "155847.396000", "155907.309000", "155907.312000", "155907.315000", "155907.318000", "155907.321000", "155907.323000", "155907.326000", "155907.329000", "155907.332000", "155907.335000", "155907.347000", "155907.349000", "155907.352000", "155907.355000", "155907.358000", "155907.361000", "155907.364000", "155907.367000", "155907.369000", "155907.372000", "155927.309000", "155927.312000", "155927.315000", "155927.317000", "155927.320000", "155927.323000", "155927.326000", "155927.329000", "155927.332000", "155927.335000", "155927.337000", "155927.340000", "155927.343000", "155927.346000", "155927.349000", "155927.351000", "155927.354000", "155927.357000", "155927.360000", "155927.363000", "155927.366000", "155947.309000", "155947.312000", "155947.315000", "155947.318000", "155947.320000", "155947.323000", "155947.326000", "155947.329000", "155947.332000", "155947.335000", "155947.338000", "155947.341000", "155947.344000", "155947.347000", "155947.350000", "155947.352000", "155947.355000", "155947.358000", "155947.361000", "155947.364000", "160007.309000", "160007.312000", "160007.322000", "160007.325000", "160007.328000", "160007.331000", "160007.334000", "160007.337000", "160007.340000", "160007.343000", "160007.346000", "160007.349000", "160007.352000", "160007.355000", "160007.358000", "160007.361000", "160007.363000", "160007.366000", "160007.369000", "160007.372000", "160047.310000", "160047.313000", "160047.316000", "160047.319000", "160047.322000", "160047.325000", "160047.327000", "160047.330000", "160047.333000", "160047.336000", "160047.339000", "160047.342000", "160047.344000", "160047.347000", "160047.350000", "160047.353000", "160047.356000", "160047.359000", "160047.362000", "160047.365000", "160047.367000", "160047.370000", "160047.373000", "160047.376000", "160047.379000", "160047.382000", "160047.385000", "160047.388000", "160047.390000", "160047.393000", "160047.396000", "160047.399000", "160127.309000", "160127.312000", "160127.315000", "160127.318000", "160127.321000", "160127.324000", "160127.327000", "160127.329000", "160127.332000", "160127.335000", "160127.338000", "160127.341000", "160127.343000", "160127.346000", "160127.349000", "160127.352000", "160127.355000", "160127.358000", "160127.360000", "160127.363000", "160127.366000", "160127.369000", "160127.372000", "160127.375000", "160127.378000", "160127.381000", "160127.383000", "160207.309000", "160207.312000", "160207.315000", "160207.318000", "160207.321000", "160207.323000", "160207.326000", "160207.329000", "160207.332000", "160207.335000", "160207.338000", "160207.341000", "160207.343000", "160207.346000", "160207.349000", "160207.352000", "160207.355000", "160207.358000", "160207.361000", "160207.363000", "160207.366000", "160207.369000", "160207.372000", "160207.375000", "160207.378000", "160207.381000", "160207.383000", "160237.956000", "160237.959000", "160237.962000", "160237.965000", "160237.968000", "160237.971000", "160237.974000", "160237.977000", "160237.980000", "160237.982000", "160237.985000", "160237.988000", "160237.991000", "160237.994000", "160237.997000", "160238.000000", "160238.003000", "160238.006000", "160238.009000", "160238.012000", "160238.015000"],
      "InstanceCreationTime": ["155847.353000", "155847.356000", "155847.359000", "155847.362000", "155847.365000", "155847.367000", "155847.370000", "155847.379000", "155847.382000", "155847.385000", "155847.388000", "155847.390000", "155847.393000", "155847.396000", "155907.309000", "155907.312000", "155907.315000", "155907.318000", "155907.321000", "155907.323000", "155907.326000", "155907.329000", "155907.332000", "155907.335000", "155907.347000", "155907.349000", "155907.352000", "155907.355000", "155907.358000", "155907.361000", "155907.364000", "155907.367000", "155907.369000", "155907.372000", "155927.309000", "155927.312000", "155927.315000", "155927.317000", "155927.320000", "155927.323000", "155927.326000", "155927.329000", "155927.332000", "155927.335000", "155927.337000", "155927.340000", "155927.343000", "155927.346000", "155927.349000", "155927.351000", "155927.354000", "155927.357000", "155927.360000", "155927.363000", "155927.366000", "155947.309000", "155947.312000", "155947.315000", "155947.318000", "155947.320000", "155947.323000", "155947.326000", "155947.329000", "155947.332000", "155947.335000", "155947.338000", "155947.341000", "155947.344000", "155947.347000", "155947.350000", "155947.352000", "155947.355000", "155947.358000", "155947.361000", "155947.364000", "160007.309000", "160007.312000", "160007.322000", "160007.325000", "160007.328000", "160007.331000", "160007.334000", "160007.337000", "160007.340000", "160007.343000", "160007.346000", "160007.349000", "160007.352000", "160007.355000", "160007.358000", "160007.361000", "160007.363000", "160007.366000", "160007.369000", "160007.372000", "160047.310000", "160047.313000", "160047.316000", "160047.319000", "160047.322000", "160047.325000", "160047.327000", "160047.330000", "160047.333000", "160047.336000", "160047.339000", "160047.342000", "160047.344000", "160047.347000", "160047.350000", "160047.353000", "160047.356000", "160047.359000", "160047.362000", "160047.365000", "160047.367000", "160047.370000", "160047.373000", "160047.376000", "160047.379000", "160047.382000", "160047.385000", "160047.388000", "160047.390000", "160047.393000", "160047.396000", "160047.399000", "160127.309000", "160127.312000", "160127.315000", "160127.318000", "160127.321000", "160127.324000", "160127.327000", "160127.329000", "160127.332000", "160127.335000", "160127.338000", "160127.341000", "160127.343000", "160127.346000", "160127.349000", "160127.352000", "160127.355000", "160127.358000", "160127.360000", "160127.363000", "160127.366000", "160127.369000", "160127.372000", "160127.375000", "160127.378000", "160127.381000", "160127.383000", "160207.309000", "160207.312000", "160207.315000", "160207.318000", "160207.321000", "160207.323000", "160207.326000", "160207.329000", "160207.332000", "160207.335000", "160207.338000", "160207.341000", "160207.343000", "160207.346000", "160207.349000", "160207.352000", "160207.355000", "160207.358000", "160207.361000", "160207.363000", "160207.366000", "160207.369000", "160207.372000", "160207.375000", "160207.378000", "160207.381000", "160207.383000", "160237.956000", "160237.959000", "160237.962000", "160237.965000", "160237.968000", "160237.971000", "160237.974000", "160237.977000", "160237.980000", "160237.982000", "160237.985000", "160237.988000", "160237.991000", "160237.994000", "160237.997000", "160238.000000", "160238.003000", "160238.006000", "160238.009000", "160238.012000", "160238.015000"],
      "InstanceNumber": [1, 2, 3, 4, 5, 6, 7, 8, 9, 10, 11, 12, 13, 14, 15, 16, 17, 18, 19, 20, 21, 22, 23, 24, 25, 26, 27, 28, 29, 30, 31, 32, 33, 34, 35, 36, 37, 38, 39, 40, 41, 42, 43, 44, 45, 46, 47, 48, 49, 50, 51, 52, 53, 54, 55, 56, 57, 58, 59, 60, 61, 62, 63, 64, 65, 66, 67, 68, 69, 70, 71, 72, 73, 74, 75, 76, 77, 78, 79, 80, 81, 82, 83, 84, 85, 86, 87, 88, 89, 90, 91, 92, 93, 94, 95, 96, 97, 98, 99, 100, 101, 102, 103, 104, 105, 106, 107, 108, 109, 110, 111, 112, 113, 114, 115, 116, 117, 118, 119, 120, 121, 122, 123, 124, 125, 126, 127, 128, 129, 130, 131, 132, 133, 134, 135, 136, 137, 138, 139, 140, 141, 142, 143, 144, 145, 146, 147, 148, 149, 150, 151, 152, 153, 154, 155, 156, 157, 158, 159, 160, 161, 162, 163, 164, 165, 166, 167, 168, 169, 170, 171, 172, 173, 174, 175, 176, 177, 178, 179, 180, 181, 182, 183, 184, 185, 186, 187, 188, 189, 190, 191, 192, 193, 194, 195, 196, 197, 198, 199, 200, 201, 202],
      "LargestImagePixelValue": [47334, 45708, 45377, 45038, 45198, 44395, 44613, 44987, 44416, 43514, 43911, 43777, 43507, 44083, 43435, 44922, 43371, 43380, 43741, 43498, 43365, 43302, 44003, 43844, 43796, 43642, 44224, 44024, 44286, 43991, 44589, 44097, 44393, 43869, 45150, 44506, 44426, 43693, 44345, 45092, 44757, 44552, 43965, 44525, 43740, 45023, 43356, 44812, 44335, 42897, 42445, 42773, 43300, 43916, 43956, 43958, 43980, 44294, 44333, 44649, 43310, 43733, 42687, 42909, 43493, 44067, 43918, 44378, 43944, 44287, 43859, 43794, 43682, 43691, 43618, 43994, 43651, 44557, 44141, 44310, 44534, 44372, 43564, 44608, 43528, 44534, 44089, 44705, 44186, 44761, 44241, 44338, 44062, 44288, 43630, 43342, 42842, 42107, 43620, 43938, 44229, 44042, 43986, 44278, 43614, 43282, 43684, 43618, 43497, 43717, 44481, 44029, 43133, 43598, 43481, 43981, 44068, 44132, 43770, 44055, 43618, 44914, 44174, 44332, 44298, 44621, 44252, 44035, 44064, 44200, 43983, 44201, 43893, 44482, 43850, 43718, 44444, 43714, 44202, 43606, 43694, 44685, 44014, 43927, 44060, 43512, 44508, 43231, 44323, 43710, 44241, 43977, 44442, 44434, 43755, 44332, 43291, 45362, 43677, 43651, 43745, 43810, 43659, 44502, 43681, 44225, 44044, 43762, 43612, 43986, 44095, 44172, 43858, 44262, 48120, 43990, 44051, 44089, 44224, 44005, 44173, 43520, 43792, 43907, 43999, 43936, 43685, 44066, 43826, 44702, 44118, 42037, 43300, 42705, 43186, 44042, 43490, 43191, 43627, 44007, 44148, 43651],
      "WindowCenter": [11045.0, 10994.0, 10963.0, 10951.0, 10959.0, 10951.0, 10935.0, 10935.0, 10930.0, 10937.0, 10954.0, 10954.0, 10955.0, 10958.0, 10949.0, 10976.0, 10963.0, 10974.0, 10983.0, 10970.0, 10951.0, 10939.0, 10952.0, 10962.0, 10963.0, 10954.0, 10968.0, 10956.0, 10923.0, 10922.0, 10965.0, 10963.0, 10933.0, 10918.0, 10935.0, 10928.0, 10934.0, 10915.0, 10919.0, 10950.0, 10937.0, 10911.0, 10879.0, 10884.0, 10911.0, 10949.0, 10933.0, 10938.0, 10928.0, 10930.0, 10917.0, 10877.0, 10864.0, 10888.0, 10903.0, 10899.0, 10882.0, 10881.0, 10893.0, 10904.0, 10888.0, 10903.0, 10898.0, 10911.0, 10918.0, 10929.0, 10935.0, 10947.0, 10943.0, 10960.0, 10954.0, 10957.0, 10955.0, 10947.0, 10949.0, 10964.0, 10950.0, 10953.0, 10944.0, 10942.0, 10934.0, 10941.0, 10931.0, 10949.0, 10940.0, 10948.0, 10927.0, 10917.0, 10912.0, 10940.0, 10941.0, 10932.0, 10896.0, 10898.0, 10944.0, 10955.0, 10905.0, 10859.0, 10877.0, 10900.0, 10885.0, 10860.0, 10847.0, 10864.0, 10887.0, 10912.0, 10906.0, 10899.0, 10893.0, 10906.0, 10924.0, 10923.0, 10925.0, 10914.0, 10918.0, 10926.0, 10943.0, 10954.0, 10938.0, 10934.0, 10917.0, 10928.0, 10925.0, 10945.0, 10932.0, 10931.0, 10930.0, 10934.0, 10928.0, 10933.0, 10928.0, 10932.0, 10927.0, 10933.0, 10933.0, 10927.0, 10940.0, 10923.0, 10930.0, 10911.0, 10899.0, 10916.0, 10901.0, 10892.0, 10878.0, 10867.0, 10879.0, 10878.0, 10905.0, 10906.0, 10897.0, 10867.0, 10870.0, 10894.0, 10920.0, 10948.0, 10908.0, 10902.0, 10870.0, 10851.0, 10872.0, 10913.0, 10902.0, 10878.0, 10849.0, 10871.0, 10908.0, 10917.0, 10880.0, 10860.0, 10879.0, 10908.0, 10912.0, 10903.0, 10931.0, 10887.0, 10894.0, 10892.0, 10898.0, 10890.0, 10890.0, 10886.0, 10884.0, 10891.0, 10886.0, 10893.0, 10897.0, 10906.0, 10906.0, 10911.0, 10911.0, 10918.0, 10881.0, 10835.0, 10842.0, 10887.0, 10910.0, 10901.0, 10884.0, 10875.0, 10871.0, 10867.0],
      "WindowWidth": [23783.0, 23630.0, 23537.0, 23497.0, 23514.0, 23485.0, 23446.0, 23439.0, 23434.0, 23453.0, 23492.0, 23489.0, 23493.0, 23498.0, 23480.0, 23552.0, 23513.0, 23540.0, 23560.0, 23541.0, 23493.0, 23461.0, 23488.0, 23509.0, 23512.0, 23488.0, 23519.0, 23496.0, 23418.0, 23414.0, 23510.0, 23508.0, 23436.0, 23404.0, 23450.0, 23423.0, 23434.0, 23399.0, 23403.0, 23470.0, 23445.0, 23385.0, 23315.0, 23320.0, 23387.0, 23471.0, 23443.0, 23446.0, 23429.0, 23444.0, 23426.0, 23323.0, 23290.0, 23339.0, 23371.0, 23361.0, 23319.0, 23309.0, 23344.0, 23361.0, 23339.0, 23369.0, 23364.0, 23392.0, 23408.0, 23428.0, 23445.0, 23469.0, 23463.0, 23501.0, 23490.0, 23501.0, 23493.0, 23473.0, 23477.0, 23522.0, 23480.0, 23481.0, 23464.0, 23458.0, 23440.0, 23465.0, 23442.0, 23478.0, 23458.0, 23474.0, 23429.0, 23396.0, 23387.0, 23446.0, 23456.0, 23447.0, 23356.0, 23364.0, 23482.0, 23505.0, 23406.0, 23281.0, 23315.0, 23367.0, 23327.0, 23267.0, 23235.0, 23274.0, 23330.0, 23399.0, 23374.0, 23358.0, 23348.0, 23378.0, 23430.0, 23415.0, 23426.0, 23401.0, 23410.0, 23424.0, 23459.0, 23485.0, 23451.0, 23437.0, 23399.0, 23423.0, 23418.0, 23458.0, 23432.0, 23432.0, 23430.0, 23444.0, 23430.0, 23439.0, 23432.0, 23438.0, 23430.0, 23444.0, 23442.0, 23429.0, 23465.0, 23430.0, 23438.0, 23395.0, 23366.0, 23401.0, 23366.0, 23347.0, 23317.0, 23290.0, 23318.0, 23319.0, 23373.0, 23378.0, 23361.0, 23290.0, 23299.0, 23350.0, 23411.0, 23474.0, 23392.0, 23368.0, 23303.0, 23261.0, 23302.0, 23406.0, 23376.0, 23317.0, 23252.0, 23297.0, 23387.0, 23413.0, 23325.0, 23276.0, 23317.0, 23386.0, 23393.0, 23374.0, 23433.0, 23345.0, 23353.0, 23348.0, 23358.0, 23341.0, 23340.0, 23333.0, 23327.0, 23345.0, 23335.0, 23351.0, 23360.0, 23387.0, 23380.0, 23391.0, 23396.0, 23427.0, 23332.0, 23233.0, 23237.0, 23335.0, 23397.0, 23383.0, 23328.0, 23309.0, 23295.0, 23293.0]
    },
    "slices": {}
  }
}