{
  "AcquisitionMatrixPE": 104,
  "AcquisitionNumber": 1,
  "AcquisitionTime": "16:07:27.817500",
  "BandwidthPerPixelPhaseEncode": 17.17,
  "BaseResolution": 104,
  "BodyPartExamined": "BRAIN",
  "CoilString": "HC1-7;NC1_2",
  "ConsistencyInfo": "N4_VE11C_LATEST_20160120",
  "ConversionSoftware": "dcm2niix",
  "ConversionSoftwareVersion": "v1.0.20190720  (JP2:OpenJPEG) GCC7.3.0",
  "DerivedVendorReportedEchoSpacing": 0.000560011,
  "DeviceSerialNumber": "167006",
  "DwellTime": 2.1e-06,
  "EchoTime": 0.037,
  "EchoTrainLength": 104,
  "EffectiveEchoSpacing": 0.000560011,
  "FlipAngle": 52,
  "ImageComments": "Unaliased_MB4_PE3_LB",
  "ImageOrientationPatientDICOM": [0.99908, -0.0422974, 0.00708065, 0.0404764, 0.875443, -0.481623],
  "ImageType": [
    "ORIGINAL",
    "PRIMARY",
    "M",
    "MB",
    "ND",
    "MOSAIC"
],
  "ImagingFrequency": 123.259,
  "InPlanePhaseEncodingDirectionDICOM": "COL",
  "InstitutionAddress": "Chemin_Queen-Mary_4565_Montreal_District_CA_H3W_1W5",
  "InstitutionName": "IUGM",
  "InstitutionalDepartmentName": "Department",
  "MRAcquisitionType": "2D",
  "MagneticFieldStrength": 3,
  "Manufacturer": "Siemens",
  "ManufacturersModelName": "Prisma_fit",
  "Modality": "MR",
  "MultibandAccelerationFactor": 4,
  "PartialFourier": 1,
  "PatientPosition": "HFS",
  "PercentPhaseFOV": 100,
  "PhaseEncodingDirection": "j",
  "PhaseEncodingSteps": 104,
  "PhaseResolution": 1,
  "PixelBandwidth": 2290,
  "ProcedureStepDescription": "hcptrt_generic",
  "ProtocolName": "func_task-motor_run-1",
  "PulseSequenceDetails": "%CustomerSeq%_cmrr_mbep2d_bold",
  "ReceiveCoilActiveElements": "HC1-7;NC1,2",
  "ReceiveCoilName": "HeadNeck_64",
  "ReconMatrixPE": 104,
  "RepetitionTime": 1.49,
  "SAR": 0.0345036,
  "ScanOptions": "FS",
  "ScanningSequence": "EP",
  "SequenceName": "epfid2d1_104",
  "SequenceVariant": "SK_SS",
  "SeriesDescription": "func_task-motor_run-1",
  "SeriesNumber": 19,
  "ShimSetting": [613, -7195, -8884, 371, -74, -144, 14, -34],
  "SliceThickness": 2,
  "SliceTiming": [0, 0.785, 0.0975, 0.8825, 0.1975, 0.98, 0.295, 1.0775, 0.3925, 1.175, 0.49, 1.275, 0.5875, 1.3725, 0.685, 0, 0.785, 0.0975, 0.8825, 0.1975, 0.98, 0.295, 1.0775, 0.3925, 1.175, 0.49, 1.275, 0.5875, 1.3725, 0.685, 0, 0.785, 0.0975, 0.8825, 0.1975, 0.98, 0.295, 1.0775, 0.3925, 1.175, 0.49, 1.275, 0.5875, 1.3725, 0.685, 0, 0.785, 0.0975, 0.8825, 0.1975, 0.98, 0.295, 1.0775, 0.3925, 1.175, 0.49, 1.275, 0.5875, 1.3725, 0.685],
  "SoftwareVersions": "syngo_MR_E11",
  "SpacingBetweenSlices": 2,
  "StationName": "MRC35049",
  "TaskName": "motor",
  "TotalReadoutTime": 0.0576811,
  "TxRefAmp": 249.216,
  "WipMemBlock": "c01aca01-8041-4054-a95a-94f305ebf200||Sequence: R016 ve11c/master r/e634e98; Dec 19 2017 11:00:25 by eja",
  "dcmmeta_affine": [
    [-1.9981600046157837, 0.08095289021730423, -0.028345385566353798, 99.76165771484375],
    [0.08459484577178955, 1.7508867979049683, -0.9629326462745667, -65.9946060180664],
    [0.0141613082960248, 0.963245689868927, 1.7526999711990356, -94.46399688720703],
    [0.0, 0.0, 0.0, 1.0]
],
  "dcmmeta_reorient_transform": [
    [0.0, -1.0, 0.0, 103.0],
    [1.0, 0.0, 0.0, 0.0],
    [0.0, 0.0, 1.0, 0.0],
    [0.0, 0.0, 0.0, 1.0]
],
  "dcmmeta_shape": [104, 104, 60, 144],
  "dcmmeta_slice_dim": 2,
  "dcmmeta_version": 0.6,
  "global": {
    "const": {
      "AcquisitionMatrix": [104, 0, 0, 104],
      "AngioFlag": "N",
      "BitsAllocated": 16,
      "BitsStored": 16,
      "BodyPartExamined": "BRAIN",
      "Columns": 832,
      "EchoNumbers": 1,
      "EchoTime": 37.0,
      "EchoTrainLength": 104,
      "FlipAngle": 52.0,
      "HighBit": 15,
      "ImageOrientationPatient": [0.99907997291499, -0.0422974237401, 0.00708065428781, 0.0404764435873, 0.87544337439141, -0.4816228355765],
      "ImagePositionPatient": [-864.89687787057, -720.87697775588, 350.21701353332],
      "ImageType": [
        "ORIGINAL",
        "PRIMARY",
        "M",
        "MB",
        "ND",
        "MOSAIC"
],
      "ImagedNucleus": "1H",
      "ImagingFrequency": 123.259274,
      "InPlanePhaseEncodingDirection": "COL",
      "MRAcquisitionType": "2D",
      "MagneticFieldStrength": 3.0,
      "Manufacturer": "SIEMENS",
      "ManufacturerModelName": "Prisma_fit",
      "Modality": "MR",
      "NumberOfAverages": 1.0,
      "NumberOfPhaseEncodingSteps": 104,
      "PercentPhaseFieldOfView": 100.0,
      "PercentSampling": 100.0,
      "PerformedProcedureStepStartTime": "151626.827000",
      "PhotometricInterpretation": "MONOCHROME2",
      "PixelBandwidth": 2290.0,
      "PixelRepresentation": 0,
      "PixelSpacing": [2.0, 2.0],
      "ProtocolName": "func_task-motor_run-1",
      "RepetitionTime": 1490.0,
      "Rows": 832,
      "SAR": 0.03450360348479,
      "SamplesPerPixel": 1,
      "ScanOptions": "FS",
      "ScanningSequence": "EP",
      "SequenceName": "epfid2d1_104",
      "SequenceVariant": [
        "SK",
        "SS"
],
      "SeriesDescription": "func_task-motor_run-1",
      "SeriesNumber": 19,
      "SeriesTime": "160858.467000",
      "SliceLocation": -52.423233440507,
      "SliceThickness": 2.0,
      "SmallestImagePixelValue": 0,
      "SoftwareVersions": "syngo MR E11",
      "SpacingBetweenSlices": 1.9999999648178,
      "SpecificCharacterSet": "ISO_IR 100",
      "StudyID": "1",
      "StudyTime": "151626.778000",
      "TransmitCoilName": "Body",
      "VariableFlipAngleFlag": "N",
      "WindowCenterWidthExplanation": "Algo1",
      "dBdt": 0.0},
    "slices": {}
  },
  "time": {
    "samples": {
      "AcquisitionNumber": [1, 2, 3, 4, 5, 6, 7, 8, 9, 10, 11, 12, 13, 14, 15, 16, 17, 18, 19, 20, 21, 22, 23, 24, 25, 26, 27, 28, 29, 30, 31, 32, 33, 34, 35, 36, 37, 38, 39, 40, 41, 42, 43, 44, 45, 46, 47, 48, 49, 50, 51, 52, 53, 54, 55, 56, 57, 58, 59, 60, 61, 62, 63, 64, 65, 66, 67, 68, 69, 70, 71, 72, 73, 74, 75, 76, 77, 78, 79, 80, 81, 82, 83, 84, 85, 86, 87, 88, 89, 90, 91, 92, 93, 94, 95, 96, 97, 98, 99, 100, 101, 102, 103, 104, 105, 106, 107, 108, 109, 110, 111, 112, 113, 114, 115, 116, 117, 118, 119, 120, 121, 122, 123, 124, 125, 126, 127, 128, 129, 130, 131, 132, 133, 134, 135, 136, 137, 138, 139, 140, 141, 142, 143, 144],
      "AcquisitionTime": ["160727.817500", "160729.307500", "160730.797500", "160732.287500", "160733.777500", "160735.267500", "160736.757500", "160738.247500", "160739.737500", "160741.227500", "160742.717500", "160744.207500", "160745.697500", "160747.187500", "160748.677500", "160750.167500", "160751.657500", "160753.147500", "160754.637500", "160756.127500", "160757.617500", "160759.107500", "160800.597500", "160802.087500", "160803.577500", "160805.067500", "160806.557500", "160808.047500", "160809.537500", "160811.027500", "160812.517500", "160814.007500", "160815.497500", "160816.987500", "160818.477500", "160819.967500", "160821.457500", "160822.947500", "160824.437500", "160825.927500", "160827.417500", "160828.907500", "160830.397500", "160831.887500", "160833.377500", "160834.867500", "160836.357500", "160837.847500", "160839.337500", "160840.827500", "160842.317500", "160843.807500", "160845.297500", "160846.787500", "160848.277500", "160849.767500", "160851.257500", "160852.747500", "160854.237500", "160855.727500", "160857.217500", "160858.707500", "160900.197500", "160901.687500", "160903.177500", "160904.667500", "160906.157500", "160907.647500", "160909.137500", "160910.627500", "160912.117500", "160913.607500", "160915.097500", "160916.587500", "160918.077500", "160919.567500", "160921.057500", "160922.547500", "160924.037500", "160925.527500", "160927.017500", "160928.507500", "160929.997500", "160931.487500", "160932.977500", "160934.467500", "160935.957500", "160937.447500", "160938.937500", "160940.427500", "160941.917500", "160943.407500", "160944.897500", "160946.387500", "160947.877500", "160949.367500", "160950.857500", "160952.347500", "160953.837500", "160955.327500", "160956.817500", "160958.307500", "160959.797500", "161001.287500", "161002.777500", "161004.267500", "161005.757500", "161007.247500", "161008.737500", "161010.227500", "161011.717500", "161013.207500", "161014.697500", "161016.187500", "161017.677500", "161019.167500", "161020.657500", "161022.147500", "161023.637500", "161025.127500", "161026.617500", "161028.107500", "161029.597500", "161031.087500", "161032.577500", "161034.067500", "161035.557500", "161037.047500", "161038.537500", "161040.027500", "161041.517500", "161043.007500", "161044.497500", "161045.987500", "161047.477500", "161048.967500", "161050.457500", "161051.947500", "161053.437500", "161054.927500", "161056.417500", "161057.907500", "161059.397500", "161100.887500"],
      "ContentTime": ["160858.470000", "160858.474000", "160858.477000", "160858.480000", "160858.483000", "160858.486000", "160858.489000", "160858.492000", "160858.503000", "160858.506000", "160858.509000", "160858.512000", "160858.515000", "160858.518000", "160858.520000", "160858.523000", "160858.526000", "160858.529000", "160858.532000", "160858.543000", "160858.546000", "160858.549000", "160858.552000", "160858.555000", "160858.557000", "160858.560000", "160858.563000", "160858.566000", "160858.569000", "160858.572000", "160858.575000", "160858.578000", "160858.580000", "160858.583000", "160858.586000", "160858.589000", "160858.592000", "160918.425000", "160918.428000", "160918.437000", "160918.440000", "160918.443000", "160918.446000", "160918.449000", "160918.452000", "160918.454000", "160918.457000", "160918.460000", "160918.463000", "160918.466000", "160918.469000", "160918.471000", "160918.474000", "160918.477000", "160918.480000", "160918.483000", "160918.486000", "160918.489000", "160938.425000", "160938.428000", "160938.431000", "160938.434000", "160938.436000", "160938.439000", "160938.442000", "160938.445000", "160938.448000", "160938.451000", "160938.453000", "160938.456000", "160938.459000", "160938.462000", "160938.465000", "160938.468000", "160938.470000", "160938.473000", "160938.476000", "160938.479000", "160958.425000", "160958.428000", "160958.431000", "160958.434000", "160958.436000", "160958.439000", "160958.442000", "160958.445000", "160958.448000", "160958.451000", "160958.453000", "160958.456000", "160958.459000", "160958.462000", "160958.465000", "160958.468000", "160958.471000", "160958.473000", "160958.476000", "160958.479000", "161038.426000", "161038.429000", "161038.432000", "161038.435000", "161038.437000", "161038.440000", "161038.443000", "161038.446000", "161038.449000", "161038.452000", "161038.454000", "161038.457000", "161038.460000", "161038.463000", "161038.466000", "161038.469000", "161038.481000", "161038.484000", "161038.487000", "161038.490000", "161038.493000", "161038.514000", "161038.517000", "161038.519000", "161038.522000", "161038.525000", "161038.528000", "161038.531000", "161038.534000", "161103.395000", "161103.399000", "161103.402000", "161103.405000", "161103.408000", "161103.410000", "161103.413000", "161103.416000", "161103.419000", "161103.422000", "161103.425000", "161103.428000", "161103.430000", "161103.433000", "161103.436000", "161103.439000", "161103.442000"],
      "InstanceCreationTime": ["160858.470000", "160858.474000", "160858.477000", "160858.480000", "160858.483000", "160858.486000", "160858.489000", "160858.492000", "160858.503000", "160858.506000", "160858.509000", "160858.512000", "160858.515000", "160858.518000", "160858.520000", "160858.523000", "160858.526000", "160858.529000", "160858.532000", "160858.543000", "160858.546000", "160858.549000", "160858.552000", "160858.555000", "160858.557000", "160858.560000", "160858.563000", "160858.566000", "160858.569000", "160858.572000", "160858.575000", "160858.578000", "160858.580000", "160858.583000", "160858.586000", "160858.589000", "160858.592000", "160918.425000", "160918.428000", "160918.437000", "160918.440000", "160918.443000", "160918.446000", "160918.449000", "160918.452000", "160918.454000", "160918.457000", "160918.460000", "160918.463000", "160918.466000", "160918.469000", "160918.471000", "160918.474000", "160918.477000", "160918.480000", "160918.483000", "160918.486000", "160918.489000", "160938.425000", "160938.428000", "160938.431000", "160938.434000", "160938.436000", "160938.439000", "160938.442000", "160938.445000", "160938.448000", "160938.451000", "160938.453000", "160938.456000", "160938.459000", "160938.462000", "160938.465000", "160938.468000", "160938.470000", "160938.473000", "160938.476000", "160938.479000", "160958.425000", "160958.428000", "160958.431000", "160958.434000", "160958.436000", "160958.439000", "160958.442000", "160958.445000", "160958.448000", "160958.451000", "160958.453000", "160958.456000", "160958.459000", "160958.462000", "160958.465000", "160958.468000", "160958.471000", "160958.473000", "160958.476000", "160958.479000", "161038.426000", "161038.429000", "161038.432000", "161038.435000", "161038.437000", "161038.440000", "161038.443000", "161038.446000", "161038.449000", "161038.452000", "161038.454000", "161038.457000", "161038.460000", "161038.463000", "161038.466000", "161038.469000", "161038.481000", "161038.484000", "161038.487000", "161038.490000", "161038.493000", "161038.514000", "161038.517000", "161038.519000", "161038.522000", "161038.525000", "161038.528000", "161038.531000", "161038.534000", "161103.395000", "161103.399000", "161103.402000", "161103.405000", "161103.408000", "161103.410000", "161103.413000", "161103.416000", "161103.419000", "161103.422000", "161103.425000", "161103.428000", "161103.430000", "161103.433000", "161103.436000", "161103.439000", "161103.442000"],
      "InstanceNumber": [1, 2, 3, 4, 5, 6, 7, 8, 9, 10, 11, 12, 13, 14, 15, 16, 17, 18, 19, 20, 21, 22, 23, 24, 25, 26, 27, 28, 29, 30, 31, 32, 33, 34, 35, 36, 37, 38, 39, 40, 41, 42, 43, 44, 45, 46, 47, 48, 49, 50, 51, 52, 53, 54, 55, 56, 57, 58, 59, 60, 61, 62, 63, 64, 65, 66, 67, 68, 69, 70, 71, 72, 73, 74, 75, 76, 77, 78, 79, 80, 81, 82, 83, 84, 85, 86, 87, 88, 89, 90, 91, 92, 93, 94, 95, 96, 97, 98, 99, 100, 101, 102, 103, 104, 105, 106, 107, 108, 109, 110, 111, 112, 113, 114, 115, 116, 117, 118, 119, 120, 121, 122, 123, 124, 125, 126, 127, 128, 129, 130, 131, 132, 133, 134, 135, 136, 137, 138, 139, 140, 141, 142, 143, 144],
      "LargestImagePixelValue": [47354, 45530, 44699, 44380, 45279, 44767, 42635, 42369, 44288, 43558, 42814, 43688, 42527, 43295, 43294, 42364, 43690, 43174, 42834, 43830, 44557, 44924, 44923, 44824, 44992, 44672, 44673, 44787, 44886, 45339, 44466, 44982, 44678, 44172, 45266, 44518, 44572, 45373, 45391, 45540, 45508, 44951, 44588, 43892, 44053, 44290, 45971, 44277, 44291, 44467, 44532, 44423, 44604, 44826, 45219, 44907, 45427, 44900, 44520, 44287, 44192, 44477, 44813, 44471, 44993, 44826, 45253, 43485, 44110, 44592, 45017, 43377, 42976, 44045, 44177, 44010, 43965, 44708, 44564, 45140, 44288, 45322, 43974, 43634, 43266, 43824, 44285, 43937, 44800, 44600, 44915, 45646, 45839, 45588, 45869, 44614, 45418, 44502, 42617, 44118, 44552, 44619, 45648, 44981, 45628, 45551, 45230, 45353, 44741, 44918, 44399, 44536, 44572, 44473, 43809, 44280, 43696, 44563, 43683, 45040, 45982, 46107, 45829, 45660, 46256, 46190, 45963, 45734, 44868, 44381, 44595, 43141, 44256, 43715, 43723, 44540, 44676, 44388, 45059, 43909, 44677, 43910, 42907, 43577],
      "WindowCenter": [11117.0, 11016.0, 10971.0, 10948.0, 10949.0, 10947.0, 10944.0, 10935.0, 10953.0, 10953.0, 10978.0, 11003.0, 10994.0, 10990.0, 10981.0, 10970.0, 10975.0, 10966.0, 10963.0, 10965.0, 10989.0, 11008.0, 11011.0, 10980.0, 10960.0, 10950.0, 10979.0, 11009.0, 11004.0, 10996.0, 10961.0, 10929.0, 10909.0, 10917.0, 10973.0, 10994.0, 10963.0, 10931.0, 10926.0, 10930.0, 10946.0, 10961.0, 10975.0, 10976.0, 10972.0, 10955.0, 10967.0, 10962.0, 10959.0, 10965.0, 10972.0, 10972.0, 10971.0, 10971.0, 10966.0, 10962.0, 10963.0, 10943.0, 10935.0, 10928.0, 10936.0, 10934.0, 10931.0, 10933.0, 10948.0, 10950.0, 10951.0, 10935.0, 10936.0, 10937.0, 10939.0, 10942.0, 10915.0, 10900.0, 10893.0, 10909.0, 10929.0, 10961.0, 10962.0, 10940.0, 10890.0, 10895.0, 10908.0, 10958.0, 10927.0, 10893.0, 10883.0, 10942.0, 10965.0, 10962.0, 10941.0, 10937.0, 10923.0, 10957.0, 10960.0, 10935.0, 10947.0, 10939.0, 10892.0, 10914.0, 10946.0, 10967.0, 10969.0, 10925.0, 10928.0, 10955.0, 10979.0, 10984.0, 10949.0, 10927.0, 10914.0, 10911.0, 10912.0, 10921.0, 10916.0, 10907.0, 10899.0, 10910.0, 10916.0, 10943.0, 10957.0, 10957.0, 10957.0, 10958.0, 10956.0, 10950.0, 10953.0, 10939.0, 10949.0, 10943.0, 10916.0, 10860.0, 10838.0, 10859.0, 10921.0, 10951.0, 10937.0, 10890.0, 10873.0, 10862.0, 10899.0, 10926.0, 10911.0, 10895.0],
      "WindowWidth": [23963.0, 23690.0, 23566.0, 23501.0, 23495.0, 23481.0, 23482.0, 23467.0, 23500.0, 23498.0, 23557.0, 23614.0, 23601.0, 23591.0, 23568.0, 23549.0, 23554.0, 23529.0, 23531.0, 23533.0, 23581.0, 23623.0, 23638.0, 23566.0, 23510.0, 23488.0, 23558.0, 23632.0, 23626.0, 23594.0, 23518.0, 23445.0, 23404.0, 23417.0, 23544.0, 23596.0, 23527.0, 23446.0, 23443.0, 23445.0, 23478.0, 23515.0, 23548.0, 23553.0, 23542.0, 23508.0, 23525.0, 23523.0, 23516.0, 23538.0, 23546.0, 23547.0, 23543.0, 23544.0, 23531.0, 23527.0, 23522.0, 23480.0, 23459.0, 23445.0, 23472.0, 23459.0, 23449.0, 23453.0, 23486.0, 23487.0, 23493.0, 23460.0, 23464.0, 23454.0, 23456.0, 23474.0, 23420.0, 23381.0, 23362.0, 23395.0, 23442.0, 23509.0, 23514.0, 23459.0, 23346.0, 23354.0, 23393.0, 23507.0, 23441.0, 23360.0, 23333.0, 23469.0, 23515.0, 23518.0, 23462.0, 23447.0, 23416.0, 23495.0, 23504.0, 23452.0, 23484.0, 23471.0, 23367.0, 23409.0, 23482.0, 23529.0, 23539.0, 23432.0, 23437.0, 23499.0, 23557.0, 23575.0, 23489.0, 23446.0, 23411.0, 23395.0, 23399.0, 23419.0, 23411.0, 23391.0, 23371.0, 23391.0, 23408.0, 23468.0, 23503.0, 23498.0, 23499.0, 23502.0, 23494.0, 23488.0, 23490.0, 23460.0, 23510.0, 23485.0, 23417.0, 23293.0, 23236.0, 23278.0, 23433.0, 23487.0, 23452.0, 23343.0, 23300.0, 23282.0, 23367.0, 23431.0, 23412.0, 23371.0]
    },
    "slices": {}
  }
}