{
  "AcquisitionMatrixPE": 104,
  "AcquisitionNumber": 1,
  "AcquisitionTime": "10:23:44.960000",
  "BandwidthPerPixelPhaseEncode": 17.17,
  "BaseResolution": 104,
  "BodyPartExamined": "BRAIN",
  "CoilString": "HC1-7;NC1_2",
  "ConsistencyInfo": "N4_VE11C_LATEST_20160120",
  "ConversionSoftware": "dcm2niix",
  "ConversionSoftwareVersion": "v1.0.20190720  (JP2:OpenJPEG) GCC7.3.0",
  "DerivedVendorReportedEchoSpacing": 0.000560011,
  "DeviceSerialNumber": "167006",
  "DwellTime": 2.1e-06,
  "EchoTime": 0.037,
  "EchoTrainLength": 104,
  "EffectiveEchoSpacing": 0.000560011,
  "FlipAngle": 52,
  "ImageComments": "Unaliased_MB4_PE3_LB",
  "ImageOrientationPatientDICOM": [0.999423, -0.0338243, 0.00321073, 0.0312336, 0.877434, -0.478679],
  "ImageType": [
    "ORIGINAL",
    "PRIMARY",
    "M",
    "MB",
    "ND",
    "MOSAIC"
],
  "ImagingFrequency": 123.259,
  "InPlanePhaseEncodingDirectionDICOM": "COL",
  "InstitutionAddress": "Chemin_Queen-Mary_4565_Montreal_District_CA_H3W_1W5",
  "InstitutionName": "IUGM",
  "InstitutionalDepartmentName": "Department",
  "MRAcquisitionType": "2D",
  "MagneticFieldStrength": 3,
  "Manufacturer": "Siemens",
  "ManufacturersModelName": "Prisma_fit",
  "Modality": "MR",
  "MultibandAccelerationFactor": 4,
  "PartialFourier": 1,
  "PatientPosition": "HFS",
  "PercentPhaseFOV": 100,
  "PhaseEncodingDirection": "j",
  "PhaseEncodingSteps": 104,
  "PhaseResolution": 1,
  "PixelBandwidth": 2290,
  "ProcedureStepDescription": "hcptrt_generic",
  "ProtocolName": "func_task-language_run-1",
  "PulseSequenceDetails": "%CustomerSeq%_cmrr_mbep2d_bold",
  "ReceiveCoilActiveElements": "HC1-7;NC1,2",
  "ReceiveCoilName": "HeadNeck_64",
  "ReconMatrixPE": 104,
  "RepetitionTime": 1.49,
  "SAR": 0.0381793,
  "ScanOptions": "FS",
  "ScanningSequence": "EP",
  "SequenceName": "epfid2d1_104",
  "SequenceVariant": "SK_SS",
  "SeriesDescription": "func_task-language_run-1",
  "SeriesNumber": 19,
  "ShimSetting": [622, -7195, -8874, 404, -42, -144, 43, -41],
  "SliceThickness": 2,
  "SliceTiming": [0, 0.785, 0.0975, 0.8825, 0.195, 0.98, 0.295, 1.0775, 0.3925, 1.175, 0.49, 1.275, 0.5875, 1.3725, 0.685, 0, 0.785, 0.0975, 0.8825, 0.195, 0.98, 0.295, 1.0775, 0.3925, 1.175, 0.49, 1.275, 0.5875, 1.3725, 0.685, 0, 0.785, 0.0975, 0.8825, 0.195, 0.98, 0.295, 1.0775, 0.3925, 1.175, 0.49, 1.275, 0.5875, 1.3725, 0.685, 0, 0.785, 0.0975, 0.8825, 0.195, 0.98, 0.295, 1.0775, 0.3925, 1.175, 0.49, 1.275, 0.5875, 1.3725, 0.685],
  "SoftwareVersions": "syngo_MR_E11",
  "SpacingBetweenSlices": 2,
  "StationName": "MRC35049",
  "TaskName": "language",
  "TotalReadoutTime": 0.0576811,
  "TxRefAmp": 248.686,
  "WipMemBlock": "e36bb2c2-808d-4de9-8365-c08c0be8aa3f||Sequence: R016 ve11c/master r/e634e98; Dec 19 2017 11:00:25 by eja",
  "dcmmeta_affine": [
    [-1.9988452196121216, 0.06246715039014816, -0.026747578755021095, 100.2828598022461],
    [0.06764867156744003, 1.7548686265945435, -0.9570056200027466, -65.02344512939453],
    [0.006421463564038277, 0.9573578238487244, 1.7559683322906494, -95.5630111694336],
    [0.0, 0.0, 0.0, 1.0]
],
  "dcmmeta_reorient_transform": [
    [0.0, -1.0, 0.0, 103.0],
    [1.0, 0.0, 0.0, 0.0],
    [0.0, 0.0, 1.0, 0.0],
    [0.0, 0.0, 0.0, 1.0]
],
  "dcmmeta_shape": [104, 104, 60, 159],
  "dcmmeta_slice_dim": 2,
  "dcmmeta_version": 0.6,
  "global": {
    "const": {
      "AcquisitionMatrix": [104, 0, 0, 104],
      "AngioFlag": "N",
      "BitsAllocated": 16,
      "BitsStored": 16,
      "BodyPartExamined": "BRAIN",
      "Columns": 832,
      "EchoNumbers": 1,
      "EchoTime": 37.0,
      "EchoTrainLength": 104,
      "FlipAngle": 52.0,
      "HighBit": 15,
      "ImageOrientationPatient": [0.99942263611664, -0.0338243347222, 0.00321073173247, 0.03123357454608, 0.87743431198565, -0.4786789027849],
      "ImagePositionPatient": [-857.03469754463, -729.87608721904, 349.18567157489],
      "ImageType": [
        "ORIGINAL",
        "PRIMARY",
        "M",
        "MB",
        "ND",
        "MOSAIC"
],
      "ImagedNucleus": "1H",
      "ImagingFrequency": 123.259311,
      "InPlanePhaseEncodingDirection": "COL",
      "MRAcquisitionType": "2D",
      "MagneticFieldStrength": 3.0,
      "Manufacturer": "SIEMENS",
      "ManufacturerModelName": "Prisma_fit",
      "Modality": "MR",
      "NumberOfAverages": 1.0,
      "NumberOfPhaseEncodingSteps": 104,
      "PercentPhaseFieldOfView": 100.0,
      "PercentSampling": 100.0,
      "PerformedProcedureStepStartTime": "093311.141000",
      "PhotometricInterpretation": "MONOCHROME2",
      "PixelBandwidth": 2290.0,
      "PixelRepresentation": 0,
      "PixelSpacing": [2.0, 2.0],
      "ProtocolName": "func_task-language_run-1",
      "RepetitionTime": 1490.0,
      "Rows": 832,
      "SAR": 0.03817934712641,
      "SamplesPerPixel": 1,
      "ScanOptions": "FS",
      "ScanningSequence": "EP",
      "SequenceName": "epfid2d1_104",
      "SequenceVariant": [
        "SK",
        "SS"
],
      "SeriesDescription": "func_task-language_run-1",
      "SeriesNumber": 19,
      "SeriesTime": "102518.127000",
      "SliceLocation": -54.130071333157,
      "SliceThickness": 2.0,
      "SmallestImagePixelValue": 0,
      "SoftwareVersions": "syngo MR E11",
      "SpacingBetweenSlices": 1.9999999948825,
      "SpecificCharacterSet": "ISO_IR 100",
      "StudyID": "1",
      "StudyTime": "093311.041000",
      "TransmitCoilName": "Body",
      "VariableFlipAngleFlag": "N",
      "WindowCenterWidthExplanation": "Algo1",
      "dBdt": 0.0},
    "slices": {}
  },
  "time": {
    "samples": {
      "AcquisitionNumber": [1, 2, 3, 4, 5, 6, 7, 8, 9, 10, 11, 12, 13, 14, 15, 16, 17, 18, 19, 20, 21, 22, 23, 24, 25, 26, 27, 28, 29, 30, 31, 32, 33, 34, 35, 36, 37, 38, 39, 40, 41, 42, 43, 44, 45, 46, 47, 48, 49, 50, 51, 52, 53, 54, 55, 56, 57, 58, 59, 60, 61, 62, 63, 64, 65, 66, 67, 68, 69, 70, 71, 72, 73, 74, 75, 76, 77, 78, 79, 80, 81, 82, 83, 84, 85, 86, 87, 88, 89, 90, 91, 92, 93, 94, 95, 96, 97, 98, 99, 100, 101, 102, 103, 104, 105, 106, 107, 108, 109, 110, 111, 112, 113, 114, 115, 116, 117, 118, 119, 120, 121, 122, 123, 124, 125, 126, 127, 128, 129, 130, 131, 132, 133, 134, 135, 136, 137, 138, 139, 140, 141, 142, 143, 144, 145, 146, 147, 148, 149, 150, 151, 152, 153, 154, 155, 156, 157, 158, 159],
      "AcquisitionTime": ["102344.960000", "102346.450000", "102347.940000", "102349.430000", "102350.920000", "102352.410000", "102353.900000", "102355.390000", "102356.880000", "102358.370000", "102359.860000", "102401.350000", "102402.840000", "102404.330000", "102405.820000", "102407.310000", "102408.800000", "102410.290000", "102411.780000", "102413.270000", "102414.760000", "102416.250000", "102417.740000", "102419.230000", "102420.720000", "102422.210000", "102423.700000", "102425.190000", "102426.680000", "102428.170000", "102429.660000", "102431.150000", "102432.640000", "102434.130000", "102435.620000", "102437.110000", "102438.600000", "102440.090000", "102441.580000", "102443.070000", "102444.560000", "102446.050000", "102447.540000", "102449.030000", "102450.520000", "102452.010000", "102453.500000", "102454.990000", "102456.480000", "102457.970000", "102459.460000", "102500.950000", "102502.440000", "102503.930000", "102505.420000", "102506.910000", "102508.400000", "102509.890000", "102511.380000", "102512.870000", "102514.360000", "102515.850000", "102517.340000", "102518.830000", "102520.320000", "102521.810000", "102523.300000", "102524.790000", "102526.280000", "102527.770000", "102529.260000", "102530.750000", "102532.240000", "102533.730000", "102535.220000", "102536.710000", "102538.200000", "102539.690000", "102541.180000", "102542.670000", "102544.160000", "102545.650000", "102547.140000", "102548.630000", "102550.120000", "102551.610000", "102553.100000", "102554.590000", "102556.080000", "102557.570000", "102559.060000", "102600.550000", "102602.040000", "102603.530000", "102605.020000", "102606.510000", "102608.000000", "102609.490000", "102610.980000", "102612.470000", "102613.960000", "102615.450000", "102616.940000", "102618.430000", "102619.920000", "102621.410000", "102622.900000", "102624.390000", "102625.880000", "102627.370000", "102628.860000", "102630.350000", "102631.840000", "102633.330000", "102634.820000", "102636.310000", "102637.800000", "102639.290000", "102640.780000", "102642.270000", "102643.760000", "102645.250000", "102646.740000", "102648.230000", "102649.720000", "102651.210000", "102652.700000", "102654.190000", "102655.680000", "102657.170000", "102658.660000", "102700.150000", "102701.640000", "102703.130000", "102704.620000", "102706.110000", "102707.600000", "102709.090000", "102710.580000", "102712.070000", "102713.560000", "102715.050000", "102716.540000", "102718.030000", "102719.520000", "102721.010000", "102722.500000", "102723.990000", "102725.480000", "102726.970000", "102728.460000", "102729.950000", "102731.440000", "102732.930000", "102734.420000", "102735.910000", "102737.400000", "102738.890000", "102740.380000"],
      "ContentTime": ["102518.129000", "102518.133000", "102518.136000", "102518.139000", "102518.141000", "102518.144000", "102518.147000", "102518.150000", "102518.153000", "102518.155000", "102518.158000", "102518.161000", "102518.164000", "102518.167000", "102518.170000", "102518.173000", "102518.176000", "102518.178000", "102518.181000", "102518.184000", "102518.187000", "102518.190000", "102518.193000", "102518.195000", "102518.198000", "102518.201000", "102518.204000", "102518.207000", "102518.210000", "102518.213000", "102518.216000", "102518.218000", "102518.221000", "102518.224000", "102518.227000", "102518.230000", "102518.233000", "102518.242000", "102518.245000", "102538.106000", "102538.109000", "102538.115000", "102538.118000", "102538.121000", "102538.124000", "102538.127000", "102538.129000", "102538.132000", "102538.135000", "102538.138000", "102538.141000", "102538.151000", "102538.154000", "102538.157000", "102538.159000", "102538.162000", "102538.165000", "102538.168000", "102538.171000", "102558.107000", "102558.110000", "102558.113000", "102558.116000", "102558.119000", "102558.122000", "102558.125000", "102558.127000", "102558.130000", "102558.133000", "102558.136000", "102558.139000", "102558.142000", "102558.150000", "102558.152000", "102558.155000", "102558.158000", "102558.161000", "102558.164000", "102558.167000", "102618.107000", "102618.110000", "102618.113000", "102618.116000", "102618.119000", "102618.122000", "102618.125000", "102618.127000", "102618.130000", "102618.133000", "102618.136000", "102618.139000", "102618.142000", "102618.145000", "102618.148000", "102618.151000", "102618.154000", "102618.157000", "102618.160000", "102618.162000", "102658.107000", "102658.110000", "102658.113000", "102658.116000", "102658.119000", "102658.122000", "102658.125000", "102658.128000", "102658.130000", "102658.133000", "102658.136000", "102658.139000", "102658.142000", "102658.145000", "102658.148000", "102658.151000", "102658.158000", "102658.161000", "102658.164000", "102658.167000", "102658.170000", "102658.173000", "102658.176000", "102658.179000", "102658.182000", "102658.185000", "102658.188000", "102658.191000", "102658.193000", "102658.196000", "102738.106000", "102738.109000", "102738.112000", "102738.115000", "102738.118000", "102738.121000", "102738.124000", "102738.126000", "102738.129000", "102738.132000", "102738.135000", "102738.138000", "102738.141000", "102738.144000", "102738.147000", "102738.150000", "102738.153000", "102738.155000", "102738.158000", "102738.161000", "102738.164000", "102738.167000", "102738.170000", "102738.172000", "102738.175000", "102738.178000", "102742.712000", "102742.716000", "102742.719000", "102742.722000"],
      "InstanceCreationTime": ["102518.129000", "102518.133000", "102518.136000", "102518.139000", "102518.141000", "102518.144000", "102518.147000", "102518.150000", "102518.153000", "102518.155000", "102518.158000", "102518.161000", "102518.164000", "102518.167000", "102518.170000", "102518.173000", "102518.176000", "102518.178000", "102518.181000", "102518.184000", "102518.187000", "102518.190000", "102518.193000", "102518.195000", "102518.198000", "102518.201000", "102518.204000", "102518.207000", "102518.210000", "102518.213000", "102518.216000", "102518.218000", "102518.221000", "102518.224000", "102518.227000", "102518.230000", "102518.233000", "102518.242000", "102518.245000", "102538.106000", "102538.109000", "102538.115000", "102538.118000", "102538.121000", "102538.124000", "102538.127000", "102538.129000", "102538.132000", "102538.135000", "102538.138000", "102538.141000", "102538.151000", "102538.154000", "102538.157000", "102538.159000", "102538.162000", "102538.165000", "102538.168000", "102538.171000", "102558.107000", "102558.110000", "102558.113000", "102558.116000", "102558.119000", "102558.122000", "102558.125000", "102558.127000", "102558.130000", "102558.133000", "102558.136000", "102558.139000", "102558.142000", "102558.150000", "102558.152000", "102558.155000", "102558.158000", "102558.161000", "102558.164000", "102558.167000", "102618.107000", "102618.110000", "102618.113000", "102618.116000", "102618.119000", "102618.122000", "102618.125000", "102618.127000", "102618.130000", "102618.133000", "102618.136000", "102618.139000", "102618.142000", "102618.145000", "102618.148000", "102618.151000", "102618.154000", "102618.157000", "102618.160000", "102618.162000", "102658.107000", "102658.110000", "102658.113000", "102658.116000", "102658.119000", "102658.122000", "102658.125000", "102658.128000", "102658.130000", "102658.133000", "102658.136000", "102658.139000", "102658.142000", "102658.145000", "102658.148000", "102658.151000", "102658.158000", "102658.161000", "102658.164000", "102658.167000", "102658.170000", "102658.173000", "102658.176000", "102658.179000", "102658.182000", "102658.185000", "102658.188000", "102658.191000", "102658.193000", "102658.196000", "102738.106000", "102738.109000", "102738.112000", "102738.115000", "102738.118000", "102738.121000", "102738.124000", "102738.126000", "102738.129000", "102738.132000", "102738.135000", "102738.138000", "102738.141000", "102738.144000", "102738.147000", "102738.150000", "102738.153000", "102738.155000", "102738.158000", "102738.161000", "102738.164000", "102738.167000", "102738.170000", "102738.172000", "102738.175000", "102738.178000", "102742.712000", "102742.716000", "102742.719000", "102742.722000"],
      "InstanceNumber": [1, 2, 3, 4, 5, 6, 7, 8, 9, 10, 11, 12, 13, 14, 15, 16, 17, 18, 19, 20, 21, 22, 23, 24, 25, 26, 27, 28, 29, 30, 31, 32, 33, 34, 35, 36, 37, 38, 39, 40, 41, 42, 43, 44, 45, 46, 47, 48, 49, 50, 51, 52, 53, 54, 55, 56, 57, 58, 59, 60, 61, 62, 63, 64, 65, 66, 67, 68, 69, 70, 71, 72, 73, 74, 75, 76, 77, 78, 79, 80, 81, 82, 83, 84, 85, 86, 87, 88, 89, 90, 91, 92, 93, 94, 95, 96, 97, 98, 99, 100, 101, 102, 103, 104, 105, 106, 107, 108, 109, 110, 111, 112, 113, 114, 115, 116, 117, 118, 119, 120, 121, 122, 123, 124, 125, 126, 127, 128, 129, 130, 131, 132, 133, 134, 135, 136, 137, 138, 139, 140, 141, 142, 143, 144, 145, 146, 147, 148, 149, 150, 151, 152, 153, 154, 155, 156, 157, 158, 159],
      "LargestImagePixelValue": [48780, 47872, 46434, 45599, 45716, 45200, 45341, 44799, 44747, 44595, 44695, 45416, 44366, 46427, 44872, 44657, 44894, 45025, 44936, 45254, 45260, 45323, 44935, 45669, 44967, 44994, 44737, 45432, 45072, 44918, 44961, 44595, 45027, 44321, 45110, 44958, 44896, 44887, 45028, 44585, 44563, 44211, 44550, 46727, 44498, 44541, 44538, 44453, 44822, 44949, 44631, 44601, 44579, 44607, 44882, 44299, 44688, 44562, 45523, 44829, 44755, 44871, 44257, 44254, 44514, 44822, 44823, 45245, 45478, 44850, 45482, 45269, 45371, 45601, 45443, 45346, 45642, 45332, 45055, 45164, 45659, 45441, 45086, 45577, 44716, 46186, 45112, 45425, 45411, 44763, 44951, 44389, 45269, 45020, 44547, 45215, 44750, 45244, 45335, 45438, 45640, 44858, 45444, 45122, 44136, 45029, 44841, 45060, 44608, 44526, 48210, 44708, 44281, 44867, 44383, 43645, 44327, 45219, 44337, 44532, 43992, 44474, 44141, 44245, 44014, 44503, 44083, 43645, 44196, 44245, 44653, 44244, 44242, 44686, 43990, 45044, 44617, 44082, 43948, 44430, 44768, 44853, 44945, 44804, 44371, 46412, 44957, 44861, 45198, 44697, 45229, 45341, 45943, 43588, 46185, 45772, 45308, 45278, 45356],
      "WindowCenter": [11236.0, 11181.0, 11145.0, 11124.0, 11117.0, 11094.0, 11097.0, 11092.0, 11097.0, 11106.0, 11121.0, 11126.0, 11117.0, 11143.0, 11130.0, 11129.0, 11129.0, 11129.0, 11122.0, 11111.0, 11106.0, 11099.0, 11093.0, 11097.0, 11090.0, 11089.0, 11084.0, 11103.0, 11092.0, 11086.0, 11089.0, 11085.0, 11090.0, 11087.0, 11101.0, 11106.0, 11097.0, 11101.0, 11103.0, 11098.0, 11089.0, 11081.0, 11078.0, 11109.0, 11083.0, 11086.0, 11086.0, 11080.0, 11085.0, 11074.0, 11076.0, 11074.0, 11084.0, 11095.0, 11100.0, 11082.0, 11076.0, 11074.0, 11089.0, 11090.0, 11093.0, 11091.0, 11077.0, 11083.0, 11087.0, 11084.0, 11077.0, 11076.0, 11078.0, 11084.0, 11098.0, 11102.0, 11099.0, 11098.0, 11089.0, 11092.0, 11087.0, 11086.0, 11081.0, 11089.0, 11093.0, 11079.0, 11065.0, 11066.0, 11056.0, 11079.0, 11071.0, 11075.0, 11077.0, 11073.0, 11069.0, 11078.0, 11092.0, 11091.0, 11075.0, 11067.0, 11061.0, 11073.0, 11088.0, 11097.0, 11104.0, 11090.0, 11092.0, 11086.0, 11090.0, 11109.0, 11094.0, 11077.0, 11065.0, 11070.0, 11115.0, 11077.0, 11061.0, 11058.0, 11043.0, 11036.0, 11040.0, 11064.0, 11058.0, 11056.0, 11040.0, 11043.0, 11044.0, 11045.0, 11055.0, 11078.0, 11075.0, 11071.0, 11069.0, 11067.0, 11088.0, 11082.0, 11093.0, 11100.0, 11096.0, 11119.0, 11105.0, 11099.0, 11096.0, 11102.0, 11108.0, 11096.0, 11086.0, 11083.0, 11081.0, 11114.0, 11098.0, 11097.0, 11102.0, 11088.0, 11088.0, 11098.0, 11133.0, 11081.0, 11071.0, 11051.0, 11064.0, 11087.0, 11082.0],
      "WindowWidth": [24186.0, 24014.0, 23912.0, 23855.0, 23833.0, 23775.0, 23779.0, 23768.0, 23781.0, 23799.0, 23836.0, 23843.0, 23829.0, 23896.0, 23858.0, 23866.0, 23856.0, 23854.0, 23841.0, 23809.0, 23795.0, 23780.0, 23766.0, 23775.0, 23759.0, 23755.0, 23748.0, 23805.0, 23765.0, 23752.0, 23756.0, 23764.0, 23759.0, 23758.0, 23788.0, 23800.0, 23783.0, 23785.0, 23792.0, 23781.0, 23762.0, 23748.0, 23738.0, 23821.0, 23747.0, 23757.0, 23756.0, 23742.0, 23755.0, 23725.0, 23737.0, 23727.0, 23750.0, 23776.0, 23789.0, 23750.0, 23732.0, 23727.0, 23760.0, 23762.0, 23772.0, 23788.0, 23739.0, 23758.0, 23759.0, 23749.0, 23732.0, 23736.0, 23732.0, 23749.0, 23781.0, 23791.0, 23780.0, 23776.0, 23756.0, 23772.0, 23751.0, 23749.0, 23738.0, 23753.0, 23760.0, 23731.0, 23696.0, 23696.0, 23679.0, 23745.0, 23715.0, 23730.0, 23724.0, 23720.0, 23717.0, 23734.0, 23765.0, 23759.0, 23729.0, 23704.0, 23692.0, 23717.0, 23753.0, 23772.0, 23787.0, 23770.0, 23763.0, 23747.0, 23767.0, 23810.0, 23781.0, 23735.0, 23708.0, 23714.0, 23822.0, 23737.0, 23692.0, 23688.0, 23652.0, 23634.0, 23641.0, 23704.0, 23683.0, 23676.0, 23643.0, 23648.0, 23650.0, 23653.0, 23676.0, 23729.0, 23725.0, 23718.0, 23714.0, 23710.0, 23761.0, 23742.0, 23765.0, 23783.0, 23776.0, 23845.0, 23797.0, 23801.0, 23780.0, 23793.0, 23809.0, 23773.0, 23747.0, 23740.0, 23738.0, 23819.0, 23778.0, 23774.0, 23780.0, 23754.0, 23774.0, 23796.0, 23868.0, 23753.0, 23719.0, 23669.0, 23699.0, 23757.0, 23744.0]
    },
    "slices": {}
  }
}