{
  "AcquisitionMatrixPE": 104,
  "AcquisitionNumber": 1,
  "AcquisitionTime": "10:02:25.420000",
  "BandwidthPerPixelPhaseEncode": 17.17,
  "BaseResolution": 104,
  "BodyPartExamined": "BRAIN",
  "CoilString": "HC1-7;NC1_2",
  "ConsistencyInfo": "N4_VE11C_LATEST_20160120",
  "ConversionSoftware": "dcm2niix",
  "ConversionSoftwareVersion": "v1.0.20190720  (JP2:OpenJPEG) GCC7.3.0",
  "DerivedVendorReportedEchoSpacing": 0.000560011,
  "DeviceSerialNumber": "167006",
  "DwellTime": 2.1e-06,
  "EchoTime": 0.037,
  "EchoTrainLength": 104,
  "EffectiveEchoSpacing": 0.000560011,
  "FlipAngle": 52,
  "ImageComments": "Unaliased_MB4_PE3_LB",
  "ImageOrientationPatientDICOM": [0.999423, -0.0338243, 0.00321073, 0.0312336, 0.877434, -0.478679],
  "ImageType": [
    "ORIGINAL",
    "PRIMARY",
    "M",
    "MB",
    "ND",
    "MOSAIC"
],
  "ImagingFrequency": 123.259,
  "InPlanePhaseEncodingDirectionDICOM": "COL",
  "InstitutionAddress": "Chemin_Queen-Mary_4565_Montreal_District_CA_H3W_1W5",
  "InstitutionName": "IUGM",
  "InstitutionalDepartmentName": "Department",
  "MRAcquisitionType": "2D",
  "MagneticFieldStrength": 3,
  "Manufacturer": "Siemens",
  "ManufacturersModelName": "Prisma_fit",
  "Modality": "MR",
  "MultibandAccelerationFactor": 4,
  "PartialFourier": 1,
  "PatientPosition": "HFS",
  "PercentPhaseFOV": 100,
  "PhaseEncodingDirection": "j",
  "PhaseEncodingSteps": 104,
  "PhaseResolution": 1,
  "PixelBandwidth": 2290,
  "ProcedureStepDescription": "hcptrt_generic",
  "ProtocolName": "func_task-motor_run-1",
  "PulseSequenceDetails": "%CustomerSeq%_cmrr_mbep2d_bold",
  "ReceiveCoilActiveElements": "HC1-7;NC1,2",
  "ReceiveCoilName": "HeadNeck_64",
  "ReconMatrixPE": 104,
  "RepetitionTime": 1.49,
  "SAR": 0.0381325,
  "ScanOptions": "FS",
  "ScanningSequence": "EP",
  "SequenceName": "epfid2d1_104",
  "SequenceVariant": "SK_SS",
  "SeriesDescription": "func_task-motor_run-1",
  "SeriesNumber": 9,
  "ShimSetting": [622, -7195, -8874, 404, -42, -144, 43, -41],
  "SliceThickness": 2,
  "SliceTiming": [0, 0.785, 0.0975, 0.8825, 0.195, 0.98, 0.295, 1.0775, 0.3925, 1.175, 0.49, 1.275, 0.5875, 1.3725, 0.685, 0, 0.785, 0.0975, 0.8825, 0.195, 0.98, 0.295, 1.0775, 0.3925, 1.175, 0.49, 1.275, 0.5875, 1.3725, 0.685, 0, 0.785, 0.0975, 0.8825, 0.195, 0.98, 0.295, 1.0775, 0.3925, 1.175, 0.49, 1.275, 0.5875, 1.3725, 0.685, 0, 0.785, 0.0975, 0.8825, 0.195, 0.98, 0.295, 1.0775, 0.3925, 1.175, 0.49, 1.275, 0.5875, 1.3725, 0.685],
  "SoftwareVersions": "syngo_MR_E11",
  "SpacingBetweenSlices": 2,
  "StationName": "MRC35049",
  "TaskName": "motor",
  "TotalReadoutTime": 0.0576811,
  "TxRefAmp": 248.686,
  "WipMemBlock": "77802224-da12-4fb2-9db7-63de64b540d7||Sequence: R016 ve11c/master r/e634e98; Dec 19 2017 11:00:25 by eja",
  "dcmmeta_affine": [
    [-1.9988452196121216, 0.06246715039014816, -0.026747578755021095, 100.2828598022461],
    [0.06764867156744003, 1.7548686265945435, -0.9570056200027466, -65.02344512939453],
    [0.006421463564038277, 0.9573578238487244, 1.7559683322906494, -95.5630111694336],
    [0.0, 0.0, 0.0, 1.0]
],
  "dcmmeta_reorient_transform": [
    [0.0, -1.0, 0.0, 103.0],
    [1.0, 0.0, 0.0, 0.0],
    [0.0, 0.0, 1.0, 0.0],
    [0.0, 0.0, 0.0, 1.0]
],
  "dcmmeta_shape": [104, 104, 60, 144],
  "dcmmeta_slice_dim": 2,
  "dcmmeta_version": 0.6,
  "global": {
    "const": {
      "AcquisitionMatrix": [104, 0, 0, 104],
      "AngioFlag": "N",
      "BitsAllocated": 16,
      "BitsStored": 16,
      "BodyPartExamined": "BRAIN",
      "Columns": 832,
      "EchoNumbers": 1,
      "EchoTime": 37.0,
      "EchoTrainLength": 104,
      "FlipAngle": 52.0,
      "HighBit": 15,
      "ImageOrientationPatient": [0.99942263611664, -0.0338243347222, 0.00321073173247, 0.03123357454608, 0.87743431198565, -0.4786789027849],
      "ImagePositionPatient": [-857.03469754463, -729.87608721904, 349.18567157489],
      "ImageType": [
        "ORIGINAL",
        "PRIMARY",
        "M",
        "MB",
        "ND",
        "MOSAIC"
],
      "ImagedNucleus": "1H",
      "ImagingFrequency": 123.2593,
      "InPlanePhaseEncodingDirection": "COL",
      "MRAcquisitionType": "2D",
      "MagneticFieldStrength": 3.0,
      "Manufacturer": "SIEMENS",
      "ManufacturerModelName": "Prisma_fit",
      "Modality": "MR",
      "NumberOfAverages": 1.0,
      "NumberOfPhaseEncodingSteps": 104,
      "PercentPhaseFieldOfView": 100.0,
      "PercentSampling": 100.0,
      "PerformedProcedureStepStartTime": "093311.141000",
      "PhotometricInterpretation": "MONOCHROME2",
      "PixelBandwidth": 2290.0,
      "PixelRepresentation": 0,
      "PixelSpacing": [2.0, 2.0],
      "ProtocolName": "func_task-motor_run-1",
      "RepetitionTime": 1490.0,
      "Rows": 832,
      "SAR": 0.03813248404326,
      "SamplesPerPixel": 1,
      "ScanOptions": "FS",
      "ScanningSequence": "EP",
      "SequenceName": "epfid2d1_104",
      "SequenceVariant": [
        "SK",
        "SS"
],
      "SeriesDescription": "func_task-motor_run-1",
      "SeriesNumber": 9,
      "SeriesTime": "100350.154000",
      "SliceLocation": -54.130071333157,
      "SliceThickness": 2.0,
      "SmallestImagePixelValue": 0,
      "SoftwareVersions": "syngo MR E11",
      "SpacingBetweenSlices": 1.9999999948825,
      "SpecificCharacterSet": "ISO_IR 100",
      "StudyID": "1",
      "StudyTime": "093311.041000",
      "TransmitCoilName": "Body",
      "VariableFlipAngleFlag": "N",
      "WindowCenterWidthExplanation": "Algo1",
      "dBdt": 0.0},
    "slices": {}
  },
  "time": {
    "samples": {
      "AcquisitionNumber": [1, 2, 3, 4, 5, 6, 7, 8, 9, 10, 11, 12, 13, 14, 15, 16, 17, 18, 19, 20, 21, 22, 23, 24, 25, 26, 27, 28, 29, 30, 31, 32, 33, 34, 35, 36, 37, 38, 39, 40, 41, 42, 43, 44, 45, 46, 47, 48, 49, 50, 51, 52, 53, 54, 55, 56, 57, 58, 59, 60, 61, 62, 63, 64, 65, 66, 67, 68, 69, 70, 71, 72, 73, 74, 75, 76, 77, 78, 79, 80, 81, 82, 83, 84, 85, 86, 87, 88, 89, 90, 91, 92, 93, 94, 95, 96, 97, 98, 99, 100, 101, 102, 103, 104, 105, 106, 107, 108, 109, 110, 111, 112, 113, 114, 115, 116, 117, 118, 119, 120, 121, 122, 123, 124, 125, 126, 127, 128, 129, 130, 131, 132, 133, 134, 135, 136, 137, 138, 139, 140, 141, 142, 143, 144],
      "AcquisitionTime": ["100225.420000", "100226.910000", "100228.400000", "100229.890000", "100231.380000", "100232.870000", "100234.360000", "100235.850000", "100237.340000", "100238.830000", "100240.320000", "100241.810000", "100243.300000", "100244.790000", "100246.280000", "100247.770000", "100249.260000", "100250.750000", "100252.240000", "100253.730000", "100255.220000", "100256.710000", "100258.200000", "100259.690000", "100301.180000", "100302.670000", "100304.160000", "100305.650000", "100307.140000", "100308.630000", "100310.120000", "100311.610000", "100313.100000", "100314.590000", "100316.080000", "100317.570000", "100319.060000", "100320.550000", "100322.040000", "100323.530000", "100325.020000", "100326.510000", "100328.000000", "100329.490000", "100330.980000", "100332.470000", "100333.960000", "100335.450000", "100336.940000", "100338.430000", "100339.920000", "100341.410000", "100342.900000", "100344.390000", "100345.880000", "100347.370000", "100348.860000", "100350.350000", "100351.840000", "100353.330000", "100354.820000", "100356.310000", "100357.800000", "100359.290000", "100400.780000", "100402.270000", "100403.760000", "100405.250000", "100406.740000", "100408.230000", "100409.720000", "100411.210000", "100412.700000", "100414.190000", "100415.680000", "100417.170000", "100418.660000", "100420.150000", "100421.640000", "100423.130000", "100424.620000", "100426.110000", "100427.600000", "100429.090000", "100430.580000", "100432.070000", "100433.560000", "100435.050000", "100436.540000", "100438.030000", "100439.520000", "100441.010000", "100442.500000", "100443.990000", "100445.480000", "100446.970000", "100448.460000", "100449.950000", "100451.440000", "100452.930000", "100454.420000", "100455.910000", "100457.400000", "100458.890000", "100500.380000", "100501.870000", "100503.360000", "100504.850000", "100506.340000", "100507.830000", "100509.320000", "100510.810000", "100512.300000", "100513.790000", "100515.280000", "100516.770000", "100518.260000", "100519.750000", "100521.240000", "100522.730000", "100524.220000", "100525.710000", "100527.200000", "100528.690000", "100530.180000", "100531.670000", "100533.160000", "100534.650000", "100536.140000", "100537.630000", "100539.120000", "100540.610000", "100542.100000", "100543.590000", "100545.080000", "100546.570000", "100548.060000", "100549.550000", "100551.040000", "100552.530000", "100554.020000", "100555.510000", "100557.000000", "100558.490000"],
      "ContentTime": ["100350.156000", "100350.160000", "100350.163000", "100350.165000", "100350.168000", "100350.171000", "100350.174000", "100350.177000", "100350.180000", "100350.183000", "100350.186000", "100350.189000", "100350.191000", "100350.199000", "100350.202000", "100350.205000", "100350.208000", "100350.210000", "100350.213000", "100350.216000", "100350.219000", "100350.222000", "100350.225000", "100350.227000", "100350.230000", "100350.233000", "100350.236000", "100350.239000", "100350.242000", "100350.245000", "100350.247000", "100410.115000", "100410.118000", "100410.121000", "100410.124000", "100410.127000", "100410.129000", "100410.132000", "100410.218000", "100410.221000", "100410.224000", "100410.227000", "100410.230000", "100410.232000", "100410.249000", "100410.256000", "100410.259000", "100410.262000", "100410.265000", "100410.268000", "100410.270000", "100430.115000", "100430.118000", "100430.121000", "100430.124000", "100430.127000", "100430.130000", "100430.132000", "100430.135000", "100430.138000", "100430.141000", "100430.144000", "100430.146000", "100430.149000", "100430.152000", "100430.155000", "100430.158000", "100430.161000", "100430.163000", "100430.166000", "100430.169000", "100450.114000", "100450.117000", "100450.120000", "100450.122000", "100450.125000", "100450.128000", "100450.131000", "100450.134000", "100450.137000", "100450.140000", "100450.143000", "100450.146000", "100450.148000", "100450.151000", "100450.154000", "100450.157000", "100450.168000", "100450.173000", "100450.176000", "100450.179000", "100530.114000", "100530.117000", "100530.120000", "100530.123000", "100530.126000", "100530.128000", "100530.131000", "100530.134000", "100530.137000", "100530.140000", "100530.143000", "100530.145000", "100530.148000", "100530.151000", "100530.154000", "100530.157000", "100530.160000", "100530.163000", "100530.166000", "100530.169000", "100530.172000", "100530.175000", "100530.177000", "100530.180000", "100530.183000", "100530.186000", "100530.189000", "100530.192000", "100530.195000", "100530.198000", "100530.200000", "100530.203000", "100600.821000", "100600.824000", "100600.827000", "100600.830000", "100600.833000", "100600.836000", "100600.846000", "100600.850000", "100600.853000", "100600.856000", "100600.859000", "100600.862000", "100600.865000", "100600.868000", "100600.871000", "100600.874000", "100600.877000", "100600.880000", "100600.883000", "100600.887000", "100600.890000"],
      "InstanceCreationTime": ["100350.156000", "100350.160000", "100350.163000", "100350.165000", "100350.168000", "100350.171000", "100350.174000", "100350.177000", "100350.180000", "100350.183000", "100350.186000", "100350.189000", "100350.191000", "100350.199000", "100350.202000", "100350.205000", "100350.208000", "100350.210000", "100350.213000", "100350.216000", "100350.219000", "100350.222000", "100350.225000", "100350.227000", "100350.230000", "100350.233000", "100350.236000", "100350.239000", "100350.242000", "100350.245000", "100350.247000", "100410.115000", "100410.118000", "100410.121000", "100410.124000", "100410.127000", "100410.129000", "100410.132000", "100410.218000", "100410.221000", "100410.224000", "100410.227000", "100410.230000", "100410.232000", "100410.249000", "100410.256000", "100410.259000", "100410.262000", "100410.265000", "100410.268000", "100410.270000", "100430.115000", "100430.118000", "100430.121000", "100430.124000", "100430.127000", "100430.130000", "100430.132000", "100430.135000", "100430.138000", "100430.141000", "100430.144000", "100430.146000", "100430.149000", "100430.152000", "100430.155000", "100430.158000", "100430.161000", "100430.163000", "100430.166000", "100430.169000", "100450.114000", "100450.117000", "100450.120000", "100450.122000", "100450.125000", "100450.128000", "100450.131000", "100450.134000", "100450.137000", "100450.140000", "100450.143000", "100450.146000", "100450.148000", "100450.151000", "100450.154000", "100450.157000", "100450.168000", "100450.173000", "100450.176000", "100450.179000", "100530.114000", "100530.117000", "100530.120000", "100530.123000", "100530.126000", "100530.128000", "100530.131000", "100530.134000", "100530.137000", "100530.140000", "100530.143000", "100530.145000", "100530.148000", "100530.151000", "100530.154000", "100530.157000", "100530.160000", "100530.163000", "100530.166000", "100530.169000", "100530.172000", "100530.175000", "100530.177000", "100530.180000", "100530.183000", "100530.186000", "100530.189000", "100530.192000", "100530.195000", "100530.198000", "100530.200000", "100530.203000", "100600.821000", "100600.824000", "100600.827000", "100600.830000", "100600.833000", "100600.836000", "100600.846000", "100600.850000", "100600.853000", "100600.856000", "100600.859000", "100600.862000", "100600.865000", "100600.868000", "100600.871000", "100600.874000", "100600.877000", "100600.880000", "100600.883000", "100600.887000", "100600.890000"],
      "InstanceNumber": [1, 2, 3, 4, 5, 6, 7, 8, 9, 10, 11, 12, 13, 14, 15, 16, 17, 18, 19, 20, 21, 22, 23, 24, 25, 26, 27, 28, 29, 30, 31, 32, 33, 34, 35, 36, 37, 38, 39, 40, 41, 42, 43, 44, 45, 46, 47, 48, 49, 50, 51, 52, 53, 54, 55, 56, 57, 58, 59, 60, 61, 62, 63, 64, 65, 66, 67, 68, 69, 70, 71, 72, 73, 74, 75, 76, 77, 78, 79, 80, 81, 82, 83, 84, 85, 86, 87, 88, 89, 90, 91, 92, 93, 94, 95, 96, 97, 98, 99, 100, 101, 102, 103, 104, 105, 106, 107, 108, 109, 110, 111, 112, 113, 114, 115, 116, 117, 118, 119, 120, 121, 122, 123, 124, 125, 126, 127, 128, 129, 130, 131, 132, 133, 134, 135, 136, 137, 138, 139, 140, 141, 142, 143, 144],
      "LargestImagePixelValue": [49656, 48075, 47747, 46862, 45891, 46296, 46648, 46228, 46467, 46395, 46528, 46368, 46242, 46150, 46046, 46041, 46289, 46500, 45811, 46216, 46219, 45931, 46140, 45696, 46491, 45658, 46034, 45914, 45709, 45009, 44898, 44419, 44565, 44487, 44433, 46370, 45322, 45176, 45921, 45058, 44811, 44921, 45129, 45546, 44931, 44898, 44615, 46003, 45450, 45782, 45161, 45382, 44994, 45214, 45383, 46286, 45468, 46400, 45838, 45687, 45471, 45069, 45011, 44988, 45337, 45024, 44530, 45310, 45181, 44885, 44767, 44401, 44958, 46046, 46262, 45791, 45102, 45196, 44829, 44242, 44212, 44000, 44228, 44909, 45542, 45555, 44772, 45269, 45028, 44532, 44177, 44850, 45380, 44790, 44919, 45649, 44239, 46895, 45942, 46790, 46245, 46199, 45152, 45658, 45091, 45457, 45436, 45362, 46189, 45462, 45226, 44267, 44750, 44127, 44755, 44891, 44626, 44623, 44926, 45256, 45832, 45224, 45348, 45160, 45214, 45228, 44717, 45581, 44484, 45264, 47012, 46652, 47752, 46976, 46372, 45554, 45618, 46539, 46939, 46571, 46191, 47040, 48651, 47300],
      "WindowCenter": [11305.0, 11237.0, 11200.0, 11184.0, 11180.0, 11185.0, 11193.0, 11185.0, 11186.0, 11192.0, 11207.0, 11226.0, 11229.0, 11227.0, 11224.0, 11220.0, 11214.0, 11210.0, 11223.0, 11219.0, 11223.0, 11218.0, 11214.0, 11207.0, 11195.0, 11195.0, 11188.0, 11175.0, 11169.0, 11157.0, 11157.0, 11150.0, 11148.0, 11146.0, 11158.0, 11178.0, 11190.0, 11194.0, 11205.0, 11181.0, 11171.0, 11171.0, 11186.0, 11187.0, 11193.0, 11191.0, 11193.0, 11201.0, 11201.0, 11209.0, 11197.0, 11195.0, 11186.0, 11187.0, 11194.0, 11198.0, 11186.0, 11184.0, 11195.0, 11181.0, 11172.0, 11160.0, 11142.0, 11147.0, 11162.0, 11173.0, 11167.0, 11178.0, 11175.0, 11166.0, 11164.0, 11165.0, 11161.0, 11142.0, 11149.0, 11173.0, 11157.0, 11158.0, 11165.0, 11162.0, 11155.0, 11137.0, 11121.0, 11123.0, 11138.0, 11152.0, 11149.0, 11156.0, 11158.0, 11168.0, 11177.0, 11190.0, 11187.0, 11178.0, 11193.0, 11203.0, 11200.0, 11218.0, 11214.0, 11238.0, 11228.0, 11222.0, 11207.0, 11202.0, 11200.0, 11205.0, 11221.0, 11215.0, 11204.0, 11193.0, 11183.0, 11171.0, 11174.0, 11173.0, 11175.0, 11168.0, 11159.0, 11172.0, 11168.0, 11188.0, 11192.0, 11181.0, 11178.0, 11176.0, 11179.0, 11170.0, 11170.0, 11177.0, 11151.0, 11149.0, 11191.0, 11195.0, 11186.0, 11183.0, 11178.0, 11182.0, 11173.0, 11158.0, 11145.0, 11147.0, 11148.0, 11169.0, 11191.0, 11194.0],
      "WindowWidth": [24392.0, 24197.0, 24084.0, 24039.0, 24026.0, 24034.0, 24052.0, 24032.0, 24040.0, 24048.0, 24081.0, 24141.0, 24139.0, 24134.0, 24126.0, 24127.0, 24103.0, 24090.0, 24125.0, 24113.0, 24122.0, 24110.0, 24102.0, 24089.0, 24056.0, 24058.0, 24047.0, 24023.0, 23998.0, 23970.0, 23969.0, 23953.0, 23948.0, 23944.0, 23984.0, 24017.0, 24042.0, 24053.0, 24073.0, 24024.0, 24002.0, 24002.0, 24038.0, 24042.0, 24055.0, 24054.0, 24056.0, 24065.0, 24072.0, 24090.0, 24068.0, 24059.0, 24038.0, 24039.0, 24054.0, 24061.0, 24040.0, 24030.0, 24054.0, 24023.0, 24012.0, 23979.0, 23933.0, 23942.0, 23980.0, 24004.0, 23989.0, 24020.0, 24011.0, 23981.0, 23975.0, 23980.0, 23972.0, 23923.0, 23934.0, 24001.0, 23967.0, 23966.0, 23979.0, 23971.0, 23953.0, 23907.0, 23873.0, 23872.0, 23906.0, 23941.0, 23939.0, 23952.0, 23957.0, 23983.0, 24007.0, 24034.0, 24022.0, 24009.0, 24044.0, 24065.0, 24066.0, 24101.0, 24093.0, 24152.0, 24125.0, 24113.0, 24083.0, 24071.0, 24068.0, 24076.0, 24116.0, 24107.0, 24071.0, 24051.0, 24021.0, 23997.0, 24001.0, 24012.0, 24006.0, 23984.0, 23966.0, 23994.0, 23982.0, 24031.0, 24039.0, 24015.0, 24008.0, 24004.0, 24019.0, 23992.0, 23993.0, 24013.0, 23956.0, 23945.0, 24040.0, 24051.0, 24033.0, 24033.0, 24005.0, 24020.0, 23996.0, 23954.0, 23921.0, 23929.0, 23931.0, 23982.0, 24034.0, 24042.0]
    },
    "slices": {}
  }
}