{
  "AcquisitionMatrixPE": 104,
  "AcquisitionNumber": 1,
  "AcquisitionTime": "10:10:38.830000",
  "BandwidthPerPixelPhaseEncode": 17.17,
  "BaseResolution": 104,
  "BodyPartExamined": "BRAIN",
  "CoilString": "HC1-7;NC1_2",
  "ConsistencyInfo": "N4_VE11C_LATEST_20160120",
  "ConversionSoftware": "dcm2niix",
  "ConversionSoftwareVersion": "v1.0.20190720  (JP2:OpenJPEG) GCC7.3.0",
  "DerivedVendorReportedEchoSpacing": 0.000560011,
  "DeviceSerialNumber": "167006",
  "DwellTime": 2.1e-06,
  "EchoTime": 0.037,
  "EchoTrainLength": 104,
  "EffectiveEchoSpacing": 0.000560011,
  "FlipAngle": 52,
  "ImageComments": "Unaliased_MB4_PE3_LB",
  "ImageOrientationPatientDICOM": [0.999423, -0.0338243, 0.00321073, 0.0312336, 0.877434, -0.478679],
  "ImageType": [
    "ORIGINAL",
    "PRIMARY",
    "M",
    "MB",
    "ND",
    "MOSAIC"
],
  "ImagingFrequency": 123.259,
  "InPlanePhaseEncodingDirectionDICOM": "COL",
  "InstitutionAddress": "Chemin_Queen-Mary_4565_Montreal_District_CA_H3W_1W5",
  "InstitutionName": "IUGM",
  "InstitutionalDepartmentName": "Department",
  "MRAcquisitionType": "2D",
  "MagneticFieldStrength": 3,
  "Manufacturer": "Siemens",
  "ManufacturersModelName": "Prisma_fit",
  "Modality": "MR",
  "MultibandAccelerationFactor": 4,
  "PartialFourier": 1,
  "PatientPosition": "HFS",
  "PercentPhaseFOV": 100,
  "PhaseEncodingDirection": "j",
  "PhaseEncodingSteps": 104,
  "PhaseResolution": 1,
  "PixelBandwidth": 2290,
  "ProcedureStepDescription": "hcptrt_generic",
  "ProtocolName": "func_task-relational_run-1",
  "PulseSequenceDetails": "%CustomerSeq%_cmrr_mbep2d_bold",
  "ReceiveCoilActiveElements": "HC1-7;NC1,2",
  "ReceiveCoilName": "HeadNeck_64",
  "ReconMatrixPE": 104,
  "RepetitionTime": 1.49,
  "SAR": 0.0380296,
  "ScanOptions": "FS",
  "ScanningSequence": "EP",
  "SequenceName": "epfid2d1_104",
  "SequenceVariant": "SK_SS",
  "SeriesDescription": "func_task-relational_run-1",
  "SeriesNumber": 13,
  "ShimSetting": [622, -7195, -8874, 404, -42, -144, 43, -41],
  "SliceThickness": 2,
  "SliceTiming": [0, 0.785, 0.1, 0.8825, 0.1975, 0.98, 0.295, 1.08, 0.3925, 1.1775, 0.49, 1.275, 0.59, 1.3725, 0.6875, 0, 0.785, 0.1, 0.8825, 0.1975, 0.98, 0.295, 1.08, 0.3925, 1.1775, 0.49, 1.275, 0.59, 1.3725, 0.6875, 0, 0.785, 0.1, 0.8825, 0.1975, 0.98, 0.295, 1.08, 0.3925, 1.1775, 0.49, 1.275, 0.59, 1.3725, 0.6875, 0, 0.785, 0.1, 0.8825, 0.1975, 0.98, 0.295, 1.08, 0.3925, 1.1775, 0.49, 1.275, 0.59, 1.3725, 0.6875],
  "SoftwareVersions": "syngo_MR_E11",
  "SpacingBetweenSlices": 2,
  "StationName": "MRC35049",
  "TaskName": "relational",
  "TotalReadoutTime": 0.0576811,
  "TxRefAmp": 248.686,
  "WipMemBlock": "52f6e9ba-110a-48da-8afc-b913ab6fc2dd||Sequence: R016 ve11c/master r/e634e98; Dec 19 2017 11:00:25 by eja",
  "dcmmeta_affine": [
    [-1.9988452196121216, 0.06246715039014816, -0.026747578755021095, 100.2828598022461],
    [0.06764867156744003, 1.7548686265945435, -0.9570056200027466, -65.02344512939453],
    [0.006421463564038277, 0.9573578238487244, 1.7559683322906494, -95.5630111694336],
    [0.0, 0.0, 0.0, 1.0]
],
  "dcmmeta_reorient_transform": [
    [0.0, -1.0, 0.0, 103.0],
    [1.0, 0.0, 0.0, 0.0],
    [0.0, 0.0, 1.0, 0.0],
    [0.0, 0.0, 0.0, 1.0]
],
  "dcmmeta_shape": [104, 104, 60, 119],
  "dcmmeta_slice_dim": 2,
  "dcmmeta_version": 0.6,
  "global": {
    "const": {
      "AcquisitionMatrix": [104, 0, 0, 104],
      "AngioFlag": "N",
      "BitsAllocated": 16,
      "BitsStored": 16,
      "BodyPartExamined": "BRAIN",
      "Columns": 832,
      "EchoNumbers": 1,
      "EchoTime": 37.0,
      "EchoTrainLength": 104,
      "FlipAngle": 52.0,
      "HighBit": 15,
      "ImageOrientationPatient": [0.99942263611664, -0.0338243347222, 0.00321073173247, 0.03123357454608, 0.87743431198565, -0.4786789027849],
      "ImagePositionPatient": [-857.03469754463, -729.87608721904, 349.18567157489],
      "ImageType": [
        "ORIGINAL",
        "PRIMARY",
        "M",
        "MB",
        "ND",
        "MOSAIC"
],
      "ImagedNucleus": "1H",
      "ImagingFrequency": 123.259306,
      "InPlanePhaseEncodingDirection": "COL",
      "MRAcquisitionType": "2D",
      "MagneticFieldStrength": 3.0,
      "Manufacturer": "SIEMENS",
      "ManufacturerModelName": "Prisma_fit",
      "Modality": "MR",
      "NumberOfAverages": 1.0,
      "NumberOfPhaseEncodingSteps": 104,
      "PercentPhaseFieldOfView": 100.0,
      "PercentSampling": 100.0,
      "PerformedProcedureStepStartTime": "093311.141000",
      "PhotometricInterpretation": "MONOCHROME2",
      "PixelBandwidth": 2290.0,
      "PixelRepresentation": 0,
      "PixelSpacing": [2.0, 2.0],
      "ProtocolName": "func_task-relational_run-1",
      "RepetitionTime": 1490.0,
      "Rows": 832,
      "SAR": 0.03802958099616,
      "SamplesPerPixel": 1,
      "ScanOptions": "FS",
      "ScanningSequence": "EP",
      "SequenceName": "epfid2d1_104",
      "SequenceVariant": [
        "SK",
        "SS"
],
      "SeriesDescription": "func_task-relational_run-1",
      "SeriesNumber": 13,
      "SeriesTime": "101138.138000",
      "SliceLocation": -54.130071333157,
      "SliceThickness": 2.0,
      "SmallestImagePixelValue": 0,
      "SoftwareVersions": "syngo MR E11",
      "SpacingBetweenSlices": 1.9999999948825,
      "SpecificCharacterSet": "ISO_IR 100",
      "StudyID": "1",
      "StudyTime": "093311.041000",
      "TransmitCoilName": "Body",
      "VariableFlipAngleFlag": "N",
      "WindowCenterWidthExplanation": "Algo1",
      "dBdt": 0.0},
    "slices": {}
  },
  "time": {
    "samples": {
      "AcquisitionNumber": [1, 2, 3, 4, 5, 6, 7, 8, 9, 10, 11, 12, 13, 14, 15, 16, 17, 18, 19, 20, 21, 22, 23, 24, 25, 26, 27, 28, 29, 30, 31, 32, 33, 34, 35, 36, 37, 38, 39, 40, 41, 42, 43, 44, 45, 46, 47, 48, 49, 50, 51, 52, 53, 54, 55, 56, 57, 58, 59, 60, 61, 62, 63, 64, 65, 66, 67, 68, 69, 70, 71, 72, 73, 74, 75, 76, 77, 78, 79, 80, 81, 82, 83, 84, 85, 86, 87, 88, 89, 90, 91, 92, 93, 94, 95, 96, 97, 98, 99, 100, 101, 102, 103, 104, 105, 106, 107, 108, 109, 110, 111, 112, 113, 114, 115, 116, 117, 118, 119],
      "AcquisitionTime": ["101038.830000", "101040.320000", "101041.810000", "101043.300000", "101044.790000", "101046.280000", "101047.770000", "101049.260000", "101050.750000", "101052.240000", "101053.730000", "101055.220000", "101056.710000", "101058.200000", "101059.690000", "101101.180000", "101102.670000", "101104.160000", "101105.650000", "101107.140000", "101108.630000", "101110.120000", "101111.610000", "101113.100000", "101114.590000", "101116.080000", "101117.570000", "101119.060000", "101120.550000", "101122.040000", "101123.530000", "101125.020000", "101126.510000", "101128.000000", "101129.490000", "101130.980000", "101132.470000", "101133.960000", "101135.450000", "101136.940000", "101138.430000", "101139.920000", "101141.410000", "101142.900000", "101144.390000", "101145.880000", "101147.370000", "101148.860000", "101150.350000", "101151.840000", "101153.330000", "101154.820000", "101156.310000", "101157.800000", "101159.290000", "101200.780000", "101202.270000", "101203.760000", "101205.250000", "101206.740000", "101208.230000", "101209.720000", "101211.210000", "101212.700000", "101214.190000", "101215.680000", "101217.170000", "101218.660000", "101220.150000", "101221.640000", "101223.130000", "101224.620000", "101226.110000", "101227.600000", "101229.090000", "101230.580000", "101232.070000", "101233.560000", "101235.050000", "101236.540000", "101238.030000", "101239.520000", "101241.010000", "101242.500000", "101243.990000", "101245.480000", "101246.970000", "101248.460000", "101249.950000", "101251.440000", "101252.930000", "101254.420000", "101255.910000", "101257.400000", "101258.890000", "101300.380000", "101301.870000", "101303.360000", "101304.850000", "101306.340000", "101307.830000", "101309.320000", "101310.810000", "101312.300000", "101313.790000", "101315.280000", "101316.770000", "101318.260000", "101319.750000", "101321.240000", "101322.730000", "101324.220000", "101325.710000", "101327.200000", "101328.690000", "101330.180000", "101331.670000", "101333.160000", "101334.650000"],
      "ContentTime": ["101138.140000", "101138.144000", "101138.147000", "101138.149000", "101138.152000", "101158.106000", "101158.109000", "101158.112000", "101158.115000", "101158.118000", "101158.121000", "101158.123000", "101158.135000", "101158.138000", "101158.141000", "101158.144000", "101158.146000", "101158.149000", "101158.152000", "101158.155000", "101158.158000", "101158.161000", "101158.163000", "101158.166000", "101158.169000", "101218.107000", "101218.110000", "101218.113000", "101218.116000", "101218.125000", "101218.128000", "101218.131000", "101218.134000", "101218.137000", "101218.140000", "101218.151000", "101218.155000", "101218.158000", "101218.161000", "101218.164000", "101218.167000", "101218.170000", "101218.173000", "101218.176000", "101218.178000", "101238.107000", "101238.110000", "101238.113000", "101238.116000", "101238.120000", "101238.123000", "101238.126000", "101238.129000", "101238.132000", "101238.135000", "101238.138000", "101238.141000", "101238.144000", "101238.147000", "101238.149000", "101238.152000", "101238.155000", "101238.158000", "101238.161000", "101238.164000", "101238.166000", "101258.107000", "101258.110000", "101258.113000", "101258.116000", "101258.119000", "101258.122000", "101258.125000", "101258.128000", "101258.131000", "101258.133000", "101258.136000", "101258.139000", "101258.148000", "101258.150000", "101258.153000", "101258.156000", "101258.159000", "101258.162000", "101258.165000", "101258.168000", "101318.106000", "101318.109000", "101318.112000", "101318.115000", "101318.118000", "101318.121000", "101318.124000", "101318.127000", "101318.129000", "101318.132000", "101318.135000", "101318.148000", "101318.151000", "101318.154000", "101318.156000", "101318.159000", "101318.162000", "101318.165000", "101318.168000", "101318.171000", "101336.838000", "101336.841000", "101336.844000", "101336.847000", "101336.850000", "101336.853000", "101336.856000", "101336.859000", "101336.862000", "101336.866000", "101336.878000", "101336.881000", "101336.884000"],
      "InstanceCreationTime": ["101138.140000", "101138.144000", "101138.147000", "101138.149000", "101138.152000", "101158.106000", "101158.109000", "101158.112000", "101158.115000", "101158.118000", "101158.121000", "101158.123000", "101158.135000", "101158.138000", "101158.141000", "101158.144000", "101158.146000", "101158.149000", "101158.152000", "101158.155000", "101158.158000", "101158.161000", "101158.163000", "101158.166000", "101158.169000", "101218.107000", "101218.110000", "101218.113000", "101218.116000", "101218.125000", "101218.128000", "101218.131000", "101218.134000", "101218.137000", "101218.140000", "101218.151000", "101218.155000", "101218.158000", "101218.161000", "101218.164000", "101218.167000", "101218.170000", "101218.173000", "101218.176000", "101218.178000", "101238.107000", "101238.110000", "101238.113000", "101238.116000", "101238.120000", "101238.123000", "101238.126000", "101238.129000", "101238.132000", "101238.135000", "101238.138000", "101238.141000", "101238.144000", "101238.147000", "101238.149000", "101238.152000", "101238.155000", "101238.158000", "101238.161000", "101238.164000", "101238.166000", "101258.107000", "101258.110000", "101258.113000", "101258.116000", "101258.119000", "101258.122000", "101258.125000", "101258.128000", "101258.131000", "101258.133000", "101258.136000", "101258.139000", "101258.148000", "101258.150000", "101258.153000", "101258.156000", "101258.159000", "101258.162000", "101258.165000", "101258.168000", "101318.106000", "101318.109000", "101318.112000", "101318.115000", "101318.118000", "101318.121000", "101318.124000", "101318.127000", "101318.129000", "101318.132000", "101318.135000", "101318.148000", "101318.151000", "101318.154000", "101318.156000", "101318.159000", "101318.162000", "101318.165000", "101318.168000", "101318.171000", "101336.838000", "101336.841000", "101336.844000", "101336.847000", "101336.850000", "101336.853000", "101336.856000", "101336.859000", "101336.862000", "101336.866000", "101336.878000", "101336.881000", "101336.884000"],
      "InstanceNumber": [1, 2, 3, 4, 5, 6, 7, 8, 9, 10, 11, 12, 13, 14, 15, 16, 17, 18, 19, 20, 21, 22, 23, 24, 25, 26, 27, 28, 29, 30, 31, 32, 33, 34, 35, 36, 37, 38, 39, 40, 41, 42, 43, 44, 45, 46, 47, 48, 49, 50, 51, 52, 53, 54, 55, 56, 57, 58, 59, 60, 61, 62, 63, 64, 65, 66, 67, 68, 69, 70, 71, 72, 73, 74, 75, 76, 77, 78, 79, 80, 81, 82, 83, 84, 85, 86, 87, 88, 89, 90, 91, 92, 93, 94, 95, 96, 97, 98, 99, 100, 101, 102, 103, 104, 105, 106, 107, 108, 109, 110, 111, 112, 113, 114, 115, 116, 117, 118, 119],
      "LargestImagePixelValue": [49535, 48218, 47133, 46582, 46392, 45517, 45641, 45199, 47075, 45362, 45752, 45475, 45939, 45334, 45291, 45291, 45860, 45323, 45543, 45196, 46025, 45293, 46152, 45274, 46078, 45690, 46022, 45588, 45599, 45103, 45885, 48049, 45821, 45400, 45784, 46276, 47588, 46129, 45380, 45433, 45459, 44812, 45726, 45752, 45468, 45733, 46334, 45820, 45423, 45311, 45461, 50332, 45112, 45713, 44448, 46298, 45202, 45380, 44922, 45478, 46533, 44864, 45370, 44840, 46851, 45415, 45288, 44728, 45625, 45220, 44933, 45687, 45192, 45766, 44521, 45265, 44923, 44962, 45111, 44927, 44848, 45402, 45258, 45014, 44663, 45056, 45026, 45387, 44689, 44546, 44321, 45454, 45235, 45315, 45366, 45665, 45390, 45363, 45438, 44781, 45680, 44698, 45327, 45168, 45283, 45057, 45552, 45732, 44754, 45331, 44950, 44811, 49066, 49047, 46820, 45586, 45273, 45093, 45835],
      "WindowCenter": [11275.0, 11199.0, 11153.0, 11131.0, 11134.0, 11137.0, 11138.0, 11124.0, 11147.0, 11135.0, 11150.0, 11165.0, 11195.0, 11185.0, 11184.0, 11176.0, 11178.0, 11166.0, 11175.0, 11166.0, 11170.0, 11156.0, 11162.0, 11146.0, 11143.0, 11143.0, 11132.0, 11132.0, 11139.0, 11136.0, 11138.0, 11165.0, 11125.0, 11116.0, 11117.0, 11131.0, 11182.0, 11135.0, 11109.0, 11091.0, 11088.0, 11105.0, 11116.0, 11110.0, 11091.0, 11091.0, 11099.0, 11104.0, 11109.0, 11117.0, 11134.0, 11183.0, 11140.0, 11153.0, 11155.0, 11176.0, 11169.0, 11170.0, 11158.0, 11157.0, 11169.0, 11156.0, 11156.0, 11144.0, 11152.0, 11140.0, 11141.0, 11129.0, 11137.0, 11123.0, 11125.0, 11129.0, 11120.0, 11128.0, 11136.0, 11144.0, 11127.0, 11125.0, 11124.0, 11124.0, 11133.0, 11142.0, 11136.0, 11131.0, 11117.0, 11119.0, 11120.0, 11118.0, 11115.0, 11117.0, 11107.0, 11116.0, 11119.0, 11120.0, 11120.0, 11123.0, 11119.0, 11117.0, 11119.0, 11113.0, 11122.0, 11098.0, 11096.0, 11093.0, 11093.0, 11092.0, 11091.0, 11095.0, 11080.0, 11086.0, 11082.0, 11091.0, 11161.0, 11155.0, 11090.0, 11069.0, 11086.0, 11094.0, 11092.0],
      "WindowWidth": [24292.0, 24081.0, 23951.0, 23889.0, 23890.0, 23896.0, 23898.0, 23864.0, 23925.0, 23887.0, 23922.0, 23960.0, 24033.0, 24008.0, 24006.0, 23985.0, 23989.0, 23964.0, 23987.0, 23964.0, 23969.0, 23938.0, 23949.0, 23917.0, 23904.0, 23907.0, 23876.0, 23876.0, 23905.0, 23888.0, 23893.0, 23963.0, 23863.0, 23841.0, 23847.0, 23882.0, 23999.0, 23886.0, 23824.0, 23786.0, 23775.0, 23817.0, 23832.0, 23823.0, 23770.0, 23773.0, 23790.0, 23806.0, 23819.0, 23835.0, 23874.0, 23990.0, 23893.0, 23922.0, 23938.0, 23968.0, 23960.0, 23962.0, 23933.0, 23929.0, 23968.0, 23931.0, 23925.0, 23896.0, 23921.0, 23887.0, 23890.0, 23864.0, 23879.0, 23849.0, 23852.0, 23862.0, 23846.0, 23861.0, 23882.0, 23899.0, 23860.0, 23858.0, 23853.0, 23852.0, 23879.0, 23892.0, 23879.0, 23873.0, 23838.0, 23840.0, 23841.0, 23836.0, 23830.0, 23843.0, 23813.0, 23829.0, 23838.0, 23845.0, 23841.0, 23844.0, 23842.0, 23832.0, 23840.0, 23827.0, 23841.0, 23793.0, 23789.0, 23781.0, 23779.0, 23779.0, 23773.0, 23796.0, 23751.0, 23763.0, 23751.0, 23778.0, 23952.0, 23936.0, 23789.0, 23739.0, 23773.0, 23781.0, 23770.0]
    },
    "slices": {}
  }
}