{
  "AcquisitionMatrixPE": 104,
  "AcquisitionNumber": 1,
  "AcquisitionTime": "09:46:3.482500",
  "BandwidthPerPixelPhaseEncode": 17.17,
  "BaseResolution": 104,
  "BodyPartExamined": "BRAIN",
  "CoilString": "HC1-7;NC1_2",
  "ConsistencyInfo": "N4_VE11C_LATEST_20160120",
  "ConversionSoftware": "dcm2niix",
  "ConversionSoftwareVersion": "v1.0.20190720  (JP2:OpenJPEG) GCC7.3.0",
  "DerivedVendorReportedEchoSpacing": 0.000560011,
  "DeviceSerialNumber": "167006",
  "DwellTime": 2.1e-06,
  "EchoTime": 0.037,
  "EchoTrainLength": 104,
  "EffectiveEchoSpacing": 0.000560011,
  "FlipAngle": 52,
  "ImageComments": "Unaliased_MB4_PE3_LB",
  "ImageOrientationPatientDICOM": [0.999423, -0.0338243, 0.00321073, 0.0312336, 0.877434, -0.478679],
  "ImageType": [
    "ORIGINAL",
    "PRIMARY",
    "M",
    "MB",
    "ND",
    "MOSAIC"
],
  "ImagingFrequency": 123.259,
  "InPlanePhaseEncodingDirectionDICOM": "COL",
  "InstitutionAddress": "Chemin_Queen-Mary_4565_Montreal_District_CA_H3W_1W5",
  "InstitutionName": "IUGM",
  "InstitutionalDepartmentName": "Department",
  "MRAcquisitionType": "2D",
  "MagneticFieldStrength": 3,
  "Manufacturer": "Siemens",
  "ManufacturersModelName": "Prisma_fit",
  "Modality": "MR",
  "MultibandAccelerationFactor": 4,
  "PartialFourier": 1,
  "PatientPosition": "HFS",
  "PercentPhaseFOV": 100,
  "PhaseEncodingDirection": "j",
  "PhaseEncodingSteps": 104,
  "PhaseResolution": 1,
  "PixelBandwidth": 2290,
  "ProcedureStepDescription": "hcptrt_generic",
  "ProtocolName": "func_task-restingstate_run-1",
  "PulseSequenceDetails": "%CustomerSeq%_cmrr_mbep2d_bold",
  "ReceiveCoilActiveElements": "HC1-7;NC1,2",
  "ReceiveCoilName": "HeadNeck_64",
  "ReconMatrixPE": 104,
  "RepetitionTime": 1.49,
  "SAR": 0.0385221,
  "ScanOptions": "FS",
  "ScanningSequence": "EP",
  "SequenceName": "epfid2d1_104",
  "SequenceVariant": "SK_SS",
  "SeriesDescription": "func_task-restingstate_run-1",
  "SeriesNumber": 7,
  "ShimSetting": [622, -7195, -8874, 404, -42, -144, 43, -41],
  "SliceThickness": 2,
  "SliceTiming": [0, 0.7825, 0.0975, 0.88, 0.195, 0.98, 0.2925, 1.0775, 0.3925, 1.175, 0.49, 1.2725, 0.5875, 1.37, 0.685, 0, 0.7825, 0.0975, 0.88, 0.195, 0.98, 0.2925, 1.0775, 0.3925, 1.175, 0.49, 1.2725, 0.5875, 1.37, 0.685, 0, 0.7825, 0.0975, 0.88, 0.195, 0.98, 0.2925, 1.0775, 0.3925, 1.175, 0.49, 1.2725, 0.5875, 1.37, 0.685, 0, 0.7825, 0.0975, 0.88, 0.195, 0.98, 0.2925, 1.0775, 0.3925, 1.175, 0.49, 1.2725, 0.5875, 1.37, 0.685],
  "SoftwareVersions": "syngo_MR_E11",
  "SpacingBetweenSlices": 2,
  "StationName": "MRC35049",
  "TaskName": "restingstate",
  "TotalReadoutTime": 0.0576811,
  "TxRefAmp": 248.686,
  "WipMemBlock": "c604b452-bf8e-4610-9807-9e777ebe9519||Sequence: R016 ve11c/master r/e634e98; Dec 19 2017 11:00:25 by eja",
  "dcmmeta_affine": [
    [-1.9988452196121216, 0.06246715039014816, -0.026747578755021095, 100.2828598022461],
    [0.06764867156744003, 1.7548686265945435, -0.9570056200027466, -65.02344512939453],
    [0.006421463564038277, 0.9573578238487244, 1.7559683322906494, -95.5630111694336],
    [0.0, 0.0, 0.0, 1.0]
],
  "dcmmeta_reorient_transform": [
    [0.0, -1.0, 0.0, 103.0],
    [1.0, 0.0, 0.0, 0.0],
    [0.0, 0.0, 1.0, 0.0],
    [0.0, 0.0, 0.0, 1.0]
],
  "dcmmeta_shape": [104, 104, 60, 600],
  "dcmmeta_slice_dim": 2,
  "dcmmeta_version": 0.6,
  "global": {
    "const": {
      "AcquisitionMatrix": [104, 0, 0, 104],
      "AngioFlag": "N",
      "BitsAllocated": 16,
      "BitsStored": 16,
      "BodyPartExamined": "BRAIN",
      "Columns": 832,
      "EchoNumbers": 1,
      "EchoTime": 37.0,
      "EchoTrainLength": 104,
      "FlipAngle": 52.0,
      "HighBit": 15,
      "ImageOrientationPatient": [0.99942263611664, -0.0338243347222, 0.00321073173247, 0.03123357454608, 0.87743431198565, -0.4786789027849],
      "ImagePositionPatient": [-857.03469754463, -729.87608721904, 349.18567157489],
      "ImageType": [
        "ORIGINAL",
        "PRIMARY",
        "M",
        "MB",
        "ND",
        "MOSAIC"
],
      "ImagedNucleus": "1H",
      "ImagingFrequency": 123.259289,
      "InPlanePhaseEncodingDirection": "COL",
      "MRAcquisitionType": "2D",
      "MagneticFieldStrength": 3.0,
      "Manufacturer": "SIEMENS",
      "ManufacturerModelName": "Prisma_fit",
      "Modality": "MR",
      "NumberOfAverages": 1.0,
      "NumberOfPhaseEncodingSteps": 104,
      "PercentPhaseFieldOfView": 100.0,
      "PercentSampling": 100.0,
      "PerformedProcedureStepStartTime": "093311.141000",
      "PhotometricInterpretation": "MONOCHROME2",
      "PixelBandwidth": 2290.0,
      "PixelRepresentation": 0,
      "PixelSpacing": [2.0, 2.0],
      "ProtocolName": "func_task-restingstate_run-1",
      "RepetitionTime": 1490.0,
      "Rows": 832,
      "SAR": 0.03852210729028,
      "SamplesPerPixel": 1,
      "ScanOptions": "FS",
      "ScanningSequence": "EP",
      "SequenceName": "epfid2d1_104",
      "SequenceVariant": [
        "SK",
        "SS"
],
      "SeriesDescription": "func_task-restingstate_run-1",
      "SeriesNumber": 7,
      "SeriesTime": "094718.143000",
      "SliceLocation": -54.130071333157,
      "SliceThickness": 2.0,
      "SmallestImagePixelValue": 0,
      "SoftwareVersions": "syngo MR E11",
      "SpacingBetweenSlices": 1.9999999948825,
      "SpecificCharacterSet": "ISO_IR 100",
      "StudyID": "1",
      "StudyTime": "093311.041000",
      "TransmitCoilName": "Body",
      "VariableFlipAngleFlag": "N",
      "WindowCenterWidthExplanation": "Algo1",
      "dBdt": 0.0},
    "slices": {}
  },
  "time": {
    "samples": {
      "AcquisitionNumber": [1, 2, 3, 4, 5, 6, 7, 8, 9, 10, 11, 12, 13, 14, 15, 16, 17, 18, 19, 20, 21, 22, 23, 24, 25, 26, 27, 28, 29, 30, 31, 32, 33, 34, 35, 36, 37, 38, 39, 40, 41, 42, 43, 44, 45, 46, 47, 48, 49, 50, 51, 52, 53, 54, 55, 56, 57, 58, 59, 60, 61, 62, 63, 64, 65, 66, 67, 68, 69, 70, 71, 72, 73, 74, 75, 76, 77, 78, 79, 80, 81, 82, 83, 84, 85, 86, 87, 88, 89, 90, 91, 92, 93, 94, 95, 96, 97, 98, 99, 100, 101, 102, 103, 104, 105, 106, 107, 108, 109, 110, 111, 112, 113, 114, 115, 116, 117, 118, 119, 120, 121, 122, 123, 124, 125, 126, 127, 128, 129, 130, 131, 132, 133, 134, 135, 136, 137, 138, 139, 140, 141, 142, 143, 144, 145, 146, 147, 148, 149, 150, 151, 152, 153, 154, 155, 156, 157, 158, 159, 160, 161, 162, 163, 164, 165, 166, 167, 168, 169, 170, 171, 172, 173, 174, 175, 176, 177, 178, 179, 180, 181, 182, 183, 184, 185, 186, 187, 188, 189, 190, 191, 192, 193, 194, 195, 196, 197, 198, 199, 200, 201, 202, 203, 204, 205, 206, 207, 208, 209, 210, 211, 212, 213, 214, 215, 216, 217, 218, 219, 220, 221, 222, 223, 224, 225, 226, 227, 228, 229, 230, 231, 232, 233, 234, 235, 236, 237, 238, 239, 240, 241, 242, 243, 244, 245, 246, 247, 248, 249, 250, 251, 252, 253, 254, 255, 256, 257, 258, 259, 260, 261, 262, 263, 264, 265, 266, 267, 268, 269, 270, 271, 272, 273, 274, 275, 276, 277, 278, 279, 280, 281, 282, 283, 284, 285, 286, 287, 288, 289, 290, 291, 292, 293, 294, 295, 296, 297, 298, 299, 300, 301, 302, 303, 304, 305, 306, 307, 308, 309, 310, 311, 312, 313, 314, 315, 316, 317, 318, 319, 320, 321, 322, 323, 324, 325, 326, 327, 328, 329, 330, 331, 332, 333, 334, 335, 336, 337, 338, 339, 340, 341, 342, 343, 344, 345, 346, 347, 348, 349, 350, 351, 352, 353, 354, 355, 356, 357, 358, 359, 360, 361, 362, 363, 364, 365, 366, 367, 368, 369, 370, 371, 372, 373, 374, 375, 376, 377, 378, 379, 380, 381, 382, 383, 384, 385, 386, 387, 388, 389, 390, 391, 392, 393, 394, 395, 396, 397, 398, 399, 400, 401, 402, 403, 404, 405, 406, 407, 408, 409, 410, 411, 412, 413, 414, 415, 416, 417, 418, 419, 420, 421, 422, 423, 424, 425, 426, 427, 428, 429, 430, 431, 432, 433, 434, 435, 436, 437, 438, 439, 440, 441, 442, 443, 444, 445, 446, 447, 448, 449, 450, 451, 452, 453, 454, 455, 456, 457, 458, 459, 460, 461, 462, 463, 464, 465, 466, 467, 468, 469, 470, 471, 472, 473, 474, 475, 476, 477, 478, 479, 480, 481, 482, 483, 484, 485, 486, 487, 488, 489, 490, 491, 492, 493, 494, 495, 496, 497, 498, 499, 500, 501, 502, 503, 504, 505, 506, 507, 508, 509, 510, 511, 512, 513, 514, 515, 516, 517, 518, 519, 520, 521, 522, 523, 524, 525, 526, 527, 528, 529, 530, 531, 532, 533, 534, 535, 536, 537, 538, 539, 540, 541, 542, 543, 544, 545, 546, 547, 548, 549, 550, 551, 552, 553, 554, 555, 556, 557, 558, 559, 560, 561, 562, 563, 564, 565, 566, 567, 568, 569, 570, 571, 572, 573, 574, 575, 576, 577, 578, 579, 580, 581, 582, 583, 584, 585, 586, 587, 588, 589, 590, 591, 592, 593, 594, 595, 596, 597, 598, 599, 600],
      "AcquisitionTime": ["094603.482500", "094604.972500", "094606.462500", "094607.952500", "094609.442500", "094610.932500", "094612.422500", "094613.912500", "094615.402500", "094616.892500", "094618.382500", "094619.872500", "094621.362500", "094622.852500", "094624.342500", "094625.832500", "094627.322500", "094628.812500", "094630.302500", "094631.792500", "094633.282500", "094634.772500", "094636.262500", "094637.752500", "094639.242500", "094640.732500", "094642.222500", "094643.712500", "094645.202500", "094646.692500", "094648.182500", "094649.672500", "094651.162500", "094652.652500", "094654.142500", "094655.632500", "094657.122500", "094658.612500", "094700.102500", "094701.592500", "094703.082500", "094704.572500", "094706.062500", "094707.552500", "094709.042500", "094710.532500", "094712.022500", "094713.512500", "094715.002500", "094716.492500", "094717.982500", "094719.472500", "094720.962500", "094722.452500", "094723.942500", "094725.432500", "094726.922500", "094728.412500", "094729.902500", "094731.392500", "094732.882500", "094734.372500", "094735.862500", "094737.352500", "094738.842500", "094740.332500", "094741.822500", "094743.312500", "094744.802500", "094746.292500", "094747.782500", "094749.272500", "094750.762500", "094752.252500", "094753.742500", "094755.232500", "094756.722500", "094758.212500", "094759.702500", "094801.192500", "094802.682500", "094804.172500", "094805.662500", "094807.152500", "094808.642500", "094810.132500", "094811.622500", "094813.112500", "094814.602500", "094816.092500", "094817.582500", "094819.072500", "094820.562500", "094822.052500", "094823.542500", "094825.032500", "094826.522500", "094828.012500", "094829.502500", "094830.992500", "094832.482500", "094833.972500", "094835.462500", "094836.952500", "094838.442500", "094839.932500", "094841.422500", "094842.912500", "094844.402500", "094845.892500", "094847.382500", "094848.872500", "094850.362500", "094851.852500", "094853.342500", "094854.832500", "094856.322500", "094857.812500", "094859.302500", "094900.792500", "094902.282500", "094903.772500", "094905.262500", "094906.752500", "094908.242500", "094909.732500", "094911.222500", "094912.712500", "094914.202500", "094915.692500", "094917.182500", "094918.672500", "094920.162500", "094921.652500", "094923.142500", "094924.632500", "094926.122500", "094927.612500", "094929.102500", "094930.592500", "094932.082500", "094933.572500", "094935.062500", "094936.552500", "094938.042500", "094939.532500", "094941.022500", "094942.512500", "094944.002500", "094945.492500", "094946.982500", "094948.472500", "094949.962500", "094951.452500", "094952.942500", "094954.432500", "094955.922500", "094957.412500", "094958.902500", "095000.392500", "095001.882500", "095003.372500", "095004.862500", "095006.352500", "095007.842500", "095009.332500", "095010.822500", "095012.312500", "095013.802500", "095015.292500", "095016.782500", "095018.272500", "095019.762500", "095021.252500", "095022.742500", "095024.232500", "095025.722500", "095027.212500", "095028.702500", "095030.192500", "095031.682500", "095033.172500", "095034.662500", "095036.152500", "095037.642500", "095039.132500", "095040.622500", "095042.112500", "095043.602500", "095045.092500", "095046.582500", "095048.072500", "095049.562500", "095051.052500", "095052.542500", "095054.032500", "095055.522500", "095057.012500", "095058.502500", "095059.992500", "095101.482500", "095102.972500", "095104.462500", "095105.952500", "095107.442500", "095108.932500", "095110.422500", "095111.912500", "095113.402500", "095114.892500", "095116.382500", "095117.872500", "095119.362500", "095120.852500", "095122.342500", "095123.832500", "095125.322500", "095126.812500", "095128.302500", "095129.792500", "095131.282500", "095132.772500", "095134.262500", "095135.752500", "095137.242500", "095138.732500", "095140.222500", "095141.712500", "095143.202500", "095144.692500", "095146.182500", "095147.672500", "095149.162500", "095150.652500", "095152.142500", "095153.632500", "095155.122500", "095156.612500", "095158.102500", "095159.592500", "095201.082500", "095202.572500", "095204.062500", "095205.552500", "095207.042500", "095208.532500", "095210.022500", "095211.512500", "095213.002500", "095214.492500", "095215.982500", "095217.472500", "095218.962500", "095220.452500", "095221.942500", "095223.432500", "095224.922500", "095226.412500", "095227.902500", "095229.392500", "095230.882500", "095232.372500", "095233.862500", "095235.352500", "095236.842500", "095238.332500", "095239.822500", "095241.312500", "095242.802500", "095244.292500", "095245.782500", "095247.272500", "095248.762500", "095250.252500", "095251.742500", "095253.232500", "095254.722500", "095256.212500", "095257.702500", "095259.192500", "095300.682500", "095302.172500", "095303.662500", "095305.152500", "095306.642500", "095308.132500", "095309.622500", "095311.112500", "095312.602500", "095314.092500", "095315.582500", "095317.072500", "095318.562500", "095320.052500", "095321.542500", "095323.032500", "095324.522500", "095326.012500", "095327.502500", "095328.992500", "095330.482500", "095331.972500", "095333.462500", "095334.952500", "095336.442500", "095337.932500", "095339.422500", "095340.912500", "095342.402500", "095343.892500", "095345.382500", "095346.872500", "095348.362500", "095349.852500", "095351.342500", "095352.832500", "095354.322500", "095355.812500", "095357.302500", "095358.792500", "095400.282500", "095401.772500", "095403.262500", "095404.752500", "095406.242500", "095407.732500", "095409.222500", "095410.712500", "095412.202500", "095413.692500", "095415.182500", "095416.672500", "095418.162500", "095419.652500", "095421.142500", "095422.632500", "095424.122500", "095425.612500", "095427.102500", "095428.592500", "095430.082500", "095431.572500", "095433.062500", "095434.552500", "095436.042500", "095437.532500", "095439.022500", "095440.512500", "095442.002500", "095443.492500", "095444.982500", "095446.472500", "095447.962500", "095449.452500", "095450.942500", "095452.432500", "095453.922500", "095455.412500", "095456.902500", "095458.392500", "095459.882500", "095501.372500", "095502.862500", "095504.352500", "095505.842500", "095507.332500", "095508.822500", "095510.312500", "095511.802500", "095513.292500", "095514.782500", "095516.272500", "095517.762500", "095519.252500", "095520.742500", "095522.232500", "095523.722500", "095525.212500", "095526.702500", "095528.192500", "095529.682500", "095531.172500", "095532.662500", "095534.152500", "095535.642500", "095537.132500", "095538.622500", "095540.112500", "095541.602500", "095543.092500", "095544.582500", "095546.072500", "095547.562500", "095549.052500", "095550.542500", "095552.032500", "095553.522500", "095555.012500", "095556.502500", "095557.992500", "095559.482500", "095600.972500", "095602.462500", "095603.952500", "095605.442500", "095606.932500", "095608.422500", "095609.912500", "095611.402500", "095612.892500", "095614.382500", "095615.872500", "095617.362500", "095618.852500", "095620.342500", "095621.832500", "095623.322500", "095624.812500", "095626.302500", "095627.792500", "095629.282500", "095630.772500", "095632.262500", "095633.752500", "095635.242500", "095636.732500", "095638.222500", "095639.712500", "095641.202500", "095642.692500", "095644.182500", "095645.672500", "095647.162500", "095648.652500", "095650.142500", "095651.632500", "095653.122500", "095654.612500", "095656.102500", "095657.592500", "095659.082500", "095700.572500", "095702.062500", "095703.552500", "095705.042500", "095706.532500", "095708.022500", "095709.512500", "095711.002500", "095712.492500", "095713.982500", "095715.472500", "095716.962500", "095718.452500", "095719.942500", "095721.432500", "095722.922500", "095724.412500", "095725.902500", "095727.392500", "095728.882500", "095730.372500", "095731.862500", "095733.352500", "095734.842500", "095736.332500", "095737.822500", "095739.312500", "095740.802500", "095742.292500", "095743.782500", "095745.272500", "095746.762500", "095748.252500", "095749.742500", "095751.232500", "095752.722500", "095754.212500", "095755.702500", "095757.192500", "095758.682500", "095800.172500", "095801.662500", "095803.152500", "095804.642500", "095806.132500", "095807.622500", "095809.112500", "095810.602500", "095812.092500", "095813.582500", "095815.072500", "095816.562500", "095818.052500", "095819.542500", "095821.032500", "095822.522500", "095824.012500", "095825.502500", "095826.992500", "095828.482500", "095829.972500", "095831.462500", "095832.952500", "095834.442500", "095835.932500", "095837.422500", "095838.912500", "095840.402500", "095841.892500", "095843.382500", "095844.872500", "095846.362500", "095847.852500", "095849.342500", "095850.832500", "095852.322500", "095853.812500", "095855.302500", "095856.792500", "095858.282500", "095859.772500", "095901.262500", "095902.752500", "095904.242500", "095905.732500", "095907.222500", "095908.712500", "095910.202500", "095911.692500", "095913.182500", "095914.672500", "095916.162500", "095917.652500", "095919.142500", "095920.632500", "095922.122500", "095923.612500", "095925.102500", "095926.592500", "095928.082500", "095929.572500", "095931.062500", "095932.552500", "095934.042500", "095935.532500", "095937.022500", "095938.512500", "095940.002500", "095941.492500", "095942.982500", "095944.472500", "095945.962500", "095947.452500", "095948.942500", "095950.432500", "095951.922500", "095953.412500", "095954.902500", "095956.392500", "095957.882500", "095959.372500", "100000.862500", "100002.352500", "100003.842500", "100005.332500", "100006.822500", "100008.312500", "100009.802500", "100011.292500", "100012.782500", "100014.272500", "100015.762500", "100017.252500", "100018.742500", "100020.232500", "100021.722500", "100023.212500", "100024.702500", "100026.192500", "100027.682500", "100029.172500", "100030.662500", "100032.152500", "100033.642500", "100035.132500", "100036.622500", "100038.112500", "100039.602500", "100041.092500", "100042.582500", "100044.072500", "100045.562500", "100047.052500", "100048.542500", "100050.032500", "100051.522500", "100053.012500", "100054.502500", "100055.992500"],
      "ContentTime": ["094718.145000", "094718.149000", "094718.152000", "094718.154000", "094718.162000", "094718.165000", "094718.168000", "094718.171000", "094718.176000", "094718.179000", "094718.182000", "094718.185000", "094718.188000", "094718.191000", "094718.193000", "094718.196000", "094718.212000", "094718.215000", "094718.218000", "094718.221000", "094718.230000", "094738.107000", "094738.112000", "094738.115000", "094738.118000", "094738.121000", "094738.124000", "094738.127000", "094738.130000", "094738.133000", "094738.136000", "094738.139000", "094738.142000", "094738.145000", "094738.149000", "094738.155000", "094738.158000", "094738.161000", "094738.164000", "094738.167000", "094738.170000", "094758.106000", "094758.109000", "094758.112000", "094758.120000", "094758.123000", "094758.126000", "094758.128000", "094758.131000", "094758.134000", "094758.137000", "094758.140000", "094758.143000", "094758.145000", "094758.149000", "094758.152000", "094758.155000", "094758.157000", "094758.160000", "094758.163000", "094758.166000", "094818.106000", "094818.109000", "094818.112000", "094818.132000", "094818.135000", "094818.138000", "094818.141000", "094818.144000", "094818.146000", "094818.149000", "094818.152000", "094818.155000", "094818.158000", "094818.161000", "094818.163000", "094818.166000", "094818.169000", "094818.172000", "094818.175000", "094818.178000", "094818.180000", "094838.106000", "094838.109000", "094838.112000", "094838.115000", "094838.118000", "094838.120000", "094838.123000", "094838.126000", "094838.129000", "094838.132000", "094838.135000", "094838.138000", "094838.140000", "094838.143000", "094838.146000", "094838.149000", "094838.152000", "094838.155000", "094838.158000", "094838.160000", "094918.107000", "094918.110000", "094918.113000", "094918.116000", "094918.125000", "094918.128000", "094918.131000", "094918.134000", "094918.137000", "094918.139000", "094918.142000", "094918.145000", "094918.148000", "094918.151000", "094918.154000", "094918.169000", "094918.172000", "094918.175000", "094918.178000", "094918.181000", "094918.184000", "094918.187000", "094918.189000", "094918.192000", "094918.201000", "094918.204000", "094918.207000", "094918.210000", "094958.106000", "094958.109000", "094958.112000", "094958.115000", "094958.118000", "094958.121000", "094958.124000", "094958.127000", "094958.130000", "094958.133000", "094958.136000", "094958.139000", "094958.142000", "094958.145000", "094958.148000", "094958.151000", "094958.155000", "094958.158000", "094958.161000", "094958.164000", "094958.167000", "094958.169000", "094958.172000", "094958.175000", "094958.179000", "094958.182000", "094958.185000", "095038.106000", "095038.109000", "095038.112000", "095038.115000", "095038.118000", "095038.121000", "095038.124000", "095038.127000", "095038.129000", "095038.132000", "095038.135000", "095038.139000", "095038.141000", "095038.145000", "095038.148000", "095038.151000", "095038.154000", "095038.157000", "095038.160000", "095038.163000", "095038.166000", "095038.170000", "095038.173000", "095038.176000", "095038.179000", "095038.182000", "095058.106000", "095058.109000", "095058.112000", "095058.115000", "095058.118000", "095058.121000", "095058.124000", "095058.127000", "095058.129000", "095058.132000", "095058.145000", "095058.147000", "095058.150000", "095058.153000", "095138.107000", "095138.110000", "095138.113000", "095138.121000", "095138.124000", "095138.127000", "095138.130000", "095138.133000", "095138.135000", "095138.138000", "095138.141000", "095138.144000", "095138.147000", "095138.156000", "095138.159000", "095138.162000", "095138.164000", "095138.167000", "095138.170000", "095138.173000", "095138.176000", "095138.179000", "095138.182000", "095138.190000", "095138.193000", "095138.196000", "095138.199000", "095218.106000", "095218.109000", "095218.112000", "095218.115000", "095218.118000", "095218.121000", "095218.124000", "095218.127000", "095218.130000", "095218.133000", "095218.136000", "095218.139000", "095218.150000", "095218.153000", "095218.156000", "095218.159000", "095218.162000", "095218.165000", "095218.167000", "095218.170000", "095218.173000", "095218.176000", "095218.179000", "095218.182000", "095218.185000", "095218.188000", "095218.191000", "095258.106000", "095258.114000", "095258.117000", "095258.120000", "095258.123000", "095258.126000", "095258.129000", "095258.132000", "095258.135000", "095258.138000", "095258.141000", "095258.144000", "095258.147000", "095258.149000", "095258.152000", "095258.155000", "095258.158000", "095258.161000", "095258.164000", "095258.167000", "095258.170000", "095258.173000", "095258.175000", "095258.178000", "095258.181000", "095258.184000", "095338.107000", "095338.111000", "095338.114000", "095338.117000", "095338.120000", "095338.123000", "095338.126000", "095338.130000", "095338.133000", "095338.137000", "095338.140000", "095338.153000", "095338.155000", "095338.158000", "095338.161000", "095338.164000", "095338.167000", "095338.170000", "095338.173000", "095338.176000", "095338.179000", "095338.183000", "095338.186000", "095338.190000", "095338.193000", "095338.196000", "095338.199000", "095418.107000", "095418.110000", "095418.122000", "095418.125000", "095418.128000", "095418.131000", "095418.134000", "095418.137000", "095418.139000", "095418.142000", "095418.145000", "095418.148000", "095418.151000", "095418.154000", "095418.157000", "095418.160000", "095418.163000", "095418.166000", "095418.169000", "095418.172000", "095418.174000", "095418.177000", "095418.180000", "095418.183000", "095418.186000", "095418.189000", "095418.192000", "095458.106000", "095458.109000", "095458.112000", "095458.115000", "095458.118000", "095458.121000", "095458.124000", "095458.127000", "095458.130000", "095458.132000", "095458.136000", "095458.138000", "095458.141000", "095458.144000", "095458.147000", "095458.150000", "095458.153000", "095458.155000", "095458.158000", "095458.161000", "095458.164000", "095458.167000", "095458.170000", "095458.173000", "095458.176000", "095458.179000", "095458.181000", "095538.106000", "095538.109000", "095538.112000", "095538.115000", "095538.118000", "095538.121000", "095538.124000", "095538.143000", "095538.146000", "095538.149000", "095538.152000", "095538.155000", "095538.158000", "095538.161000", "095538.164000", "095538.167000", "095538.169000", "095538.172000", "095538.175000", "095538.178000", "095538.181000", "095538.184000", "095538.187000", "095538.190000", "095538.193000", "095538.196000", "095538.198000", "095618.107000", "095618.110000", "095618.113000", "095618.116000", "095618.119000", "095618.122000", "095618.125000", "095618.128000", "095618.131000", "095618.133000", "095618.136000", "095618.139000", "095618.142000", "095618.145000", "095618.148000", "095618.151000", "095618.154000", "095618.157000", "095618.160000", "095618.163000", "095618.165000", "095618.168000", "095618.171000", "095618.174000", "095618.177000", "095618.180000", "095618.183000", "095658.106000", "095658.109000", "095658.112000", "095658.115000", "095658.118000", "095658.121000", "095658.124000", "095658.127000", "095658.130000", "095658.133000", "095658.136000", "095658.139000", "095658.142000", "095658.144000", "095658.147000", "095658.150000", "095658.153000", "095658.156000", "095658.159000", "095658.162000", "095658.165000", "095658.168000", "095658.171000", "095658.174000", "095658.177000", "095658.180000", "095658.182000", "095738.106000", "095738.109000", "095738.112000", "095738.115000", "095738.118000", "095738.121000", "095738.124000", "095738.127000", "095738.130000", "095738.140000", "095738.143000", "095738.146000", "095738.149000", "095738.152000", "095738.155000", "095738.157000", "095738.160000", "095738.163000", "095738.166000", "095738.169000", "095738.172000", "095738.175000", "095738.178000", "095738.181000", "095738.184000", "095738.188000", "095818.107000", "095818.110000", "095818.113000", "095818.116000", "095818.119000", "095818.122000", "095818.125000", "095818.128000", "095818.131000", "095818.134000", "095818.137000", "095818.139000", "095818.142000", "095818.145000", "095818.148000", "095818.151000", "095818.154000", "095818.157000", "095818.160000", "095818.163000", "095818.166000", "095818.169000", "095818.172000", "095818.175000", "095818.178000", "095818.181000", "095818.183000", "095858.107000", "095858.110000", "095858.113000", "095858.116000", "095858.119000", "095858.122000", "095858.134000", "095858.137000", "095858.140000", "095858.143000", "095858.146000", "095858.148000", "095858.151000", "095858.154000", "095858.157000", "095858.160000", "095858.163000", "095858.166000", "095858.169000", "095858.171000", "095858.174000", "095858.177000", "095858.180000", "095858.183000", "095858.186000", "095858.189000", "095858.192000", "095938.106000", "095938.109000", "095938.112000", "095938.115000", "095938.118000", "095938.121000", "095938.124000", "095938.127000", "095938.130000", "095938.132000", "095938.135000", "095938.138000", "095938.141000", "095938.144000", "095938.147000", "095938.150000", "095938.153000", "095938.156000", "095938.159000", "095938.162000", "095938.165000", "095938.168000", "095938.171000", "095938.173000", "095938.176000", "095938.179000", "095938.182000", "100018.106000", "100018.109000", "100018.112000", "100018.115000", "100018.118000", "100018.121000", "100018.124000", "100018.127000", "100018.130000", "100018.133000", "100018.135000", "100018.138000", "100018.141000", "100018.144000", "100018.147000", "100018.150000", "100018.153000", "100018.156000", "100018.159000", "100018.162000", "100018.165000", "100018.168000", "100018.171000", "100018.174000", "100018.176000", "100018.179000", "100018.182000", "100058.035000", "100058.041000", "100058.044000", "100058.048000", "100058.062000", "100058.067000", "100058.071000", "100058.074000", "100058.078000", "100058.082000", "100058.085000", "100058.089000", "100058.101000", "100058.107000", "100058.110000", "100058.113000", "100058.116000", "100058.119000", "100058.122000", "100058.125000", "100058.129000", "100058.132000", "100058.135000", "100058.138000", "100058.141000", "100058.144000", "100058.148000"],
