{
  "AcquisitionMatrixPE": 104,
  "AcquisitionNumber": 1,
  "AcquisitionTime": "15:14:38.552500",
  "BandwidthPerPixelPhaseEncode": 17.17,
  "BaseResolution": 104,
  "BodyPartExamined": "BRAIN",
  "CoilString": "HC1-7;NC1_2",
  "ConsistencyInfo": "N4_VE11C_LATEST_20160120",
  "ConversionSoftware": "dcm2niix",
  "ConversionSoftwareVersion": "v1.0.20190720  (JP2:OpenJPEG) GCC7.3.0",
  "DerivedVendorReportedEchoSpacing": 0.000560011,
  "DeviceSerialNumber": "167006",
  "DwellTime": 2.1e-06,
  "EchoTime": 0.037,
  "EchoTrainLength": 104,
  "EffectiveEchoSpacing": 0.000560011,
  "FlipAngle": 52,
  "ImageComments": "Unaliased_MB4_PE3_LB",
  "ImageOrientationPatientDICOM": [0.999939, -0.00858964, -0.00689652, 0.00558479, 0.93495, -0.354735],
  "ImageType": [
    "ORIGINAL",
    "PRIMARY",
    "M",
    "MB",
    "ND",
    "MOSAIC"
],
  "ImagingFrequency": 123.259,
  "InPlanePhaseEncodingDirectionDICOM": "COL",
  "InstitutionAddress": "Chemin_Queen-Mary_4565_Montreal_District_CA_H3W_1W5",
  "InstitutionName": "IUGM",
  "InstitutionalDepartmentName": "Department",
  "MRAcquisitionType": "2D",
  "MagneticFieldStrength": 3,
  "Manufacturer": "Siemens",
  "ManufacturersModelName": "Prisma_fit",
  "Modality": "MR",
  "MultibandAccelerationFactor": 4,
  "PartialFourier": 1,
  "PatientPosition": "HFS",
  "PercentPhaseFOV": 100,
  "PhaseEncodingDirection": "j",
  "PhaseEncodingSteps": 104,
  "PhaseResolution": 1,
  "PixelBandwidth": 2290,
  "ProcedureStepDescription": "neuromod_scans",
  "ProtocolName": "func_task-motor_run-2",
  "PulseSequenceDetails": "%CustomerSeq%_cmrr_mbep2d_bold",
  "ReceiveCoilActiveElements": "HC1-7;NC1,2",
  "ReceiveCoilName": "HeadNeck_64",
  "ReconMatrixPE": 104,
  "RepetitionTime": 1.49,
  "SAR": 0.0291497,
  "ScanOptions": "FS",
  "ScanningSequence": "EP",
  "SequenceName": "epfid2d1_104",
  "SequenceVariant": "SK_SS",
  "SeriesDescription": "func_task-motor_run-2",
  "SeriesNumber": 23,
  "ShimSetting": [639, -7148, -8799, 648, 54, 148, -43, 7],
  "SliceThickness": 2,
  "SliceTiming": [0, 0.785, 0.0975, 0.8825, 0.195, 0.98, 0.295, 1.0775, 0.3925, 1.175, 0.49, 1.275, 0.5875, 1.3725, 0.685, 0, 0.785, 0.0975, 0.8825, 0.195, 0.98, 0.295, 1.0775, 0.3925, 1.175, 0.49, 1.275, 0.5875, 1.3725, 0.685, 0, 0.785, 0.0975, 0.8825, 0.195, 0.98, 0.295, 1.0775, 0.3925, 1.175, 0.49, 1.275, 0.5875, 1.3725, 0.685, 0, 0.785, 0.0975, 0.8825, 0.195, 0.98, 0.295, 1.0775, 0.3925, 1.175, 0.49, 1.275, 0.5875, 1.3725, 0.685],
  "SoftwareVersions": "syngo_MR_E11",
  "SpacingBetweenSlices": 2,
  "StationName": "MRC35049",
  "TaskName": "motor",
  "TotalReadoutTime": 0.0576811,
  "TxRefAmp": 209.094,
  "WipMemBlock": "45856c66-02ef-4956-a9b5-899448e22f6a||Sequence: R016 ve11c/master r/e634e98; Dec 19 2017 11:00:25 by eja",
  "dcmmeta_affine": [
    [-1.9998786449432373, 0.011169579811394215, -0.018989894539117813, 108.24323272705078],
    [0.017179280519485474, 1.8699004650115967, -0.7093497514724731, -67.34629821777344],
    [-0.013793036341667175, 0.7094697952270508, 1.8698830604553223, -65.08641815185547],
    [0.0, 0.0, 0.0, 1.0]
],
  "dcmmeta_reorient_transform": [
    [0.0, -1.0, 0.0, 103.0],
    [1.0, 0.0, 0.0, 0.0],
    [0.0, 0.0, 1.0, 0.0],
    [0.0, 0.0, 0.0, 1.0]
],
  "dcmmeta_shape": [104, 104, 60, 144],
  "dcmmeta_slice_dim": 2,
  "dcmmeta_version": 0.6,
  "global": {
    "const": {
      "AcquisitionMatrix": [104, 0, 0, 104],
      "AngioFlag": "N",
      "BitsAllocated": 16,
      "BitsStored": 16,
      "BodyPartExamined": "BRAIN",
      "Columns": 832,
      "EchoNumbers": 1,
      "EchoTime": 37.0,
      "EchoTrainLength": 104,
      "FlipAngle": 52.0,
      "HighBit": 15,
      "ImageOrientationPatient": [0.99993932621415, -0.0085896405944, -0.006896518314, 0.00558478971236, 0.93495024576292, -0.3547348982997],
      "ImagePositionPatient": [-841.41525686037, -799.64397456527, 271.25663969376],
      "ImageType": [
        "ORIGINAL",
        "PRIMARY",
        "M",
        "MB",
        "ND",
        "MOSAIC"
],
      "ImagedNucleus": "1H",
      "ImagingFrequency": 123.259381,
      "InPlanePhaseEncodingDirection": "COL",
      "MRAcquisitionType": "2D",
      "MagneticFieldStrength": 3.0,
      "Manufacturer": "SIEMENS",
      "ManufacturerModelName": "Prisma_fit",
      "Modality": "MR",
      "NumberOfAverages": 1.0,
      "NumberOfPhaseEncodingSteps": 104,
      "PercentPhaseFieldOfView": 100.0,
      "PercentSampling": 100.0,
      "PerformedProcedureStepStartTime": "140940.490000",
      "PhotometricInterpretation": "MONOCHROME2",
      "PixelBandwidth": 2290.0,
      "PixelRepresentation": 0,
      "PixelSpacing": [2.0, 2.0],
      "ProtocolName": "func_task-motor_run-2",
      "RepetitionTime": 1490.0,
      "Rows": 832,
      "SAR": 0.02914969262947,
      "SamplesPerPixel": 1,
      "ScanOptions": "FS",
      "ScanningSequence": "EP",
      "SequenceName": "epfid2d1_104",
      "SequenceVariant": [
        "SK",
        "SS"
],
      "SeriesDescription": "func_task-motor_run-2",
      "SeriesNumber": 23,
      "SeriesTime": "151603.637000",
      "SliceLocation": -37.993720554952,
      "SliceThickness": 2.0,
      "SmallestImagePixelValue": 0,
      "SoftwareVersions": "syngo MR E11",
      "SpacingBetweenSlices": 2.0000000499686,
      "SpecificCharacterSet": "ISO_IR 100",
      "StudyID": "1",
      "StudyTime": "140940.433000",
      "TransmitCoilName": "Body",
      "VariableFlipAngleFlag": "N",
      "WindowCenterWidthExplanation": "Algo1",
      "dBdt": 0.0},
    "slices": {}
  },
  "time": {
    "samples": {
      "AcquisitionNumber": [1, 2, 3, 4, 5, 6, 7, 8, 9, 10, 11, 12, 13, 14, 15, 16, 17, 18, 19, 20, 21, 22, 23, 24, 25, 26, 27, 28, 29, 30, 31, 32, 33, 34, 35, 36, 37, 38, 39, 40, 41, 42, 43, 44, 45, 46, 47, 48, 49, 50, 51, 52, 53, 54, 55, 56, 57, 58, 59, 60, 61, 62, 63, 64, 65, 66, 67, 68, 69, 70, 71, 72, 73, 74, 75, 76, 77, 78, 79, 80, 81, 82, 83, 84, 85, 86, 87, 88, 89, 90, 91, 92, 93, 94, 95, 96, 97, 98, 99, 100, 101, 102, 103, 104, 105, 106, 107, 108, 109, 110, 111, 112, 113, 114, 115, 116, 117, 118, 119, 120, 121, 122, 123, 124, 125, 126, 127, 128, 129, 130, 131, 132, 133, 134, 135, 136, 137, 138, 139, 140, 141, 142, 143, 144],
      "AcquisitionTime": ["151438.552500", "151440.042500", "151441.532500", "151443.022500", "151444.512500", "151446.002500", "151447.492500", "151448.982500", "151450.472500", "151451.962500", "151453.452500", "151454.942500", "151456.432500", "151457.922500", "151459.412500", "151500.902500", "151502.392500", "151503.882500", "151505.372500", "151506.862500", "151508.352500", "151509.842500", "151511.332500", "151512.822500", "151514.312500", "151515.802500", "151517.292500", "151518.782500", "151520.272500", "151521.762500", "151523.252500", "151524.742500", "151526.232500", "151527.722500", "151529.212500", "151530.702500", "151532.192500", "151533.682500", "151535.172500", "151536.662500", "151538.152500", "151539.642500", "151541.132500", "151542.622500", "151544.112500", "151545.602500", "151547.092500", "151548.582500", "151550.072500", "151551.562500", "151553.052500", "151554.542500", "151556.032500", "151557.522500", "151559.012500", "151600.502500", "151601.992500", "151603.482500", "151604.972500", "151606.462500", "151607.952500", "151609.442500", "151610.932500", "151612.422500", "151613.912500", "151615.402500", "151616.892500", "151618.382500", "151619.872500", "151621.362500", "151622.852500", "151624.342500", "151625.832500", "151627.322500", "151628.812500", "151630.302500", "151631.792500", "151633.282500", "151634.772500", "151636.262500", "151637.752500", "151639.242500", "151640.732500", "151642.222500", "151643.712500", "151645.202500", "151646.692500", "151648.182500", "151649.672500", "151651.162500", "151652.652500", "151654.142500", "151655.632500", "151657.122500", "151658.612500", "151700.102500", "151701.592500", "151703.082500", "151704.572500", "151706.062500", "151707.552500", "151709.042500", "151710.532500", "151712.022500", "151713.512500", "151715.002500", "151716.492500", "151717.982500", "151719.472500", "151720.962500", "151722.452500", "151723.942500", "151725.432500", "151726.922500", "151728.412500", "151729.902500", "151731.392500", "151732.882500", "151734.372500", "151735.862500", "151737.352500", "151738.842500", "151740.332500", "151741.822500", "151743.312500", "151744.802500", "151746.292500", "151747.782500", "151749.272500", "151750.762500", "151752.252500", "151753.742500", "151755.232500", "151756.722500", "151758.212500", "151759.702500", "151801.192500", "151802.682500", "151804.172500", "151805.662500", "151807.152500", "151808.642500", "151810.132500", "151811.622500"],
      "ContentTime": ["151603.640000", "151603.652000", "151603.655000", "151603.657000", "151603.660000", "151603.663000", "151603.666000", "151603.669000", "151603.672000", "151603.675000", "151603.678000", "151603.681000", "151603.684000", "151603.692000", "151603.695000", "151603.698000", "151603.701000", "151603.704000", "151603.707000", "151603.710000", "151603.712000", "151603.715000", "151603.718000", "151603.721000", "151603.724000", "151603.727000", "151603.730000", "151603.733000", "151603.736000", "151603.739000", "151603.742000", "151603.745000", "151623.610000", "151623.613000", "151623.616000", "151623.619000", "151623.622000", "151623.625000", "151623.628000", "151623.631000", "151623.633000", "151623.636000", "151623.639000", "151623.642000", "151623.645000", "151623.648000", "151623.651000", "151623.654000", "151623.657000", "151623.660000", "151623.663000", "151623.665000", "151643.610000", "151643.613000", "151643.616000", "151643.619000", "151643.622000", "151643.625000", "151643.628000", "151643.631000", "151643.634000", "151643.643000", "151643.646000", "151643.649000", "151643.652000", "151643.655000", "151643.658000", "151643.661000", "151643.664000", "151643.667000", "151643.670000", "151643.673000", "151643.675000", "151703.610000", "151703.613000", "151703.616000", "151703.619000", "151703.622000", "151703.625000", "151703.628000", "151703.631000", "151703.634000", "151703.637000", "151703.639000", "151703.642000", "151703.645000", "151703.648000", "151703.651000", "151703.654000", "151703.657000", "151703.660000", "151703.663000", "151703.666000", "151743.610000", "151743.613000", "151743.616000", "151743.619000", "151743.622000", "151743.625000", "151743.628000", "151743.631000", "151743.634000", "151743.636000", "151743.639000", "151743.642000", "151743.645000", "151743.660000", "151743.663000", "151743.666000", "151743.669000", "151743.672000", "151743.675000", "151743.678000", "151743.680000", "151743.683000", "151743.686000", "151743.689000", "151743.692000", "151743.695000", "151743.698000", "151743.701000", "151743.704000", "151743.717000", "151813.888000", "151813.892000", "151813.895000", "151813.898000", "151813.901000", "151813.907000", "151813.910000", "151813.913000", "151813.916000", "151813.919000", "151813.922000", "151813.925000", "151813.928000", "151813.931000", "151813.934000", "151813.937000", "151813.941000", "151813.944000", "151813.947000", "151813.950000", "151813.953000"],
      "InstanceCreationTime": ["151603.640000", "151603.652000", "151603.655000", "151603.657000", "151603.660000", "151603.663000", "151603.666000", "151603.669000", "151603.672000", "151603.675000", "151603.678000", "151603.681000", "151603.684000", "151603.692000", "151603.695000", "151603.698000", "151603.701000", "151603.704000", "151603.707000", "151603.710000", "151603.712000", "151603.715000", "151603.718000", "151603.721000", "151603.724000", "151603.727000", "151603.730000", "151603.733000", "151603.736000", "151603.739000", "151603.742000", "151603.745000", "151623.610000", "151623.613000", "151623.616000", "151623.619000", "151623.622000", "151623.625000", "151623.628000", "151623.631000", "151623.633000", "151623.636000", "151623.639000", "151623.642000", "151623.645000", "151623.648000", "151623.651000", "151623.654000", "151623.657000", "151623.660000", "151623.663000", "151623.665000", "151643.610000", "151643.613000", "151643.616000", "151643.619000", "151643.622000", "151643.625000", "151643.628000", "151643.631000", "151643.634000", "151643.643000", "151643.646000", "151643.649000", "151643.652000", "151643.655000", "151643.658000", "151643.661000", "151643.664000", "151643.667000", "151643.670000", "151643.673000", "151643.675000", "151703.610000", "151703.613000", "151703.616000", "151703.619000", "151703.622000", "151703.625000", "151703.628000", "151703.631000", "151703.634000", "151703.637000", "151703.639000", "151703.642000", "151703.645000", "151703.648000", "151703.651000", "151703.654000", "151703.657000", "151703.660000", "151703.663000", "151703.666000", "151743.610000", "151743.613000", "151743.616000", "151743.619000", "151743.622000", "151743.625000", "151743.628000", "151743.631000", "151743.634000", "151743.636000", "151743.639000", "151743.642000", "151743.645000", "151743.660000", "151743.663000", "151743.666000", "151743.669000", "151743.672000", "151743.675000", "151743.678000", "151743.680000", "151743.683000", "151743.686000", "151743.689000", "151743.692000", "151743.695000", "151743.698000", "151743.701000", "151743.704000", "151743.717000", "151813.888000", "151813.892000", "151813.895000", "151813.898000", "151813.901000", "151813.907000", "151813.910000", "151813.913000", "151813.916000", "151813.919000", "151813.922000", "151813.925000", "151813.928000", "151813.931000", "151813.934000", "151813.937000", "151813.941000", "151813.944000", "151813.947000", "151813.950000", "151813.953000"],
      "InstanceNumber": [1, 2, 3, 4, 5, 6, 7, 8, 9, 10, 11, 12, 13, 14, 15, 16, 17, 18, 19, 20, 21, 22, 23, 24, 25, 26, 27, 28, 29, 30, 31, 32, 33, 34, 35, 36, 37, 38, 39, 40, 41, 42, 43, 44, 45, 46, 47, 48, 49, 50, 51, 52, 53, 54, 55, 56, 57, 58, 59, 60, 61, 62, 63, 64, 65, 66, 67, 68, 69, 70, 71, 72, 73, 74, 75, 76, 77, 78, 79, 80, 81, 82, 83, 84, 85, 86, 87, 88, 89, 90, 91, 92, 93, 94, 95, 96, 97, 98, 99, 100, 101, 102, 103, 104, 105, 106, 107, 108, 109, 110, 111, 112, 113, 114, 115, 116, 117, 118, 119, 120, 121, 122, 123, 124, 125, 126, 127, 128, 129, 130, 131, 132, 133, 134, 135, 136, 137, 138, 139, 140, 141, 142, 143, 144],
      "LargestImagePixelValue": [40573, 39042, 38869, 38433, 37978, 37530, 37911, 38564, 38020, 38123, 37781, 38262, 38081, 38317, 37690, 37732, 37390, 37973, 38345, 38695, 37818, 38287, 37701, 38582, 37865, 38538, 37726, 37849, 37879, 37959, 37883, 38077, 37986, 38438, 37761, 37792, 37370, 38627, 37933, 38737, 37652, 38004, 38527, 38451, 37783, 38676, 38025, 37544, 37832, 37181, 38073, 37939, 37787, 37460, 37500, 37559, 37704, 37333, 37932, 37160, 37694, 37402, 37496, 37376, 37081, 37337, 37278, 37510, 37345, 37810, 37173, 37799, 37567, 37886, 37361, 38249, 37678, 37365, 37292, 38001, 37431, 37594, 37891, 37418, 37988, 37329, 37770, 37474, 37295, 37690, 37480, 37768, 37033, 37048, 36873, 37386, 37684, 37419, 37399, 37073, 37574, 37349, 37518, 37736, 37221, 37496, 37618, 37355, 37735, 37111, 37419, 37471, 37776, 37737, 36892, 37496, 37189, 37167, 37344, 37527, 37493, 37658, 37651, 37286, 37038, 36749, 37534, 37667, 37295, 37579, 37707, 37403, 37189, 37245, 37719, 37932, 37439, 37510, 37088, 37611, 37365, 37290, 37629, 37274],
      "WindowCenter": [9869.0, 9824.0, 9805.0, 9794.0, 9791.0, 9786.0, 9793.0, 9799.0, 9798.0, 9799.0, 9801.0, 9818.0, 9818.0, 9810.0, 9791.0, 9783.0, 9786.0, 9793.0, 9799.0, 9787.0, 9789.0, 9807.0, 9813.0, 9812.0, 9797.0, 9809.0, 9804.0, 9794.0, 9787.0, 9786.0, 9787.0, 9791.0, 9793.0, 9807.0, 9812.0, 9821.0, 9826.0, 9836.0, 9831.0, 9829.0, 9832.0, 9833.0, 9830.0, 9820.0, 9804.0, 9807.0, 9795.0, 9797.0, 9812.0, 9807.0, 9823.0, 9820.0, 9822.0, 9809.0, 9802.0, 9797.0, 9796.0, 9798.0, 9812.0, 9798.0, 9797.0, 9788.0, 9795.0, 9805.0, 9798.0, 9781.0, 9772.0, 9778.0, 9787.0, 9787.0, 9790.0, 9811.0, 9814.0, 9822.0, 9809.0, 9804.0, 9788.0, 9787.0, 9787.0, 9794.0, 9800.0, 9813.0, 9831.0, 9807.0, 9777.0, 9753.0, 9756.0, 9764.0, 9776.0, 9802.0, 9807.0, 9823.0, 9801.0, 9785.0, 9766.0, 9771.0, 9783.0, 9788.0, 9798.0, 9801.0, 9810.0, 9808.0, 9792.0, 9788.0, 9790.0, 9798.0, 9806.0, 9800.0, 9796.0, 9790.0, 9789.0, 9806.0, 9807.0, 9806.0, 9790.0, 9795.0, 9804.0, 9791.0, 9780.0, 9769.0, 9761.0, 9766.0, 9783.0, 9787.0, 9788.0, 9781.0, 9787.0, 9793.0, 9787.0, 9780.0, 9785.0, 9771.0, 9765.0, 9779.0, 9796.0, 9796.0, 9778.0, 9769.0, 9780.0, 9802.0, 9814.0, 9808.0, 9798.0, 9774.0],
      "WindowWidth": [20920.0, 20803.0, 20754.0, 20719.0, 20707.0, 20697.0, 20713.0, 20722.0, 20720.0, 20717.0, 20727.0, 20765.0, 20767.0, 20747.0, 20703.0, 20685.0, 20694.0, 20708.0, 20718.0, 20689.0, 20696.0, 20737.0, 20755.0, 20752.0, 20722.0, 20744.0, 20737.0, 20713.0, 20700.0, 20696.0, 20695.0, 20702.0, 20706.0, 20737.0, 20751.0, 20773.0, 20785.0, 20803.0, 20794.0, 20785.0, 20797.0, 20802.0, 20791.0, 20766.0, 20730.0, 20735.0, 20715.0, 20722.0, 20751.0, 20744.0, 20777.0, 20769.0, 20775.0, 20750.0, 20733.0, 20718.0, 20715.0, 20724.0, 20750.0, 20725.0, 20720.0, 20698.0, 20716.0, 20736.0, 20722.0, 20689.0, 20666.0, 20680.0, 20697.0, 20697.0, 20704.0, 20746.0, 20757.0, 20772.0, 20748.0, 20732.0, 20698.0, 20695.0, 20697.0, 20714.0, 20723.0, 20754.0, 20794.0, 20740.0, 20671.0, 20619.0, 20621.0, 20641.0, 20671.0, 20729.0, 20744.0, 20780.0, 20729.0, 20693.0, 20650.0, 20659.0, 20683.0, 20700.0, 20724.0, 20732.0, 20751.0, 20743.0, 20710.0, 20699.0, 20705.0, 20724.0, 20741.0, 20728.0, 20717.0, 20705.0, 20703.0, 20742.0, 20744.0, 20740.0, 20703.0, 20713.0, 20733.0, 20705.0, 20680.0, 20653.0, 20637.0, 20647.0, 20685.0, 20696.0, 20697.0, 20685.0, 20693.0, 20704.0, 20696.0, 20681.0, 20688.0, 20661.0, 20649.0, 20679.0, 20715.0, 20714.0, 20675.0, 20653.0, 20683.0, 20732.0, 20759.0, 20747.0, 20721.0, 20670.0]
    },
    "slices": {}
  }
}