{
  "AcquisitionMatrixPE": 104,
  "AcquisitionNumber": 1,
  "AcquisitionTime": "15:09:45.755000",
  "BandwidthPerPixelPhaseEncode": 17.17,
  "BaseResolution": 104,
  "BodyPartExamined": "BRAIN",
  "CoilString": "HC1-7;NC1_2",
  "ConsistencyInfo": "N4_VE11C_LATEST_20160120",
  "ConversionSoftware": "dcm2niix",
  "ConversionSoftwareVersion": "v1.0.20190720  (JP2:OpenJPEG) GCC7.3.0",
  "DerivedVendorReportedEchoSpacing": 0.000560011,
  "DeviceSerialNumber": "167006",
  "DwellTime": 2.1e-06,
  "EchoTime": 0.037,
  "EchoTrainLength": 104,
  "EffectiveEchoSpacing": 0.000560011,
  "FlipAngle": 52,
  "ImageComments": "Unaliased_MB4_PE3_LB",
  "ImageOrientationPatientDICOM": [0.999939, -0.00858964, -0.00689652, 0.00558479, 0.93495, -0.354735],
  "ImageType": [
    "ORIGINAL",
    "PRIMARY",
    "M",
    "MB",
    "ND",
    "MOSAIC"
],
  "ImagingFrequency": 123.259,
  "InPlanePhaseEncodingDirectionDICOM": "COL",
  "InstitutionAddress": "Chemin_Queen-Mary_4565_Montreal_District_CA_H3W_1W5",
  "InstitutionName": "IUGM",
  "InstitutionalDepartmentName": "Department",
  "MRAcquisitionType": "2D",
  "MagneticFieldStrength": 3,
  "Manufacturer": "Siemens",
  "ManufacturersModelName": "Prisma_fit",
  "Modality": "MR",
  "MultibandAccelerationFactor": 4,
  "PartialFourier": 1,
  "PatientPosition": "HFS",
  "PercentPhaseFOV": 100,
  "PhaseEncodingDirection": "j",
  "PhaseEncodingSteps": 104,
  "PhaseResolution": 1,
  "PixelBandwidth": 2290,
  "ProcedureStepDescription": "neuromod_scans",
  "ProtocolName": "func_task-motor_run-1",
  "PulseSequenceDetails": "%CustomerSeq%_cmrr_mbep2d_bold",
  "ReceiveCoilActiveElements": "HC1-7;NC1,2",
  "ReceiveCoilName": "HeadNeck_64",
  "ReconMatrixPE": 104,
  "RepetitionTime": 1.49,
  "SAR": 0.0291497,
  "ScanOptions": "FS",
  "ScanningSequence": "EP",
  "SequenceName": "epfid2d1_104",
  "SequenceVariant": "SK_SS",
  "SeriesDescription": "func_task-motor_run-1",
  "SeriesNumber": 21,
  "ShimSetting": [639, -7148, -8799, 648, 54, 148, -43, 7],
  "SliceThickness": 2,
  "SliceTiming": [0, 0.7825, 0.0975, 0.88, 0.195, 0.98, 0.2925, 1.0775, 0.39, 1.175, 0.49, 1.2725, 0.5875, 1.37, 0.685, 0, 0.7825, 0.0975, 0.88, 0.195, 0.98, 0.2925, 1.0775, 0.39, 1.175, 0.49, 1.2725, 0.5875, 1.37, 0.685, 0, 0.7825, 0.0975, 0.88, 0.195, 0.98, 0.2925, 1.0775, 0.39, 1.175, 0.49, 1.2725, 0.5875, 1.37, 0.685, 0, 0.7825, 0.0975, 0.88, 0.195, 0.98, 0.2925, 1.0775, 0.39, 1.175, 0.49, 1.2725, 0.5875, 1.37, 0.685],
  "SoftwareVersions": "syngo_MR_E11",
  "SpacingBetweenSlices": 2,
  "StationName": "MRC35049",
  "TaskName": "motor",
  "TotalReadoutTime": 0.0576811,
  "TxRefAmp": 209.094,
  "WipMemBlock": "ace920e4-419b-456d-b6ad-8596e8087547||Sequence: R016 ve11c/master r/e634e98; Dec 19 2017 11:00:25 by eja",
  "dcmmeta_affine": [
    [-1.9998786449432373, 0.011169579811394215, -0.018989894539117813, 108.24323272705078],
    [0.017179280519485474, 1.8699004650115967, -0.7093497514724731, -67.34629821777344],
    [-0.013793036341667175, 0.7094697952270508, 1.8698830604553223, -65.08641815185547],
    [0.0, 0.0, 0.0, 1.0]
],
  "dcmmeta_reorient_transform": [
    [0.0, -1.0, 0.0, 103.0],
    [1.0, 0.0, 0.0, 0.0],
    [0.0, 0.0, 1.0, 0.0],
    [0.0, 0.0, 0.0, 1.0]
],
  "dcmmeta_shape": [104, 104, 60, 144],
  "dcmmeta_slice_dim": 2,
  "dcmmeta_version": 0.6,
  "global": {
    "const": {
      "AcquisitionMatrix": [104, 0, 0, 104],
      "AngioFlag": "N",
      "BitsAllocated": 16,
      "BitsStored": 16,
      "BodyPartExamined": "BRAIN",
      "Columns": 832,
      "EchoNumbers": 1,
      "EchoTime": 37.0,
      "EchoTrainLength": 104,
      "FlipAngle": 52.0,
      "HighBit": 15,
      "ImageOrientationPatient": [0.99993932621415, -0.0085896405944, -0.006896518314, 0.00558478971236, 0.93495024576292, -0.3547348982997],
      "ImagePositionPatient": [-841.41525686037, -799.64397456527, 271.25663969376],
      "ImageType": [
        "ORIGINAL",
        "PRIMARY",
        "M",
        "MB",
        "ND",
        "MOSAIC"
],
      "ImagedNucleus": "1H",
      "ImagingFrequency": 123.259379,
      "InPlanePhaseEncodingDirection": "COL",
      "MRAcquisitionType": "2D",
      "MagneticFieldStrength": 3.0,
      "Manufacturer": "SIEMENS",
      "ManufacturerModelName": "Prisma_fit",
      "Modality": "MR",
      "NumberOfAverages": 1.0,
      "NumberOfPhaseEncodingSteps": 104,
      "PercentPhaseFieldOfView": 100.0,
      "PercentSampling": 100.0,
      "PerformedProcedureStepStartTime": "140940.490000",
      "PhotometricInterpretation": "MONOCHROME2",
      "PixelBandwidth": 2290.0,
      "PixelRepresentation": 0,
      "PixelSpacing": [2.0, 2.0],
      "ProtocolName": "func_task-motor_run-1",
      "RepetitionTime": 1490.0,
      "Rows": 832,
      "SAR": 0.02914969262947,
      "SamplesPerPixel": 1,
      "ScanOptions": "FS",
      "ScanningSequence": "EP",
      "SequenceName": "epfid2d1_104",
      "SequenceVariant": [
        "SK",
        "SS"
],
      "SeriesDescription": "func_task-motor_run-1",
      "SeriesNumber": 21,
      "SeriesTime": "151112.352000",
      "SliceLocation": -37.993720554952,
      "SliceThickness": 2.0,
      "SmallestImagePixelValue": 0,
      "SoftwareVersions": "syngo MR E11",
      "SpacingBetweenSlices": 2.0000000499686,
      "SpecificCharacterSet": "ISO_IR 100",
      "StudyID": "1",
      "StudyTime": "140940.433000",
      "TransmitCoilName": "Body",
      "VariableFlipAngleFlag": "N",
      "WindowCenterWidthExplanation": "Algo1",
      "dBdt": 0.0},
    "slices": {}
  },
  "time": {
    "samples": {
      "AcquisitionNumber": [1, 2, 3, 4, 5, 6, 7, 8, 9, 10, 11, 12, 13, 14, 15, 16, 17, 18, 19, 20, 21, 22, 23, 24, 25, 26, 27, 28, 29, 30, 31, 32, 33, 34, 35, 36, 37, 38, 39, 40, 41, 42, 43, 44, 45, 46, 47, 48, 49, 50, 51, 52, 53, 54, 55, 56, 57, 58, 59, 60, 61, 62, 63, 64, 65, 66, 67, 68, 69, 70, 71, 72, 73, 74, 75, 76, 77, 78, 79, 80, 81, 82, 83, 84, 85, 86, 87, 88, 89, 90, 91, 92, 93, 94, 95, 96, 97, 98, 99, 100, 101, 102, 103, 104, 105, 106, 107, 108, 109, 110, 111, 112, 113, 114, 115, 116, 117, 118, 119, 120, 121, 122, 123, 124, 125, 126, 127, 128, 129, 130, 131, 132, 133, 134, 135, 136, 137, 138, 139, 140, 141, 142, 143, 144],
      "AcquisitionTime": ["150945.755000", "150947.245000", "150948.735000", "150950.225000", "150951.715000", "150953.205000", "150954.695000", "150956.185000", "150957.675000", "150959.165000", "151000.655000", "151002.145000", "151003.635000", "151005.125000", "151006.615000", "151008.105000", "151009.595000", "151011.085000", "151012.575000", "151014.065000", "151015.555000", "151017.045000", "151018.535000", "151020.025000", "151021.515000", "151023.005000", "151024.495000", "151025.985000", "151027.475000", "151028.965000", "151030.455000", "151031.945000", "151033.435000", "151034.925000", "151036.415000", "151037.905000", "151039.395000", "151040.885000", "151042.375000", "151043.865000", "151045.355000", "151046.845000", "151048.335000", "151049.825000", "151051.315000", "151052.805000", "151054.295000", "151055.785000", "151057.275000", "151058.765000", "151100.255000", "151101.745000", "151103.235000", "151104.725000", "151106.215000", "151107.705000", "151109.195000", "151110.685000", "151112.175000", "151113.665000", "151115.155000", "151116.645000", "151118.135000", "151119.625000", "151121.115000", "151122.605000", "151124.095000", "151125.585000", "151127.075000", "151128.565000", "151130.055000", "151131.545000", "151133.035000", "151134.525000", "151136.015000", "151137.505000", "151138.995000", "151140.485000", "151141.975000", "151143.465000", "151144.955000", "151146.445000", "151147.935000", "151149.425000", "151150.915000", "151152.405000", "151153.895000", "151155.385000", "151156.875000", "151158.365000", "151159.855000", "151201.345000", "151202.835000", "151204.325000", "151205.815000", "151207.305000", "151208.795000", "151210.285000", "151211.775000", "151213.265000", "151214.755000", "151216.245000", "151217.735000", "151219.225000", "151220.715000", "151222.205000", "151223.695000", "151225.185000", "151226.675000", "151228.165000", "151229.655000", "151231.145000", "151232.635000", "151234.125000", "151235.615000", "151237.105000", "151238.595000", "151240.085000", "151241.575000", "151243.065000", "151244.555000", "151246.045000", "151247.535000", "151249.025000", "151250.515000", "151252.005000", "151253.495000", "151254.985000", "151256.475000", "151257.965000", "151259.455000", "151300.945000", "151302.435000", "151303.925000", "151305.415000", "151306.905000", "151308.395000", "151309.885000", "151311.375000", "151312.865000", "151314.355000", "151315.845000", "151317.335000", "151318.825000"],
      "ContentTime": ["151112.355000", "151112.358000", "151112.361000", "151112.364000", "151112.367000", "151112.370000", "151112.373000", "151112.376000", "151112.379000", "151112.382000", "151112.385000", "151112.388000", "151112.391000", "151112.394000", "151112.397000", "151112.400000", "151112.402000", "151112.405000", "151112.408000", "151112.419000", "151112.422000", "151112.425000", "151112.428000", "151112.431000", "151112.434000", "151112.437000", "151112.440000", "151112.443000", "151112.446000", "151112.449000", "151112.452000", "151132.309000", "151132.312000", "151132.315000", "151132.318000", "151132.321000", "151132.324000", "151132.327000", "151132.330000", "151132.333000", "151132.335000", "151132.338000", "151132.341000", "151132.347000", "151132.350000", "151132.353000", "151132.356000", "151132.359000", "151132.362000", "151132.365000", "151132.368000", "151132.371000", "151152.315000", "151152.318000", "151152.321000", "151152.324000", "151152.332000", "151152.335000", "151152.338000", "151152.341000", "151152.344000", "151152.347000", "151152.350000", "151152.352000", "151152.355000", "151152.358000", "151152.361000", "151152.364000", "151152.367000", "151152.370000", "151152.373000", "151152.376000", "151212.309000", "151212.312000", "151212.315000", "151212.318000", "151212.321000", "151212.324000", "151212.327000", "151212.330000", "151212.333000", "151212.335000", "151212.338000", "151212.341000", "151212.344000", "151212.347000", "151212.350000", "151212.353000", "151212.356000", "151212.359000", "151212.361000", "151212.364000", "151252.308000", "151252.311000", "151252.314000", "151252.317000", "151252.320000", "151252.323000", "151252.326000", "151252.329000", "151252.331000", "151252.334000", "151252.337000", "151252.340000", "151252.343000", "151252.346000", "151252.349000", "151252.352000", "151252.355000", "151252.358000", "151252.369000", "151252.372000", "151252.374000", "151252.377000", "151252.380000", "151252.383000", "151252.386000", "151252.389000", "151252.392000", "151252.395000", "151252.398000", "151252.402000", "151252.405000", "151252.408000", "151321.364000", "151321.367000", "151321.370000", "151321.373000", "151321.376000", "151321.379000", "151321.383000", "151321.386000", "151321.389000", "151321.392000", "151321.395000", "151321.398000", "151321.401000", "151321.404000", "151321.407000", "151321.410000", "151321.413000", "151321.416000", "151321.419000", "151321.422000"],
      "InstanceCreationTime": ["151112.355000", "151112.358000", "151112.361000", "151112.364000", "151112.367000", "151112.370000", "151112.373000", "151112.376000", "151112.379000", "151112.382000", "151112.385000", "151112.388000", "151112.391000", "151112.394000", "151112.397000", "151112.400000", "151112.402000", "151112.405000", "151112.408000", "151112.419000", "151112.422000", "151112.425000", "151112.428000", "151112.431000", "151112.434000", "151112.437000", "151112.440000", "151112.443000", "151112.446000", "151112.449000", "151112.452000", "151132.309000", "151132.312000", "151132.315000", "151132.318000", "151132.321000", "151132.324000", "151132.327000", "151132.330000", "151132.333000", "151132.335000", "151132.338000", "151132.341000", "151132.347000", "151132.350000", "151132.353000", "151132.356000", "151132.359000", "151132.362000", "151132.365000", "151132.368000", "151132.371000", "151152.315000", "151152.318000", "151152.321000", "151152.324000", "151152.332000", "151152.335000", "151152.338000", "151152.341000", "151152.344000", "151152.347000", "151152.350000", "151152.352000", "151152.355000", "151152.358000", "151152.361000", "151152.364000", "151152.367000", "151152.370000", "151152.373000", "151152.376000", "151212.309000", "151212.312000", "151212.315000", "151212.318000", "151212.321000", "151212.324000", "151212.327000", "151212.330000", "151212.333000", "151212.335000", "151212.338000", "151212.341000", "151212.344000", "151212.347000", "151212.350000", "151212.353000", "151212.356000", "151212.359000", "151212.361000", "151212.364000", "151252.308000", "151252.311000", "151252.314000", "151252.317000", "151252.320000", "151252.323000", "151252.326000", "151252.329000", "151252.331000", "151252.334000", "151252.337000", "151252.340000", "151252.343000", "151252.346000", "151252.349000", "151252.352000", "151252.355000", "151252.358000", "151252.369000", "151252.372000", "151252.374000", "151252.377000", "151252.380000", "151252.383000", "151252.386000", "151252.389000", "151252.392000", "151252.395000", "151252.398000", "151252.402000", "151252.405000", "151252.408000", "151321.364000", "151321.367000", "151321.370000", "151321.373000", "151321.376000", "151321.379000", "151321.383000", "151321.386000", "151321.389000", "151321.392000", "151321.395000", "151321.398000", "151321.401000", "151321.404000", "151321.407000", "151321.410000", "151321.413000", "151321.416000", "151321.419000", "151321.422000"],
      "InstanceNumber": [1, 2, 3, 4, 5, 6, 7, 8, 9, 10, 11, 12, 13, 14, 15, 16, 17, 18, 19, 20, 21, 22, 23, 24, 25, 26, 27, 28, 29, 30, 31, 32, 33, 34, 35, 36, 37, 38, 39, 40, 41, 42, 43, 44, 45, 46, 47, 48, 49, 50, 51, 52, 53, 54, 55, 56, 57, 58, 59, 60, 61, 62, 63, 64, 65, 66, 67, 68, 69, 70, 71, 72, 73, 74, 75, 76, 77, 78, 79, 80, 81, 82, 83, 84, 85, 86, 87, 88, 89, 90, 91, 92, 93, 94, 95, 96, 97, 98, 99, 100, 101, 102, 103, 104, 105, 106, 107, 108, 109, 110, 111, 112, 113, 114, 115, 116, 117, 118, 119, 120, 121, 122, 123, 124, 125, 126, 127, 128, 129, 130, 131, 132, 133, 134, 135, 136, 137, 138, 139, 140, 141, 142, 143, 144],
      "LargestImagePixelValue": [39883, 39801, 38855, 38706, 38484, 37939, 38367, 38175, 37998, 38513, 38401, 39068, 38329, 38838, 38357, 37846, 38193, 38898, 38675, 38938, 38261, 38171, 38440, 37976, 38352, 38643, 38076, 38408, 38352, 38625, 38302, 38395, 38580, 38412, 38666, 39402, 39300, 39058, 38744, 39208, 39485, 39561, 39147, 39372, 39152, 39170, 39939, 39357, 39006, 39416, 39443, 39535, 39496, 39613, 39293, 38700, 39309, 39202, 38870, 38957, 38813, 39020, 38616, 38930, 38424, 39200, 39137, 38819, 38336, 39172, 38941, 39246, 38652, 38860, 38759, 38729, 39093, 39094, 38756, 38982, 39144, 39195, 39406, 39392, 39012, 38520, 38535, 38612, 39246, 39392, 39305, 39591, 38637, 39131, 38974, 39040, 38675, 39217, 38225, 39162, 38794, 38932, 38876, 38888, 38894, 39350, 39250, 39115, 38664, 38736, 38668, 38392, 38010, 38034, 38631, 38642, 39005, 38831, 38460, 38722, 38971, 38905, 38870, 39461, 38207, 38701, 39272, 38649, 38424, 38243, 38721, 38967, 38795, 38721, 38106, 38418, 38388, 38714, 38296, 37416, 42812, 36747, 36999, 38077],
      "WindowCenter": [9853.0, 9831.0, 9806.0, 9801.0, 9792.0, 9793.0, 9784.0, 9775.0, 9780.0, 9787.0, 9797.0, 9807.0, 9793.0, 9781.0, 9766.0, 9765.0, 9773.0, 9784.0, 9780.0, 9785.0, 9791.0, 9783.0, 9806.0, 9803.0, 9794.0, 9772.0, 9736.0, 9731.0, 9742.0, 9760.0, 9764.0, 9762.0, 9756.0, 9746.0, 9754.0, 9769.0, 9771.0, 9771.0, 9780.0, 9804.0, 9821.0, 9815.0, 9800.0, 9796.0, 9795.0, 9800.0, 9821.0, 9822.0, 9817.0, 9824.0, 9815.0, 9829.0, 9823.0, 9823.0, 9806.0, 9791.0, 9802.0, 9806.0, 9808.0, 9808.0, 9790.0, 9779.0, 9770.0, 9779.0, 9782.0, 9795.0, 9790.0, 9781.0, 9781.0, 9787.0, 9781.0, 9786.0, 9773.0, 9780.0, 9788.0, 9797.0, 9798.0, 9782.0, 9766.0, 9770.0, 9778.0, 9790.0, 9799.0, 9800.0, 9782.0, 9777.0, 9774.0, 9773.0, 9770.0, 9777.0, 9786.0, 9801.0, 9799.0, 9806.0, 9801.0, 9793.0, 9782.0, 9778.0, 9774.0, 9797.0, 9794.0, 9790.0, 9784.0, 9791.0, 9790.0, 9789.0, 9789.0, 9789.0, 9782.0, 9781.0, 9776.0, 9783.0, 9794.0, 9803.0, 9792.0, 9783.0, 9781.0, 9774.0, 9773.0, 9782.0, 9780.0, 9783.0, 9789.0, 9796.0, 9783.0, 9799.0, 9802.0, 9785.0, 9758.0, 9738.0, 9737.0, 9736.0, 9738.0, 9764.0, 9769.0, 9769.0, 9767.0, 9766.0, 9752.0, 9728.0, 9907.0, 9855.0, 9834.0, 9846.0],
      "WindowWidth": [20883.0, 20816.0, 20752.0, 20732.0, 20708.0, 20709.0, 20687.0, 20665.0, 20674.0, 20689.0, 20711.0, 20733.0, 20703.0, 20677.0, 20646.0, 20644.0, 20660.0, 20681.0, 20677.0, 20682.0, 20699.0, 20683.0, 20731.0, 20728.0, 20710.0, 20657.0, 20574.0, 20560.0, 20588.0, 20631.0, 20642.0, 20632.0, 20620.0, 20602.0, 20623.0, 20651.0, 20657.0, 20657.0, 20677.0, 20727.0, 20762.0, 20749.0, 20717.0, 20706.0, 20704.0, 20719.0, 20761.0, 20767.0, 20758.0, 20772.0, 20750.0, 20779.0, 20767.0, 20765.0, 20730.0, 20699.0, 20719.0, 20732.0, 20739.0, 20737.0, 20694.0, 20667.0, 20651.0, 20674.0, 20683.0, 20709.0, 20698.0, 20677.0, 20678.0, 20686.0, 20678.0, 20688.0, 20661.0, 20674.0, 20691.0, 20712.0, 20713.0, 20678.0, 20642.0, 20650.0, 20666.0, 20700.0, 20721.0, 20721.0, 20681.0, 20669.0, 20662.0, 20658.0, 20651.0, 20664.0, 20685.0, 20714.0, 20715.0, 20728.0, 20722.0, 20704.0, 20680.0, 20667.0, 20664.0, 20710.0, 20706.0, 20693.0, 20684.0, 20698.0, 20693.0, 20691.0, 20692.0, 20696.0, 20681.0, 20676.0, 20666.0, 20683.0, 20708.0, 20724.0, 20699.0, 20678.0, 20675.0, 20662.0, 20659.0, 20677.0, 20673.0, 20681.0, 20693.0, 20705.0, 20683.0, 20714.0, 20723.0, 20684.0, 20623.0, 20577.0, 20577.0, 20575.0, 20582.0, 20635.0, 20651.0, 20653.0, 20649.0, 20647.0, 20613.0, 20561.0, 20973.0, 20856.0, 20796.0, 20815.0]
    },
    "slices": {}
  }
}