{
  "AcquisitionMatrixPE": 104,
  "AcquisitionNumber": 1,
  "AcquisitionTime": "15:38:45.870000",
  "BandwidthPerPixelPhaseEncode": 17.17,
  "BaseResolution": 104,
  "BodyPartExamined": "BRAIN",
  "CoilString": "HC1-7;NC1_2",
  "ConsistencyInfo": "N4_VE11C_LATEST_20160120",
  "ConversionSoftware": "dcm2niix",
  "ConversionSoftwareVersion": "v1.0.20190720  (JP2:OpenJPEG) GCC7.3.0",
  "DerivedVendorReportedEchoSpacing": 0.000560011,
  "DeviceSerialNumber": "167006",
  "DwellTime": 2.1e-06,
  "EchoTime": 0.037,
  "EchoTrainLength": 104,
  "EffectiveEchoSpacing": 0.000560011,
  "FlipAngle": 52,
  "ImageComments": "Unaliased_MB4_PE3_LB",
  "ImageOrientationPatientDICOM": [0.999939, -0.00858964, -0.00689652, 0.00558479, 0.93495, -0.354735],
  "ImageType": [
    "ORIGINAL",
    "PRIMARY",
    "M",
    "MB",
    "ND",
    "MOSAIC"
],
  "ImagingFrequency": 123.259,
  "InPlanePhaseEncodingDirectionDICOM": "COL",
  "InstitutionAddress": "Chemin_Queen-Mary_4565_Montreal_District_CA_H3W_1W5",
  "InstitutionName": "IUGM",
  "InstitutionalDepartmentName": "Department",
  "MRAcquisitionType": "2D",
  "MagneticFieldStrength": 3,
  "Manufacturer": "Siemens",
  "ManufacturersModelName": "Prisma_fit",
  "Modality": "MR",
  "MultibandAccelerationFactor": 4,
  "PartialFourier": 1,
  "PatientPosition": "HFS",
  "PercentPhaseFOV": 100,
  "PhaseEncodingDirection": "j",
  "PhaseEncodingSteps": 104,
  "PhaseResolution": 1,
  "PixelBandwidth": 2290,
  "ProcedureStepDescription": "neuromod_scans",
  "ProtocolName": "func_task-gambling_run-2",
  "PulseSequenceDetails": "%CustomerSeq%_cmrr_mbep2d_bold",
  "ReceiveCoilActiveElements": "HC1-7;NC1,2",
  "ReceiveCoilName": "HeadNeck_64",
  "ReconMatrixPE": 104,
  "RepetitionTime": 1.49,
  "SAR": 0.029106,
  "ScanOptions": "FS",
  "ScanningSequence": "EP",
  "SequenceName": "epfid2d1_104",
  "SequenceVariant": "SK_SS",
  "SeriesDescription": "func_task-gambling_run-2",
  "SeriesNumber": 33,
  "ShimSetting": [639, -7148, -8799, 648, 54, 148, -43, 7],
  "SliceThickness": 2,
  "SliceTiming": [0, 0.785, 0.1, 0.8825, 0.1975, 0.98, 0.295, 1.08, 0.3925, 1.1775, 0.49, 1.275, 0.59, 1.3725, 0.6875, 0, 0.785, 0.1, 0.8825, 0.1975, 0.98, 0.295, 1.08, 0.3925, 1.1775, 0.49, 1.275, 0.59, 1.3725, 0.6875, 0, 0.785, 0.1, 0.8825, 0.1975, 0.98, 0.295, 1.08, 0.3925, 1.1775, 0.49, 1.275, 0.59, 1.3725, 0.6875, 0, 0.785, 0.1, 0.8825, 0.1975, 0.98, 0.295, 1.08, 0.3925, 1.1775, 0.49, 1.275, 0.59, 1.3725, 0.6875],
  "SoftwareVersions": "syngo_MR_E11",
  "SpacingBetweenSlices": 2,
  "StationName": "MRC35049",
  "TaskName": "gambling",
  "TotalReadoutTime": 0.0576811,
  "TxRefAmp": 209.094,
  "WipMemBlock": "d4b352bb-6262-4745-acc5-de0391c1af92||Sequence: R016 ve11c/master r/e634e98; Dec 19 2017 11:00:25 by eja",
  "dcmmeta_affine": [
    [-1.9998786449432373, 0.011169579811394215, -0.018989894539117813, 108.24323272705078],
    [0.017179280519485474, 1.8699004650115967, -0.7093497514724731, -67.34629821777344],
    [-0.013793036341667175, 0.7094697952270508, 1.8698830604553223, -65.08641815185547],
    [0.0, 0.0, 0.0, 1.0]
],
  "dcmmeta_reorient_transform": [
    [0.0, -1.0, 0.0, 103.0],
    [1.0, 0.0, 0.0, 0.0],
    [0.0, 0.0, 1.0, 0.0],
    [0.0, 0.0, 0.0, 1.0]
],
  "dcmmeta_shape": [104, 104, 60, 129],
  "dcmmeta_slice_dim": 2,
  "dcmmeta_version": 0.6,
  "global": {
    "const": {
      "AcquisitionMatrix": [104, 0, 0, 104],
      "AngioFlag": "N",
      "BitsAllocated": 16,
      "BitsStored": 16,
      "BodyPartExamined": "BRAIN",
      "Columns": 832,
      "EchoNumbers": 1,
      "EchoTime": 37.0,
      "EchoTrainLength": 104,
      "FlipAngle": 52.0,
      "HighBit": 15,
      "ImageOrientationPatient": [0.99993932621415, -0.0085896405944, -0.006896518314, 0.00558478971236, 0.93495024576292, -0.3547348982997],
      "ImagePositionPatient": [-841.41525686037, -799.64397456527, 271.25663969376],
      "ImageType": [
        "ORIGINAL",
        "PRIMARY",
        "M",
        "MB",
        "ND",
        "MOSAIC"
],
      "ImagedNucleus": "1H",
      "ImagingFrequency": 123.259386,
      "InPlanePhaseEncodingDirection": "COL",
      "MRAcquisitionType": "2D",
      "MagneticFieldStrength": 3.0,
      "Manufacturer": "SIEMENS",
      "ManufacturerModelName": "Prisma_fit",
      "Modality": "MR",
      "NumberOfAverages": 1.0,
      "NumberOfPhaseEncodingSteps": 104,
      "PercentPhaseFieldOfView": 100.0,
      "PercentSampling": 100.0,
      "PerformedProcedureStepStartTime": "140940.490000",
      "PhotometricInterpretation": "MONOCHROME2",
      "PixelBandwidth": 2290.0,
      "PixelRepresentation": 0,
      "PixelSpacing": [2.0, 2.0],
      "ProtocolName": "func_task-gambling_run-2",
      "RepetitionTime": 1490.0,
      "Rows": 832,
      "SAR": 0.02910596337042,
      "SamplesPerPixel": 1,
      "ScanOptions": "FS",
      "ScanningSequence": "EP",
      "SequenceName": "epfid2d1_104",
      "SequenceVariant": [
        "SK",
        "SS"
],
      "SeriesDescription": "func_task-gambling_run-2",
      "SeriesNumber": 33,
      "SeriesTime": "154002.565000",
      "SliceLocation": -37.993720554952,
      "SliceThickness": 2.0,
      "SmallestImagePixelValue": 0,
      "SoftwareVersions": "syngo MR E11",
      "SpacingBetweenSlices": 2.0000000499686,
      "SpecificCharacterSet": "ISO_IR 100",
      "StudyID": "1",
      "StudyTime": "140940.433000",
      "TransmitCoilName": "Body",
      "VariableFlipAngleFlag": "N",
      "WindowCenterWidthExplanation": "Algo1",
      "dBdt": 0.0},
    "slices": {}
  },
  "time": {
    "samples": {
      "AcquisitionNumber": [1, 2, 3, 4, 5, 6, 7, 8, 9, 10, 11, 12, 13, 14, 15, 16, 17, 18, 19, 20, 21, 22, 23, 24, 25, 26, 27, 28, 29, 30, 31, 32, 33, 34, 35, 36, 37, 38, 39, 40, 41, 42, 43, 44, 45, 46, 47, 48, 49, 50, 51, 52, 53, 54, 55, 56, 57, 58, 59, 60, 61, 62, 63, 64, 65, 66, 67, 68, 69, 70, 71, 72, 73, 74, 75, 76, 77, 78, 79, 80, 81, 82, 83, 84, 85, 86, 87, 88, 89, 90, 91, 92, 93, 94, 95, 96, 97, 98, 99, 100, 101, 102, 103, 104, 105, 106, 107, 108, 109, 110, 111, 112, 113, 114, 115, 116, 117, 118, 119, 120, 121, 122, 123, 124, 125, 126, 127, 128, 129],
      "AcquisitionTime": ["153845.870000", "153847.360000", "153848.850000", "153850.340000", "153851.830000", "153853.320000", "153854.810000", "153856.300000", "153857.790000", "153859.280000", "153900.770000", "153902.260000", "153903.750000", "153905.240000", "153906.730000", "153908.220000", "153909.710000", "153911.200000", "153912.690000", "153914.180000", "153915.670000", "153917.160000", "153918.650000", "153920.140000", "153921.630000", "153923.120000", "153924.610000", "153926.100000", "153927.590000", "153929.080000", "153930.570000", "153932.060000", "153933.550000", "153935.040000", "153936.530000", "153938.020000", "153939.510000", "153941.000000", "153942.490000", "153943.980000", "153945.470000", "153946.960000", "153948.450000", "153949.940000", "153951.430000", "153952.920000", "153954.410000", "153955.900000", "153957.390000", "153958.880000", "154000.370000", "154001.860000", "154003.350000", "154004.840000", "154006.330000", "154007.820000", "154009.310000", "154010.800000", "154012.290000", "154013.780000", "154015.270000", "154016.760000", "154018.250000", "154019.740000", "154021.230000", "154022.720000", "154024.210000", "154025.700000", "154027.190000", "154028.680000", "154030.170000", "154031.660000", "154033.150000", "154034.640000", "154036.130000", "154037.620000", "154039.110000", "154040.600000", "154042.090000", "154043.580000", "154045.070000", "154046.560000", "154048.050000", "154049.540000", "154051.030000", "154052.520000", "154054.010000", "154055.500000", "154056.990000", "154058.480000", "154059.970000", "154101.460000", "154102.950000", "154104.440000", "154105.930000", "154107.420000", "154108.910000", "154110.400000", "154111.890000", "154113.380000", "154114.870000", "154116.360000", "154117.850000", "154119.340000", "154120.830000", "154122.320000", "154123.810000", "154125.300000", "154126.790000", "154128.280000", "154129.770000", "154131.260000", "154132.750000", "154134.240000", "154135.730000", "154137.220000", "154138.710000", "154140.200000", "154141.690000", "154143.180000", "154144.670000", "154146.160000", "154147.650000", "154149.140000", "154150.630000", "154152.120000", "154153.610000", "154155.100000", "154156.590000"],
      "ContentTime": ["154002.568000", "154002.571000", "154002.574000", "154002.577000", "154002.588000", "154002.591000", "154002.594000", "154002.601000", "154002.603000", "154002.606000", "154002.616000", "154002.619000", "154002.622000", "154002.625000", "154002.628000", "154002.631000", "154002.634000", "154002.637000", "154002.639000", "154002.642000", "154002.645000", "154002.648000", "154002.651000", "154022.530000", "154022.533000", "154022.536000", "154022.539000", "154022.542000", "154022.545000", "154022.548000", "154022.556000", "154022.559000", "154022.562000", "154022.565000", "154022.568000", "154022.571000", "154022.574000", "154022.577000", "154022.580000", "154022.583000", "154022.586000", "154022.589000", "154022.591000", "154042.529000", "154042.532000", "154042.535000", "154042.538000", "154042.541000", "154042.544000", "154042.547000", "154042.550000", "154042.553000", "154042.556000", "154042.559000", "154042.561000", "154042.564000", "154042.567000", "154042.570000", "154042.580000", "154042.583000", "154042.586000", "154042.589000", "154042.591000", "154102.529000", "154102.532000", "154102.535000", "154102.538000", "154102.541000", "154102.544000", "154102.547000", "154102.550000", "154102.552000", "154102.555000", "154102.558000", "154102.561000", "154102.564000", "154102.567000", "154102.570000", "154102.573000", "154102.576000", "154102.579000", "154102.582000", "154102.585000", "154102.588000", "154122.529000", "154122.533000", "154122.536000", "154122.540000", "154122.543000", "154122.545000", "154122.549000", "154122.552000", "154122.554000", "154122.557000", "154122.560000", "154122.563000", "154122.566000", "154122.569000", "154122.572000", "154122.575000", "154122.578000", "154122.581000", "154122.584000", "154122.597000", "154158.441000", "154158.445000", "154158.447000", "154158.450000", "154158.453000", "154158.456000", "154158.459000", "154158.462000", "154158.465000", "154158.468000", "154158.471000", "154158.474000", "154158.477000", "154158.480000", "154158.483000", "154158.486000", "154158.489000", "154158.492000", "154158.495000", "154158.498000", "154158.501000", "154158.504000", "154158.507000", "154158.515000", "154158.518000"],
      "InstanceCreationTime": ["154002.568000", "154002.571000", "154002.574000", "154002.577000", "154002.588000", "154002.591000", "154002.594000", "154002.601000", "154002.603000", "154002.606000", "154002.616000", "154002.619000", "154002.622000", "154002.625000", "154002.628000", "154002.631000", "154002.634000", "154002.637000", "154002.639000", "154002.642000", "154002.645000", "154002.648000", "154002.651000", "154022.530000", "154022.533000", "154022.536000", "154022.539000", "154022.542000", "154022.545000", "154022.548000", "154022.556000", "154022.559000", "154022.562000", "154022.565000", "154022.568000", "154022.571000", "154022.574000", "154022.577000", "154022.580000", "154022.583000", "154022.586000", "154022.589000", "154022.591000", "154042.529000", "154042.532000", "154042.535000", "154042.538000", "154042.541000", "154042.544000", "154042.547000", "154042.550000", "154042.553000", "154042.556000", "154042.559000", "154042.561000", "154042.564000", "154042.567000", "154042.570000", "154042.580000", "154042.583000", "154042.586000", "154042.589000", "154042.591000", "154102.529000", "154102.532000", "154102.535000", "154102.538000", "154102.541000", "154102.544000", "154102.547000", "154102.550000", "154102.552000", "154102.555000", "154102.558000", "154102.561000", "154102.564000", "154102.567000", "154102.570000", "154102.573000", "154102.576000", "154102.579000", "154102.582000", "154102.585000", "154102.588000", "154122.529000", "154122.533000", "154122.536000", "154122.540000", "154122.543000", "154122.545000", "154122.549000", "154122.552000", "154122.554000", "154122.557000", "154122.560000", "154122.563000", "154122.566000", "154122.569000", "154122.572000", "154122.575000", "154122.578000", "154122.581000", "154122.584000", "154122.597000", "154158.441000", "154158.445000", "154158.447000", "154158.450000", "154158.453000", "154158.456000", "154158.459000", "154158.462000", "154158.465000", "154158.468000", "154158.471000", "154158.474000", "154158.477000", "154158.480000", "154158.483000", "154158.486000", "154158.489000", "154158.492000", "154158.495000", "154158.498000", "154158.501000", "154158.504000", "154158.507000", "154158.515000", "154158.518000"],
      "InstanceNumber": [1, 2, 3, 4, 5, 6, 7, 8, 9, 10, 11, 12, 13, 14, 15, 16, 17, 18, 19, 20, 21, 22, 23, 24, 25, 26, 27, 28, 29, 30, 31, 32, 33, 34, 35, 36, 37, 38, 39, 40, 41, 42, 43, 44, 45, 46, 47, 48, 49, 50, 51, 52, 53, 54, 55, 56, 57, 58, 59, 60, 61, 62, 63, 64, 65, 66, 67, 68, 69, 70, 71, 72, 73, 74, 75, 76, 77, 78, 79, 80, 81, 82, 83, 84, 85, 86, 87, 88, 89, 90, 91, 92, 93, 94, 95, 96, 97, 98, 99, 100, 101, 102, 103, 104, 105, 106, 107, 108, 109, 110, 111, 112, 113, 114, 115, 116, 117, 118, 119, 120, 121, 122, 123, 124, 125, 126, 127, 128, 129],
      "LargestImagePixelValue": [40012, 38946, 38512, 37795, 37989, 37333, 37085, 37442, 37565, 37616, 37521, 36885, 37636, 37870, 38061, 37330, 37508, 37757, 37602, 37295, 37898, 37554, 37557, 37460, 37621, 37647, 36826, 37491, 37933, 37810, 37520, 37459, 37712, 38053, 37516, 37919, 37918, 37529, 37190, 37723, 37790, 37749, 37269, 37802, 38241, 38114, 37736, 36821, 38015, 37921, 37554, 37577, 37271, 37500, 37543, 38153, 37635, 37556, 37945, 37675, 37850, 38032, 37950, 37600, 37988, 37949, 37567, 37037, 37897, 37676, 38127, 37524, 37693, 37961, 37750, 37399, 37006, 37921, 37651, 37626, 37523, 37719, 37763, 38033, 37841, 37343, 37903, 37762, 37793, 37601, 37202, 37737, 37587, 37832, 37460, 37079, 37750, 37846, 37507, 37706, 37662, 37372, 37568, 37631, 37384, 37094, 37669, 37429, 37732, 37614, 37251, 37464, 37424, 37971, 37406, 37487, 37488, 37333, 37424, 37865, 37731, 37717, 37449, 37620, 37511, 37217, 37652, 37316, 37653],
      "WindowCenter": [9873.0, 9843.0, 9826.0, 9819.0, 9816.0, 9808.0, 9799.0, 9813.0, 9817.0, 9825.0, 9834.0, 9822.0, 9825.0, 9815.0, 9824.0, 9817.0, 9802.0, 9797.0, 9795.0, 9795.0, 9796.0, 9791.0, 9796.0, 9798.0, 9796.0, 9796.0, 9789.0, 9795.0, 9794.0, 9803.0, 9805.0, 9799.0, 9797.0, 9796.0, 9786.0, 9786.0, 9785.0, 9787.0, 9797.0, 9811.0, 9812.0, 9805.0, 9790.0, 9794.0, 9808.0, 9809.0, 9803.0, 9791.0, 9808.0, 9819.0, 9822.0, 9808.0, 9790.0, 9778.0, 9775.0, 9792.0, 9803.0, 9815.0, 9821.0, 9806.0, 9790.0, 9794.0, 9801.0, 9794.0, 9784.0, 9783.0, 9794.0, 9799.0, 9805.0, 9805.0, 9810.0, 9806.0, 9815.0, 9831.0, 9826.0, 9808.0, 9792.0, 9803.0, 9804.0, 9804.0, 9800.0, 9799.0, 9798.0, 9802.0, 9797.0, 9791.0, 9798.0, 9806.0, 9805.0, 9798.0, 9792.0, 9805.0, 9806.0, 9808.0, 9807.0, 9808.0, 9813.0, 9806.0, 9797.0, 9799.0, 9797.0, 9791.0, 9789.0, 9804.0, 9805.0, 9793.0, 9795.0, 9798.0, 9806.0, 9799.0, 9783.0, 9781.0, 9788.0, 9797.0, 9796.0, 9791.0, 9797.0, 9796.0, 9780.0, 9778.0, 9770.0, 9776.0, 9781.0, 9797.0, 9806.0, 9807.0, 9806.0, 9783.0, 9781.0],
      "WindowWidth": [20920.0, 20834.0, 20788.0, 20766.0, 20757.0, 20736.0, 20717.0, 20745.0, 20755.0, 20773.0, 20792.0, 20768.0, 20771.0, 20750.0, 20768.0, 20757.0, 20725.0, 20710.0, 20703.0, 20704.0, 20706.0, 20697.0, 20705.0, 20713.0, 20708.0, 20706.0, 20691.0, 20702.0, 20699.0, 20718.0, 20724.0, 20716.0, 20709.0, 20702.0, 20681.0, 20682.0, 20680.0, 20685.0, 20708.0, 20737.0, 20741.0, 20724.0, 20692.0, 20699.0, 20728.0, 20732.0, 20721.0, 20698.0, 20729.0, 20755.0, 20764.0, 20735.0, 20695.0, 20665.0, 20659.0, 20695.0, 20722.0, 20748.0, 20760.0, 20729.0, 20693.0, 20699.0, 20711.0, 20697.0, 20674.0, 20674.0, 20700.0, 20714.0, 20724.0, 20727.0, 20734.0, 20729.0, 20750.0, 20785.0, 20776.0, 20734.0, 20699.0, 20718.0, 20724.0, 20723.0, 20716.0, 20715.0, 20710.0, 20716.0, 20708.0, 20697.0, 20710.0, 20727.0, 20725.0, 20709.0, 20698.0, 20724.0, 20728.0, 20732.0, 20728.0, 20731.0, 20740.0, 20725.0, 20706.0, 20711.0, 20706.0, 20697.0, 20693.0, 20723.0, 20725.0, 20701.0, 20701.0, 20710.0, 20728.0, 20714.0, 20677.0, 20671.0, 20687.0, 20705.0, 20705.0, 20693.0, 20703.0, 20701.0, 20666.0, 20662.0, 20646.0, 20657.0, 20674.0, 20709.0, 20728.0, 20731.0, 20725.0, 20676.0, 20673.0]
    },
    "slices": {}
  }
}