{
  "AcquisitionMatrixPE": 104,
  "AcquisitionNumber": 1,
  "AcquisitionTime": "15:04:40.537500",
  "BandwidthPerPixelPhaseEncode": 17.17,
  "BaseResolution": 104,
  "BodyPartExamined": "BRAIN",
  "CoilString": "HC1-7;NC1_2",
  "ConsistencyInfo": "N4_VE11C_LATEST_20160120",
  "ConversionSoftware": "dcm2niix",
  "ConversionSoftwareVersion": "v1.0.20190720  (JP2:OpenJPEG) GCC7.3.0",
  "DerivedVendorReportedEchoSpacing": 0.000560011,
  "DeviceSerialNumber": "167006",
  "DwellTime": 2.1e-06,
  "EchoTime": 0.037,
  "EchoTrainLength": 104,
  "EffectiveEchoSpacing": 0.000560011,
  "FlipAngle": 52,
  "ImageComments": "Unaliased_MB4_PE3_LB",
  "ImageOrientationPatientDICOM": [0.999939, -0.00858964, -0.00689652, 0.00558479, 0.93495, -0.354735],
  "ImageType": [
    "ORIGINAL",
    "PRIMARY",
    "M",
    "MB",
    "ND",
    "MOSAIC"
],
  "ImagingFrequency": 123.259,
  "InPlanePhaseEncodingDirectionDICOM": "COL",
  "InstitutionAddress": "Chemin_Queen-Mary_4565_Montreal_District_CA_H3W_1W5",
  "InstitutionName": "IUGM",
  "InstitutionalDepartmentName": "Department",
  "MRAcquisitionType": "2D",
  "MagneticFieldStrength": 3,
  "Manufacturer": "Siemens",
  "ManufacturersModelName": "Prisma_fit",
  "Modality": "MR",
  "MultibandAccelerationFactor": 4,
  "PartialFourier": 1,
  "PatientPosition": "HFS",
  "PercentPhaseFOV": 100,
  "PhaseEncodingDirection": "j",
  "PhaseEncodingSteps": 104,
  "PhaseResolution": 1,
  "PixelBandwidth": 2290,
  "ProcedureStepDescription": "neuromod_scans",
  "ProtocolName": "func_task-language_run-1",
  "PulseSequenceDetails": "%CustomerSeq%_cmrr_mbep2d_bold",
  "ReceiveCoilActiveElements": "HC1-7;NC1,2",
  "ReceiveCoilName": "HeadNeck_64",
  "ReconMatrixPE": 104,
  "RepetitionTime": 1.49,
  "SAR": 0.0291855,
  "ScanOptions": "FS",
  "ScanningSequence": "EP",
  "SequenceName": "epfid2d1_104",
  "SequenceVariant": "SK_SS",
  "SeriesDescription": "func_task-language_run-1",
  "SeriesNumber": 19,
  "ShimSetting": [639, -7148, -8799, 648, 54, 148, -43, 7],
  "SliceThickness": 2,
  "SliceTiming": [0, 0.785, 0.0975, 0.8825, 0.1975, 0.98, 0.295, 1.0775, 0.3925, 1.1775, 0.49, 1.275, 0.5875, 1.3725, 0.6875, 0, 0.785, 0.0975, 0.8825, 0.1975, 0.98, 0.295, 1.0775, 0.3925, 1.1775, 0.49, 1.275, 0.5875, 1.3725, 0.6875, 0, 0.785, 0.0975, 0.8825, 0.1975, 0.98, 0.295, 1.0775, 0.3925, 1.1775, 0.49, 1.275, 0.5875, 1.3725, 0.6875, 0, 0.785, 0.0975, 0.8825, 0.1975, 0.98, 0.295, 1.0775, 0.3925, 1.1775, 0.49, 1.275, 0.5875, 1.3725, 0.6875],
  "SoftwareVersions": "syngo_MR_E11",
  "SpacingBetweenSlices": 2,
  "StationName": "MRC35049",
  "TaskName": "language",
  "TotalReadoutTime": 0.0576811,
  "TxRefAmp": 209.094,
  "WipMemBlock": "4a475a3e-9dab-4656-952c-4d5ed9b9ce7f||Sequence: R016 ve11c/master r/e634e98; Dec 19 2017 11:00:25 by eja",
  "dcmmeta_affine": [
    [-1.9998786449432373, 0.011169579811394215, -0.018989894539117813, 108.24323272705078],
    [0.017179280519485474, 1.8699004650115967, -0.7093497514724731, -67.34629821777344],
    [-0.013793036341667175, 0.7094697952270508, 1.8698830604553223, -65.08641815185547],
    [0.0, 0.0, 0.0, 1.0]
],
  "dcmmeta_reorient_transform": [
    [0.0, -1.0, 0.0, 103.0],
    [1.0, 0.0, 0.0, 0.0],
    [0.0, 0.0, 1.0, 0.0],
    [0.0, 0.0, 0.0, 1.0]
],
  "dcmmeta_shape": [104, 104, 60, 159],
  "dcmmeta_slice_dim": 2,
  "dcmmeta_version": 0.6,
  "global": {
    "const": {
      "AcquisitionMatrix": [104, 0, 0, 104],
      "AngioFlag": "N",
      "BitsAllocated": 16,
      "BitsStored": 16,
      "BodyPartExamined": "BRAIN",
      "Columns": 832,
      "EchoNumbers": 1,
      "EchoTime": 37.0,
      "EchoTrainLength": 104,
      "FlipAngle": 52.0,
      "HighBit": 15,
      "ImageOrientationPatient": [0.99993932621415, -0.0085896405944, -0.006896518314, 0.00558478971236, 0.93495024576292, -0.3547348982997],
      "ImagePositionPatient": [-841.41525686037, -799.64397456527, 271.25663969376],
      "ImageType": [
        "ORIGINAL",
        "PRIMARY",
        "M",
        "MB",
        "ND",
        "MOSAIC"
],
      "ImagedNucleus": "1H",
      "ImagingFrequency": 123.259378,
      "InPlanePhaseEncodingDirection": "COL",
      "MRAcquisitionType": "2D",
      "MagneticFieldStrength": 3.0,
      "Manufacturer": "SIEMENS",
      "ManufacturerModelName": "Prisma_fit",
      "Modality": "MR",
      "NumberOfAverages": 1.0,
      "NumberOfPhaseEncodingSteps": 104,
      "PercentPhaseFieldOfView": 100.0,
      "PercentSampling": 100.0,
      "PerformedProcedureStepStartTime": "140940.490000",
      "PhotometricInterpretation": "MONOCHROME2",
      "PixelBandwidth": 2290.0,
      "PixelRepresentation": 0,
      "PixelSpacing": [2.0, 2.0],
      "ProtocolName": "func_task-language_run-1",
      "RepetitionTime": 1490.0,
      "Rows": 832,
      "SAR": 0.0291855161852,
      "SamplesPerPixel": 1,
      "ScanOptions": "FS",
      "ScanningSequence": "EP",
      "SequenceName": "epfid2d1_104",
      "SequenceVariant": [
        "SK",
        "SS"
],
      "SeriesDescription": "func_task-language_run-1",
      "SeriesNumber": 19,
      "SeriesTime": "150602.561000",
      "SliceLocation": -37.993720554952,
      "SliceThickness": 2.0,
      "SmallestImagePixelValue": 0,
      "SoftwareVersions": "syngo MR E11",
      "SpacingBetweenSlices": 2.0000000499686,
      "SpecificCharacterSet": "ISO_IR 100",
      "StudyID": "1",
      "StudyTime": "140940.433000",
      "TransmitCoilName": "Body",
      "VariableFlipAngleFlag": "N",
      "WindowCenterWidthExplanation": "Algo1",
      "dBdt": 0.0},
    "slices": {}
  },
  "time": {
    "samples": {
      "AcquisitionNumber": [1, 2, 3, 4, 5, 6, 7, 8, 9, 10, 11, 12, 13, 14, 15, 16, 17, 18, 19, 20, 21, 22, 23, 24, 25, 26, 27, 28, 29, 30, 31, 32, 33, 34, 35, 36, 37, 38, 39, 40, 41, 42, 43, 44, 45, 46, 47, 48, 49, 50, 51, 52, 53, 54, 55, 56, 57, 58, 59, 60, 61, 62, 63, 64, 65, 66, 67, 68, 69, 70, 71, 72, 73, 74, 75, 76, 77, 78, 79, 80, 81, 82, 83, 84, 85, 86, 87, 88, 89, 90, 91, 92, 93, 94, 95, 96, 97, 98, 99, 100, 101, 102, 103, 104, 105, 106, 107, 108, 109, 110, 111, 112, 113, 114, 115, 116, 117, 118, 119, 120, 121, 122, 123, 124, 125, 126, 127, 128, 129, 130, 131, 132, 133, 134, 135, 136, 137, 138, 139, 140, 141, 142, 143, 144, 145, 146, 147, 148, 149, 150, 151, 152, 153, 154, 155, 156, 157, 158, 159],
      "AcquisitionTime": ["150440.537500", "150442.027500", "150443.517500", "150445.007500", "150446.497500", "150447.987500", "150449.477500", "150450.967500", "150452.457500", "150453.947500", "150455.437500", "150456.927500", "150458.417500", "150459.907500", "150501.397500", "150502.887500", "150504.377500", "150505.867500", "150507.357500", "150508.847500", "150510.337500", "150511.827500", "150513.317500", "150514.807500", "150516.297500", "150517.787500", "150519.277500", "150520.767500", "150522.257500", "150523.747500", "150525.237500", "150526.727500", "150528.217500", "150529.707500", "150531.197500", "150532.687500", "150534.177500", "150535.667500", "150537.157500", "150538.647500", "150540.137500", "150541.627500", "150543.117500", "150544.607500", "150546.097500", "150547.587500", "150549.077500", "150550.567500", "150552.057500", "150553.547500", "150555.037500", "150556.527500", "150558.017500", "150559.507500", "150600.997500", "150602.487500", "150603.977500", "150605.467500", "150606.957500", "150608.447500", "150609.937500", "150611.427500", "150612.917500", "150614.407500", "150615.897500", "150617.387500", "150618.877500", "150620.367500", "150621.857500", "150623.347500", "150624.837500", "150626.327500", "150627.817500", "150629.307500", "150630.797500", "150632.287500", "150633.777500", "150635.267500", "150636.757500", "150638.247500", "150639.737500", "150641.227500", "150642.717500", "150644.207500", "150645.697500", "150647.187500", "150648.677500", "150650.167500", "150651.657500", "150653.147500", "150654.637500", "150656.127500", "150657.617500", "150659.107500", "150700.597500", "150702.087500", "150703.577500", "150705.067500", "150706.557500", "150708.047500", "150709.537500", "150711.027500", "150712.517500", "150714.007500", "150715.497500", "150716.987500", "150718.477500", "150719.967500", "150721.457500", "150722.947500", "150724.437500", "150725.927500", "150727.417500", "150728.907500", "150730.397500", "150731.887500", "150733.377500", "150734.867500", "150736.357500", "150737.847500", "150739.337500", "150740.827500", "150742.317500", "150743.807500", "150745.297500", "150746.787500", "150748.277500", "150749.767500", "150751.257500", "150752.747500", "150754.237500", "150755.727500", "150757.217500", "150758.707500", "150800.197500", "150801.687500", "150803.177500", "150804.667500", "150806.157500", "150807.647500", "150809.137500", "150810.627500", "150812.117500", "150813.607500", "150815.097500", "150816.587500", "150818.077500", "150819.567500", "150821.057500", "150822.547500", "150824.037500", "150825.527500", "150827.017500", "150828.507500", "150829.997500", "150831.487500", "150832.977500", "150834.467500", "150835.957500"],
      "ContentTime": ["150602.564000", "150602.568000", "150602.572000", "150602.575000", "150602.578000", "150602.581000", "150602.584000", "150602.587000", "150602.590000", "150602.593000", "150602.596000", "150602.599000", "150602.602000", "150602.609000", "150602.612000", "150602.615000", "150602.618000", "150602.621000", "150602.624000", "150602.627000", "150602.630000", "150602.633000", "150602.636000", "150602.639000", "150602.642000", "150602.651000", "150602.654000", "150622.529000", "150622.532000", "150622.543000", "150622.546000", "150622.549000", "150622.552000", "150622.555000", "150622.558000", "150622.561000", "150622.563000", "150622.566000", "150622.569000", "150622.572000", "150622.575000", "150622.578000", "150622.581000", "150622.584000", "150622.587000", "150622.590000", "150622.593000", "150622.596000", "150642.529000", "150642.532000", "150642.535000", "150642.538000", "150642.541000", "150642.544000", "150642.547000", "150642.550000", "150642.556000", "150642.559000", "150642.562000", "150642.565000", "150642.568000", "150642.571000", "150642.574000", "150642.577000", "150642.580000", "150642.583000", "150642.586000", "150642.589000", "150702.529000", "150702.532000", "150702.535000", "150702.538000", "150702.541000", "150702.544000", "150702.547000", "150702.550000", "150702.552000", "150702.555000", "150702.558000", "150702.564000", "150702.567000", "150702.570000", "150702.573000", "150702.576000", "150702.579000", "150702.582000", "150702.585000", "150702.588000", "150722.530000", "150722.533000", "150722.536000", "150722.539000", "150722.542000", "150722.545000", "150722.548000", "150722.551000", "150722.554000", "150722.557000", "150722.560000", "150722.563000", "150722.566000", "150722.569000", "150722.572000", "150722.575000", "150722.578000", "150722.581000", "150722.588000", "150722.591000", "150802.530000", "150802.533000", "150802.536000", "150802.539000", "150802.542000", "150802.545000", "150802.548000", "150802.551000", "150802.554000", "150802.566000", "150802.569000", "150802.572000", "150802.575000", "150802.578000", "150802.581000", "150802.584000", "150802.587000", "150802.590000", "150802.593000", "150802.596000", "150802.599000", "150802.602000", "150802.605000", "150802.608000", "150802.611000", "150802.613000", "150802.616000", "150837.714000", "150837.717000", "150837.720000", "150837.723000", "150837.726000", "150837.729000", "150837.732000", "150837.735000", "150837.738000", "150837.741000", "150837.744000", "150837.747000", "150837.750000", "150837.754000", "150837.757000", "150837.760000", "150837.763000", "150837.766000", "150837.770000", "150837.773000", "150837.776000", "150837.779000", "150837.782000", "150837.785000"],
      "InstanceCreationTime": ["150602.564000", "150602.568000", "150602.572000", "150602.575000", "150602.578000", "150602.581000", "150602.584000", "150602.587000", "150602.590000", "150602.593000", "150602.596000", "150602.599000", "150602.602000", "150602.609000", "150602.612000", "150602.615000", "150602.618000", "150602.621000", "150602.624000", "150602.627000", "150602.630000", "150602.633000", "150602.636000", "150602.639000", "150602.642000", "150602.651000", "150602.654000", "150622.529000", "150622.532000", "150622.543000", "150622.546000", "150622.549000", "150622.552000", "150622.555000", "150622.558000", "150622.561000", "150622.563000", "150622.566000", "150622.569000", "150622.572000", "150622.575000", "150622.578000", "150622.581000", "150622.584000", "150622.587000", "150622.590000", "150622.593000", "150622.596000", "150642.529000", "150642.532000", "150642.535000", "150642.538000", "150642.541000", "150642.544000", "150642.547000", "150642.550000", "150642.556000", "150642.559000", "150642.562000", "150642.565000", "150642.568000", "150642.571000", "150642.574000", "150642.577000", "150642.580000", "150642.583000", "150642.586000", "150642.589000", "150702.529000", "150702.532000", "150702.535000", "150702.538000", "150702.541000", "150702.544000", "150702.547000", "150702.550000", "150702.552000", "150702.555000", "150702.558000", "150702.564000", "150702.567000", "150702.570000", "150702.573000", "150702.576000", "150702.579000", "150702.582000", "150702.585000", "150702.588000", "150722.530000", "150722.533000", "150722.536000", "150722.539000", "150722.542000", "150722.545000", "150722.548000", "150722.551000", "150722.554000", "150722.557000", "150722.560000", "150722.563000", "150722.566000", "150722.569000", "150722.572000", "150722.575000", "150722.578000", "150722.581000", "150722.588000", "150722.591000", "150802.530000", "150802.533000", "150802.536000", "150802.539000", "150802.542000", "150802.545000", "150802.548000", "150802.551000", "150802.554000", "150802.566000", "150802.569000", "150802.572000", "150802.575000", "150802.578000", "150802.581000", "150802.584000", "150802.587000", "150802.590000", "150802.593000", "150802.596000", "150802.599000", "150802.602000", "150802.605000", "150802.608000", "150802.611000", "150802.613000", "150802.616000", "150837.714000", "150837.717000", "150837.720000", "150837.723000", "150837.726000", "150837.729000", "150837.732000", "150837.735000", "150837.738000", "150837.741000", "150837.744000", "150837.747000", "150837.750000", "150837.754000", "150837.757000", "150837.760000", "150837.763000", "150837.766000", "150837.770000", "150837.773000", "150837.776000", "150837.779000", "150837.782000", "150837.785000"],
      "InstanceNumber": [1, 2, 3, 4, 5, 6, 7, 8, 9, 10, 11, 12, 13, 14, 15, 16, 17, 18, 19, 20, 21, 22, 23, 24, 25, 26, 27, 28, 29, 30, 31, 32, 33, 34, 35, 36, 37, 38, 39, 40, 41, 42, 43, 44, 45, 46, 47, 48, 49, 50, 51, 52, 53, 54, 55, 56, 57, 58, 59, 60, 61, 62, 63, 64, 65, 66, 67, 68, 69, 70, 71, 72, 73, 74, 75, 76, 77, 78, 79, 80, 81, 82, 83, 84, 85, 86, 87, 88, 89, 90, 91, 92, 93, 94, 95, 96, 97, 98, 99, 100, 101, 102, 103, 104, 105, 106, 107, 108, 109, 110, 111, 112, 113, 114, 115, 116, 117, 118, 119, 120, 121, 122, 123, 124, 125, 126, 127, 128, 129, 130, 131, 132, 133, 134, 135, 136, 137, 138, 139, 140, 141, 142, 143, 144, 145, 146, 147, 148, 149, 150, 151, 152, 153, 154, 155, 156, 157, 158, 159],
      "LargestImagePixelValue": [42715, 41420, 40887, 40671, 40887, 40496, 40311, 40255, 40003, 40229, 40345, 40110, 39972, 40226, 40636, 40311, 40022, 39939, 40195, 40303, 40036, 40559, 40181, 39704, 39878, 39731, 39928, 40209, 40362, 40189, 40431, 39898, 40281, 39646, 39866, 40103, 40157, 40385, 40448, 39840, 40014, 39952, 39541, 40154, 40328, 39803, 39817, 40135, 40125, 40388, 39942, 40354, 40493, 40387, 40475, 39951, 39675, 39856, 40067, 40126, 39497, 40511, 40626, 39884, 40226, 39887, 40109, 40115, 40068, 39651, 39976, 40314, 39809, 39912, 40210, 40318, 39966, 40292, 40003, 40073, 39981, 39825, 39673, 39607, 39950, 40122, 39948, 40057, 40104, 39128, 40067, 39661, 40521, 39664, 39938, 40217, 39952, 40153, 39608, 40217, 39814, 39499, 39916, 40224, 39924, 39904, 39819, 39687, 39347, 40120, 39800, 39978, 40229, 40621, 40273, 40149, 39771, 39671, 39677, 39482, 39919, 40149, 40296, 40427, 39819, 39517, 39684, 40358, 39856, 39924, 40049, 39968, 40311, 40177, 40229, 40048, 40317, 39430, 39814, 39624, 40187, 39831, 39819, 40069, 39761, 40043, 39766, 39707, 39848, 40246, 39760, 39428, 40013, 39954, 40111, 39729, 40042, 39877, 38760],
      "WindowCenter": [9939.0, 9889.0, 9877.0, 9886.0, 9891.0, 9884.0, 9878.0, 9877.0, 9876.0, 9882.0, 9877.0, 9879.0, 9879.0, 9887.0, 9892.0, 9893.0, 9893.0, 9887.0, 9869.0, 9860.0, 9866.0, 9889.0, 9902.0, 9891.0, 9880.0, 9860.0, 9854.0, 9855.0, 9865.0, 9872.0, 9884.0, 9904.0, 9897.0, 9870.0, 9858.0, 9848.0, 9839.0, 9854.0, 9871.0, 9884.0, 9879.0, 9868.0, 9851.0, 9849.0, 9848.0, 9842.0, 9851.0, 9857.0, 9858.0, 9860.0, 9853.0, 9867.0, 9875.0, 9885.0, 9880.0, 9870.0, 9853.0, 9849.0, 9842.0, 9841.0, 9833.0, 9845.0, 9855.0, 9852.0, 9866.0, 9862.0, 9867.0, 9876.0, 9868.0, 9853.0, 9857.0, 9857.0, 9848.0, 9849.0, 9847.0, 9848.0, 9850.0, 9858.0, 9859.0, 9850.0, 9849.0, 9852.0, 9859.0, 9863.0, 9862.0, 9858.0, 9862.0, 9866.0, 9865.0, 9854.0, 9857.0, 9851.0, 9862.0, 9852.0, 9849.0, 9862.0, 9859.0, 9859.0, 9852.0, 9863.0, 9861.0, 9851.0, 9857.0, 9865.0, 9860.0, 9855.0, 9857.0, 9856.0, 9853.0, 9858.0, 9849.0, 9838.0, 9838.0, 9862.0, 9873.0, 9868.0, 9860.0, 9851.0, 9843.0, 9833.0, 9847.0, 9863.0, 9883.0, 9901.0, 9880.0, 9856.0, 9842.0, 9837.0, 9823.0, 9824.0, 9833.0, 9843.0, 9857.0, 9860.0, 9878.0, 9871.0, 9861.0, 9839.0, 9843.0, 9860.0, 9871.0, 9873.0, 9863.0, 9867.0, 9860.0, 9867.0, 9853.0, 9855.0, 9859.0, 9868.0, 9873.0, 9872.0, 9871.0, 9868.0, 9858.0, 9850.0, 9842.0, 9851.0, 9852.0],
      "WindowWidth": [21070.0, 20938.0, 20896.0, 20913.0, 20920.0, 20905.0, 20891.0, 20887.0, 20887.0, 20896.0, 20888.0, 20895.0, 20896.0, 20915.0, 20921.0, 20921.0, 20920.0, 20911.0, 20869.0, 20852.0, 20864.0, 20912.0, 20940.0, 20921.0, 20893.0, 20848.0, 20832.0, 20837.0, 20860.0, 20875.0, 20906.0, 20952.0, 20934.0, 20871.0, 20840.0, 20820.0, 20804.0, 20838.0, 20874.0, 20907.0, 20896.0, 20865.0, 20827.0, 20822.0, 20820.0, 20811.0, 20832.0, 20840.0, 20846.0, 20851.0, 20837.0, 20865.0, 20881.0, 20905.0, 20896.0, 20869.0, 20832.0, 20820.0, 20806.0, 20805.0, 20790.0, 20813.0, 20835.0, 20833.0, 20864.0, 20858.0, 20868.0, 20883.0, 20866.0, 20833.0, 20839.0, 20840.0, 20821.0, 20820.0, 20818.0, 20819.0, 20828.0, 20843.0, 20846.0, 20828.0, 20824.0, 20834.0, 20849.0, 20860.0, 20857.0, 20849.0, 20863.0, 20868.0, 20860.0, 20838.0, 20840.0, 20831.0, 20850.0, 20832.0, 20826.0, 20850.0, 20848.0, 20844.0, 20832.0, 20851.0, 20854.0, 20829.0, 20841.0, 20860.0, 20851.0, 20839.0, 20843.0, 20840.0, 20834.0, 20843.0, 20822.0, 20796.0, 20798.0, 20851.0, 20877.0, 20868.0, 20850.0, 20827.0, 20813.0, 20790.0, 20820.0, 20858.0, 20902.0, 20941.0, 20897.0, 20841.0, 20805.0, 20791.0, 20766.0, 20769.0, 20790.0, 20813.0, 20840.0, 20851.0, 20888.0, 20873.0, 20851.0, 20803.0, 20813.0, 20852.0, 20878.0, 20880.0, 20855.0, 20858.0, 20847.0, 20861.0, 20833.0, 20841.0, 20848.0, 20869.0, 20881.0, 20878.0, 20871.0, 20862.0, 20841.0, 20823.0, 20807.0, 20828.0, 20837.0]
    },
    "slices": {}
  }
}