{
  "AcquisitionMatrixPE": 104,
  "AcquisitionNumber": 1,
  "AcquisitionTime": "15:32:41.575000",
  "BandwidthPerPixelPhaseEncode": 17.17,
  "BaseResolution": 104,
  "BodyPartExamined": "BRAIN",
  "CoilString": "HC1-7;NC1_2",
  "ConsistencyInfo": "N4_VE11C_LATEST_20160120",
  "ConversionSoftware": "dcm2niix",
  "ConversionSoftwareVersion": "v1.0.20190720  (JP2:OpenJPEG) GCC7.3.0",
  "DerivedVendorReportedEchoSpacing": 0.000560011,
  "DeviceSerialNumber": "167006",
  "DwellTime": 2.1e-06,
  "EchoTime": 0.037,
  "EchoTrainLength": 104,
  "EffectiveEchoSpacing": 0.000560011,
  "FlipAngle": 52,
  "ImageComments": "Unaliased_MB4_PE3_LB",
  "ImageOrientationPatientDICOM": [0.999852, 0.012268, -0.0120392, -0.0157069, 0.936595, -0.350061],
  "ImageType": [
    "ORIGINAL",
    "PRIMARY",
    "M",
    "MB",
    "ND",
    "MOSAIC"
],
  "ImagingFrequency": 123.259,
  "InPlanePhaseEncodingDirectionDICOM": "COL",
  "InstitutionAddress": "Chemin_Queen-Mary_4565_Montreal_District_CA_H3W_1W5",
  "InstitutionName": "IUGM",
  "InstitutionalDepartmentName": "Department",
  "MRAcquisitionType": "2D",
  "MagneticFieldStrength": 3,
  "Manufacturer": "Siemens",
  "ManufacturersModelName": "Prisma_fit",
  "Modality": "MR",
  "MultibandAccelerationFactor": 4,
  "PartialFourier": 1,
  "PatientPosition": "HFS",
  "PercentPhaseFOV": 100,
  "PhaseEncodingDirection": "j-",
  "PhaseEncodingSteps": 104,
  "PhaseResolution": 1,
  "PixelBandwidth": 2290,
  "ProcedureStepDescription": "neuromod_scans",
  "ProtocolName": "func_task-wm_run-2",
  "PulseSequenceDetails": "%CustomerSeq%_cmrr_mbep2d_bold",
  "ReceiveCoilActiveElements": "HC1-7;NC1,2",
  "ReceiveCoilName": "HeadNeck_64",
  "ReconMatrixPE": 104,
  "RepetitionTime": 1.49,
  "SAR": 0.0292597,
  "ScanOptions": "FS",
  "ScanningSequence": "EP",
  "SequenceName": "epfid2d1_104",
  "SequenceVariant": "SK_SS",
  "SeriesDescription": "func_task-wm_run-2",
  "SeriesNumber": 31,
  "ShimSetting": [639, -7148, -8799, 648, 54, 148, -43, 7],
  "SliceThickness": 2,
  "SliceTiming": [0, 0.7825, 0.0975, 0.88, 0.195, 0.98, 0.2925, 1.0775, 0.39, 1.175, 0.49, 1.2725, 0.5875, 1.37, 0.685, 0, 0.7825, 0.0975, 0.88, 0.195, 0.98, 0.2925, 1.0775, 0.39, 1.175, 0.49, 1.2725, 0.5875, 1.37, 0.685, 0, 0.7825, 0.0975, 0.88, 0.195, 0.98, 0.2925, 1.0775, 0.39, 1.175, 0.49, 1.2725, 0.5875, 1.37, 0.685, 0, 0.7825, 0.0975, 0.88, 0.195, 0.98, 0.2925, 1.0775, 0.39, 1.175, 0.49, 1.2725, 0.5875, 1.37, 0.685],
  "SoftwareVersions": "syngo_MR_E11",
  "SpacingBetweenSlices": 2,
  "StationName": "MRC35049",
  "TaskName": "wm",
  "TotalReadoutTime": 0.0576811,
  "TxRefAmp": 209.094,
  "WipMemBlock": "8c5ad754-f5e4-4d07-804b-21367805dc46||Sequence: R016 ve11c/master r/e634e98; Dec 19 2017 11:00:25 by eja",
  "dcmmeta_affine": [
    [-1.9997044801712036, -0.03141387179493904, -0.01396251656115055, 109.09864044189453],
    [-0.024536043405532837, 1.8731900453567505, -0.7003976702690125, -66.29508972167969],
    [-0.02407832443714142, 0.7001229524612427, 1.8732987642288208, -64.61650848388672],
    [0.0, 0.0, 0.0, 1.0]
],
  "dcmmeta_reorient_transform": [
    [0.0, -1.0, 0.0, 103.0],
    [1.0, 0.0, 0.0, 0.0],
    [0.0, 0.0, 1.0, 0.0],
    [0.0, 0.0, 0.0, 1.0]
],
  "dcmmeta_shape": [104, 104, 60, 202],
  "dcmmeta_slice_dim": 2,
  "dcmmeta_version": 0.6,
  "global": {
    "const": {
      "AcquisitionMatrix": [104, 0, 0, 104],
      "AngioFlag": "N",
      "BitsAllocated": 16,
      "BitsStored": 16,
      "BodyPartExamined": "BRAIN",
      "Columns": 832,
      "EchoNumbers": 1,
      "EchoTime": 37.0,
      "EchoTrainLength": 104,
      "FlipAngle": 52.0,
      "HighBit": 15,
      "ImageOrientationPatient": [0.99985226619878, 0.01226802129759, -0.0120391623719, -0.015706935113, 0.93659503717076, -0.3500614639409],
      "ImagePositionPatient": [-822.32080992787, -817.41579751005, 271.10540953831],
      "ImageType": [
        "ORIGINAL",
        "PRIMARY",
        "M",
        "MB",
        "ND",
        "MOSAIC"
],
      "ImagedNucleus": "1H",
      "ImagingFrequency": 123.259382,
      "InPlanePhaseEncodingDirection": "COL",
      "MRAcquisitionType": "2D",
      "MagneticFieldStrength": 3.0,
      "Manufacturer": "SIEMENS",
      "ManufacturerModelName": "Prisma_fit",
      "Modality": "MR",
      "NumberOfAverages": 1.0,
      "NumberOfPhaseEncodingSteps": 104,
      "PercentPhaseFieldOfView": 100.0,
      "PercentSampling": 100.0,
      "PerformedProcedureStepStartTime": "140940.490000",
      "PhotometricInterpretation": "MONOCHROME2",
      "PixelBandwidth": 2290.0,
      "PixelRepresentation": 0,
      "PixelSpacing": [2.0, 2.0],
      "ProtocolName": "func_task-wm_run-2",
      "RepetitionTime": 1490.0,
      "Rows": 832,
      "SAR": 0.0292597135035,
      "SamplesPerPixel": 1,
      "ScanOptions": "FS",
      "ScanningSequence": "EP",
      "SequenceName": "epfid2d1_104",
      "SequenceVariant": [
        "SK",
        "SS"
],
      "SeriesDescription": "func_task-wm_run-2",
      "SeriesNumber": 31,
      "SeriesTime": "153403.638000",
      "SliceLocation": -38.068193950723,
      "SliceThickness": 2.0,
      "SmallestImagePixelValue": 0,
      "SoftwareVersions": "syngo MR E11",
      "SpacingBetweenSlices": 1.9999999870299,
      "SpecificCharacterSet": "ISO_IR 100",
      "StudyID": "1",
      "StudyTime": "140940.433000",
      "TransmitCoilName": "Body",
      "VariableFlipAngleFlag": "N",
      "WindowCenterWidthExplanation": "Algo1",
      "dBdt": 0.0},
    "slices": {}
  },
  "time": {
    "samples": {
      "AcquisitionNumber": [1, 2, 3, 4, 5, 6, 7, 8, 9, 10, 11, 12, 13, 14, 15, 16, 17, 18, 19, 20, 21, 22, 23, 24, 25, 26, 27, 28, 29, 30, 31, 32, 33, 34, 35, 36, 37, 38, 39, 40, 41, 42, 43, 44, 45, 46, 47, 48, 49, 50, 51, 52, 53, 54, 55, 56, 57, 58, 59, 60, 61, 62, 63, 64, 65, 66, 67, 68, 69, 70, 71, 72, 73, 74, 75, 76, 77, 78, 79, 80, 81, 82, 83, 84, 85, 86, 87, 88, 89, 90, 91, 92, 93, 94, 95, 96, 97, 98, 99, 100, 101, 102, 103, 104, 105, 106, 107, 108, 109, 110, 111, 112, 113, 114, 115, 116, 117, 118, 119, 120, 121, 122, 123, 124, 125, 126, 127, 128, 129, 130, 131, 132, 133, 134, 135, 136, 137, 138, 139, 140, 141, 142, 143, 144, 145, 146, 147, 148, 149, 150, 151, 152, 153, 154, 155, 156, 157, 158, 159, 160, 161, 162, 163, 164, 165, 166, 167, 168, 169, 170, 171, 172, 173, 174, 175, 176, 177, 178, 179, 180, 181, 182, 183, 184, 185, 186, 187, 188, 189, 190, 191, 192, 193, 194, 195, 196, 197, 198, 199, 200, 201, 202],
      "AcquisitionTime": ["153241.575000", "153243.065000", "153244.555000", "153246.045000", "153247.535000", "153249.025000", "153250.515000", "153252.005000", "153253.495000", "153254.985000", "153256.475000", "153257.965000", "153259.455000", "153300.945000", "153302.435000", "153303.925000", "153305.415000", "153306.905000", "153308.395000", "153309.885000", "153311.375000", "153312.865000", "153314.355000", "153315.845000", "153317.335000", "153318.825000", "153320.315000", "153321.805000", "153323.295000", "153324.785000", "153326.275000", "153327.765000", "153329.255000", "153330.745000", "153332.235000", "153333.725000", "153335.215000", "153336.705000", "153338.195000", "153339.685000", "153341.175000", "153342.665000", "153344.155000", "153345.645000", "153347.135000", "153348.625000", "153350.115000", "153351.605000", "153353.095000", "153354.585000", "153356.075000", "153357.565000", "153359.055000", "153400.545000", "153402.035000", "153403.525000", "153405.015000", "153406.505000", "153407.995000", "153409.485000", "153410.975000", "153412.465000", "153413.955000", "153415.445000", "153416.935000", "153418.425000", "153419.915000", "153421.405000", "153422.895000", "153424.385000", "153425.875000", "153427.365000", "153428.855000", "153430.345000", "153431.835000", "153433.325000", "153434.815000", "153436.305000", "153437.795000", "153439.285000", "153440.775000", "153442.265000", "153443.755000", "153445.245000", "153446.735000", "153448.225000", "153449.715000", "153451.205000", "153452.695000", "153454.185000", "153455.675000", "153457.165000", "153458.655000", "153500.145000", "153501.635000", "153503.125000", "153504.615000", "153506.105000", "153507.595000", "153509.085000", "153510.575000", "153512.065000", "153513.555000", "153515.045000", "153516.535000", "153518.025000", "153519.515000", "153521.005000", "153522.495000", "153523.985000", "153525.475000", "153526.965000", "153528.455000", "153529.945000", "153531.435000", "153532.925000", "153534.415000", "153535.905000", "153537.395000", "153538.885000", "153540.375000", "153541.865000", "153543.355000", "153544.845000", "153546.335000", "153547.825000", "153549.315000", "153550.805000", "153552.295000", "153553.785000", "153555.275000", "153556.765000", "153558.255000", "153559.745000", "153601.235000", "153602.725000", "153604.215000", "153605.705000", "153607.195000", "153608.685000", "153610.175000", "153611.665000", "153613.155000", "153614.645000", "153616.135000", "153617.625000", "153619.115000", "153620.605000", "153622.095000", "153623.585000", "153625.075000", "153626.565000", "153628.055000", "153629.545000", "153631.035000", "153632.525000", "153634.015000", "153635.505000", "153636.995000", "153638.485000", "153639.975000", "153641.465000", "153642.955000", "153644.445000", "153645.935000", "153647.425000", "153648.915000", "153650.405000", "153651.895000", "153653.385000", "153654.875000", "153656.365000", "153657.855000", "153659.345000", "153700.835000", "153702.325000", "153703.815000", "153705.305000", "153706.795000", "153708.285000", "153709.775000", "153711.265000", "153712.755000", "153714.245000", "153715.735000", "153717.225000", "153718.715000", "153720.205000", "153721.695000", "153723.185000", "153724.675000", "153726.165000", "153727.655000", "153729.145000", "153730.635000", "153732.125000", "153733.615000", "153735.105000", "153736.595000", "153738.085000", "153739.575000", "153741.065000"],
      "ContentTime": ["153403.640000", "153403.644000", "153403.659000", "153403.662000", "153403.665000", "153403.668000", "153403.671000", "153403.679000", "153403.682000", "153403.685000", "153403.688000", "153403.691000", "153403.694000", "153403.697000", "153403.700000", "153403.703000", "153403.706000", "153403.709000", "153403.712000", "153403.714000", "153403.725000", "153403.728000", "153403.731000", "153403.734000", "153403.737000", "153403.740000", "153403.742000", "153403.745000", "153403.748000", "153423.609000", "153423.612000", "153423.615000", "153423.618000", "153423.627000", "153423.630000", "153423.632000", "153423.635000", "153423.638000", "153423.641000", "153423.644000", "153423.647000", "153423.650000", "153423.653000", "153423.656000", "153423.659000", "153423.662000", "153423.665000", "153423.668000", "153423.671000", "153443.609000", "153443.612000", "153443.615000", "153443.618000", "153443.629000", "153443.632000", "153443.635000", "153443.638000", "153443.641000", "153443.644000", "153443.646000", "153443.657000", "153443.660000", "153443.663000", "153443.666000", "153443.669000", "153443.672000", "153443.675000", "153443.678000", "153443.681000", "153503.610000", "153503.613000", "153503.616000", "153503.619000", "153503.622000", "153503.625000", "153503.628000", "153503.630000", "153503.633000", "153503.636000", "153503.639000", "153503.642000", "153503.645000", "153503.648000", "153503.651000", "153503.654000", "153503.657000", "153503.660000", "153503.663000", "153503.666000", "153503.669000", "153543.610000", "153543.613000", "153543.616000", "153543.619000", "153543.622000", "153543.625000", "153543.628000", "153543.631000", "153543.634000", "153543.637000", "153543.640000", "153543.643000", "153543.645000", "153543.649000", "153543.657000", "153543.660000", "153543.663000", "153543.666000", "153543.669000", "153543.672000", "153543.675000", "153543.678000", "153543.681000", "153543.684000", "153543.687000", "153543.690000", "153543.706000", "153543.708000", "153543.711000", "153543.714000", "153543.717000", "153623.609000", "153623.612000", "153623.615000", "153623.618000", "153623.621000", "153623.624000", "153623.627000", "153623.630000", "153623.633000", "153623.636000", "153623.639000", "153623.642000", "153623.645000", "153623.647000", "153623.650000", "153623.653000", "153623.656000", "153623.659000", "153623.662000", "153623.665000", "153623.668000", "153623.671000", "153623.674000", "153623.677000", "153623.680000", "153623.689000", "153623.692000", "153703.609000", "153703.612000", "153703.615000", "153703.618000", "153703.621000", "153703.624000", "153703.627000", "153703.630000", "153703.633000", "153703.636000", "153703.639000", "153703.641000", "153703.644000", "153703.647000", "153703.650000", "153703.653000", "153703.656000", "153703.659000", "153703.662000", "153703.665000", "153703.668000", "153703.671000", "153703.674000", "153703.677000", "153703.680000", "153703.693000", "153703.696000", "153743.389000", "153743.392000", "153743.395000", "153743.398000", "153743.401000", "153743.404000", "153743.407000", "153743.410000", "153743.413000", "153743.416000", "153743.419000", "153743.422000", "153743.425000", "153743.428000", "153743.431000", "153743.434000", "153743.437000", "153743.440000", "153743.443000", "153743.446000", "153743.449000", "153743.452000", "153743.455000", "153743.458000", "153743.461000", "153743.464000", "153743.467000"],
      "InstanceCreationTime": ["153403.640000", "153403.644000", "153403.659000", "153403.662000", "153403.665000", "153403.668000", "153403.671000", "153403.679000", "153403.682000", "153403.685000", "153403.688000", "153403.691000", "153403.694000", "153403.697000", "153403.700000", "153403.703000", "153403.706000", "153403.709000", "153403.712000", "153403.714000", "153403.725000", "153403.728000", "153403.731000", "153403.734000", "153403.737000", "153403.740000", "153403.742000", "153403.745000", "153403.748000", "153423.609000", "153423.612000", "153423.615000", "153423.618000", "153423.627000", "153423.630000", "153423.632000", "153423.635000", "153423.638000", "153423.641000", "153423.644000", "153423.647000", "153423.650000", "153423.653000", "153423.656000", "153423.659000", "153423.662000", "153423.665000", "153423.668000", "153423.671000", "153443.609000", "153443.612000", "153443.615000", "153443.618000", "153443.629000", "153443.632000", "153443.635000", "153443.638000", "153443.641000", "153443.644000", "153443.646000", "153443.657000", "153443.660000", "153443.663000", "153443.666000", "153443.669000", "153443.672000", "153443.675000", "153443.678000", "153443.681000", "153503.610000", "153503.613000", "153503.616000", "153503.619000", "153503.622000", "153503.625000", "153503.628000", "153503.630000", "153503.633000", "153503.636000", "153503.639000", "153503.642000", "153503.645000", "153503.648000", "153503.651000", "153503.654000", "153503.657000", "153503.660000", "153503.663000", "153503.666000", "153503.669000", "153543.610000", "153543.613000", "153543.616000", "153543.619000", "153543.622000", "153543.625000", "153543.628000", "153543.631000", "153543.634000", "153543.637000", "153543.640000", "153543.643000", "153543.645000", "153543.649000", "153543.657000", "153543.660000", "153543.663000", "153543.666000", "153543.669000", "153543.672000", "153543.675000", "153543.678000", "153543.681000", "153543.684000", "153543.687000", "153543.690000", "153543.706000", "153543.708000", "153543.711000", "153543.714000", "153543.717000", "153623.609000", "153623.612000", "153623.615000", "153623.618000", "153623.621000", "153623.624000", "153623.627000", "153623.630000", "153623.633000", "153623.636000", "153623.639000", "153623.642000", "153623.645000", "153623.647000", "153623.650000", "153623.653000", "153623.656000", "153623.659000", "153623.662000", "153623.665000", "153623.668000", "153623.671000", "153623.674000", "153623.677000", "153623.680000", "153623.689000", "153623.692000", "153703.609000", "153703.612000", "153703.615000", "153703.618000", "153703.621000", "153703.624000", "153703.627000", "153703.630000", "153703.633000", "153703.636000", "153703.639000", "153703.641000", "153703.644000", "153703.647000", "153703.650000", "153703.653000", "153703.656000", "153703.659000", "153703.662000", "153703.665000", "153703.668000", "153703.671000", "153703.674000", "153703.677000", "153703.680000", "153703.693000", "153703.696000", "153743.389000", "153743.392000", "153743.395000", "153743.398000", "153743.401000", "153743.404000", "153743.407000", "153743.410000", "153743.413000", "153743.416000", "153743.419000", "153743.422000", "153743.425000", "153743.428000", "153743.431000", "153743.434000", "153743.437000", "153743.440000", "153743.443000", "153743.446000", "153743.449000", "153743.452000", "153743.455000", "153743.458000", "153743.461000", "153743.464000", "153743.467000"],
      "InstanceNumber": [1, 2, 3, 4, 5, 6, 7, 8, 9, 10, 11, 12, 13, 14, 15, 16, 17, 18, 19, 20, 21, 22, 23, 24, 25, 26, 27, 28, 29, 30, 31, 32, 33, 34, 35, 36, 37, 38, 39, 40, 41, 42, 43, 44, 45, 46, 47, 48, 49, 50, 51, 52, 53, 54, 55, 56, 57, 58, 59, 60, 61, 62, 63, 64, 65, 66, 67, 68, 69, 70, 71, 72, 73, 74, 75, 76, 77, 78, 79, 80, 81, 82, 83, 84, 85, 86, 87, 88, 89, 90, 91, 92, 93, 94, 95, 96, 97, 98, 99, 100, 101, 102, 103, 104, 105, 106, 107, 108, 109, 110, 111, 112, 113, 114, 115, 116, 117, 118, 119, 120, 121, 122, 123, 124, 125, 126, 127, 128, 129, 130, 131, 132, 133, 134, 135, 136, 137, 138, 139, 140, 141, 142, 143, 144, 145, 146, 147, 148, 149, 150, 151, 152, 153, 154, 155, 156, 157, 158, 159, 160, 161, 162, 163, 164, 165, 166, 167, 168, 169, 170, 171, 172, 173, 174, 175, 176, 177, 178, 179, 180, 181, 182, 183, 184, 185, 186, 187, 188, 189, 190, 191, 192, 193, 194, 195, 196, 197, 198, 199, 200, 201, 202],
      "LargestImagePixelValue": [39432, 38228, 38474, 37909, 37814, 37637, 37630, 37737, 37376, 37393, 37977, 38209, 37721, 37064, 37923, 37908, 37705, 37646, 37745, 38162, 37338, 37925, 38019, 37947, 38051, 37593, 37844, 37704, 37670, 37790, 37597, 37721, 37608, 37587, 37489, 37868, 37305, 37534, 37887, 37808, 37279, 37504, 37932, 37658, 37854, 37532, 37888, 37700, 37795, 37681, 37459, 37660, 37833, 37438, 38091, 37978, 37595, 37298, 37688, 37365, 38017, 37478, 37325, 37396, 37895, 37906, 37992, 38030, 37953, 37667, 37617, 37548, 37667, 37930, 37534, 37843, 37251, 37729, 37602, 37814, 37219, 38183, 37588, 37479, 37247, 37585, 37704, 37491, 37543, 37393, 37637, 37984, 37732, 37766, 37640, 37858, 37772, 37566, 37645, 37465, 37645, 37444, 37568, 37765, 37743, 37475, 37700, 37778, 37437, 37339, 37271, 37627, 37512, 37902, 37401, 37657, 37708, 37957, 37669, 37712, 37623, 37728, 37622, 37405, 37670, 37558, 37517, 37606, 37689, 37649, 37390, 37876, 37486, 37550, 37505, 37717, 37377, 37982, 37715, 37595, 37479, 37503, 37504, 37726, 37244, 37472, 37516, 37921, 37784, 37305, 37463, 37414, 37595, 37314, 37744, 37577, 37632, 37528, 37444, 37566, 37565, 37635, 37481, 37664, 37327, 37659, 37436, 37179, 37543, 37538, 37737, 37448, 37310, 37355, 37325, 37604, 37878, 37854, 37871, 37470, 37367, 37195, 37546, 37748, 37403, 37350, 37987, 37595, 37645, 37736, 37474, 37641, 37465, 37642, 37502, 37373, 37354, 37584, 37266, 37551, 37407, 37535],
      "WindowCenter": [9967.0, 9934.0, 9921.0, 9905.0, 9895.0, 9900.0, 9909.0, 9909.0, 9895.0, 9894.0, 9892.0, 9897.0, 9892.0, 9896.0, 9901.0, 9894.0, 9909.0, 9903.0, 9909.0, 9902.0, 9887.0, 9891.0, 9880.0, 9879.0, 9882.0, 9886.0, 9884.0, 9875.0, 9892.0, 9903.0, 9912.0, 9903.0, 9901.0, 9893.0, 9892.0, 9894.0, 9903.0, 9896.0, 9901.0, 9894.0, 9896.0, 9896.0, 9903.0, 9894.0, 9895.0, 9887.0, 9885.0, 9875.0, 9876.0, 9894.0, 9897.0, 9910.0, 9898.0, 9888.0, 9893.0, 9893.0, 9896.0, 9897.0, 9905.0, 9907.0, 9903.0, 9890.0, 9897.0, 9912.0, 9923.0, 9921.0, 9921.0, 9912.0, 9902.0, 9886.0, 9884.0, 9887.0, 9897.0, 9896.0, 9887.0, 9886.0, 9890.0, 9904.0, 9897.0, 9886.0, 9872.0, 9883.0, 9888.0, 9899.0, 9900.0, 9898.0, 9905.0, 9897.0, 9907.0, 9914.0, 9916.0, 9913.0, 9898.0, 9895.0, 9895.0, 9911.0, 9903.0, 9904.0, 9904.0, 9897.0, 9903.0, 9890.0, 9889.0, 9886.0, 9885.0, 9886.0, 9896.0, 9898.0, 9899.0, 9896.0, 9891.0, 9903.0, 9914.0, 9922.0, 9916.0, 9915.0, 9904.0, 9897.0, 9886.0, 9888.0, 9886.0, 9886.0, 9886.0, 9887.0, 9888.0, 9881.0, 9878.0, 9878.0, 9893.0, 9896.0, 9896.0, 9890.0, 9881.0, 9880.0, 9883.0, 9897.0, 9908.0, 9905.0, 9898.0, 9891.0, 9889.0, 9887.0, 9879.0, 9892.0, 9884.0, 9889.0, 9889.0, 9895.0, 9896.0, 9873.0, 9870.0, 9872.0, 9886.0, 9890.0, 9897.0, 9891.0, 9899.0, 9891.0, 9890.0, 9880.0, 9881.0, 9885.0, 9880.0, 9879.0, 9877.0, 9885.0, 9889.0, 9898.0, 9898.0, 9897.0, 9896.0, 9882.0, 9882.0, 9888.0, 9898.0, 9913.0, 9908.0, 9906.0, 9905.0, 9906.0, 9905.0, 9892.0, 9898.0, 9896.0, 9884.0, 9888.0, 9894.0, 9880.0, 9868.0, 9858.0, 9870.0, 9897.0, 9906.0, 9888.0, 9871.0, 9862.0, 9870.0, 9879.0, 9882.0, 9889.0, 9890.0, 9873.0],
      "WindowWidth": [21127.0, 21042.0, 21000.0, 20960.0, 20934.0, 20946.0, 20965.0, 20965.0, 20934.0, 20930.0, 20924.0, 20933.0, 20926.0, 20938.0, 20948.0, 20932.0, 20963.0, 20953.0, 20966.0, 20949.0, 20918.0, 20920.0, 20896.0, 20891.0, 20901.0, 20912.0, 20905.0, 20886.0, 20923.0, 20953.0, 20975.0, 20952.0, 20943.0, 20927.0, 20925.0, 20930.0, 20949.0, 20936.0, 20945.0, 20931.0, 20938.0, 20937.0, 20950.0, 20931.0, 20930.0, 20915.0, 20908.0, 20884.0, 20886.0, 20926.0, 20936.0, 20963.0, 20938.0, 20917.0, 20926.0, 20926.0, 20934.0, 20936.0, 20957.0, 20961.0, 20949.0, 20923.0, 20938.0, 20971.0, 20999.0, 20994.0, 20991.0, 20971.0, 20948.0, 20908.0, 20903.0, 20914.0, 20936.0, 20935.0, 20914.0, 20909.0, 20922.0, 20953.0, 20939.0, 20910.0, 20881.0, 20901.0, 20917.0, 20945.0, 20948.0, 20942.0, 20953.0, 20940.0, 20960.0, 20977.0, 20984.0, 20972.0, 20937.0, 20927.0, 20930.0, 20965.0, 20948.0, 20951.0, 20947.0, 20935.0, 20946.0, 20922.0, 20919.0, 20908.0, 20903.0, 20910.0, 20935.0, 20940.0, 20942.0, 20933.0, 20926.0, 20951.0, 20978.0, 20995.0, 20982.0, 20978.0, 20954.0, 20936.0, 20910.0, 20914.0, 20912.0, 20911.0, 20909.0, 20912.0, 20916.0, 20901.0, 20891.0, 20892.0, 20924.0, 20932.0, 20934.0, 20922.0, 20901.0, 20897.0, 20906.0, 20938.0, 20962.0, 20955.0, 20939.0, 20923.0, 20919.0, 20912.0, 20895.0, 20919.0, 20909.0, 20919.0, 20917.0, 20927.0, 20928.0, 20882.0, 20872.0, 20878.0, 20910.0, 20922.0, 20937.0, 20926.0, 20942.0, 20925.0, 20919.0, 20899.0, 20899.0, 20908.0, 20898.0, 20895.0, 20890.0, 20907.0, 20919.0, 20939.0, 20938.0, 20935.0, 20930.0, 20906.0, 20906.0, 20916.0, 20939.0, 20973.0, 20963.0, 20957.0, 20953.0, 20954.0, 20952.0, 20929.0, 20936.0, 20931.0, 20907.0, 20914.0, 20925.0, 20894.0, 20864.0, 20843.0, 20870.0, 20932.0, 20953.0, 20912.0, 20872.0, 20850.0, 20868.0, 20894.0, 20900.0, 20913.0, 20916.0, 20880.0]
    },
    "slices": {}
  }
}