{
  "AcquisitionMatrixPE": 104,
  "AcquisitionNumber": 1,
  "AcquisitionTime": "15:22:38.380000",
  "BandwidthPerPixelPhaseEncode": 17.17,
  "BaseResolution": 104,
  "BodyPartExamined": "BRAIN",
  "CoilString": "HC1-7;NC1_2",
  "ConsistencyInfo": "N4_VE11C_LATEST_20160120",
  "ConversionSoftware": "dcm2niix",
  "ConversionSoftwareVersion": "v1.0.20190720  (JP2:OpenJPEG) GCC7.3.0",
  "DerivedVendorReportedEchoSpacing": 0.000560011,
  "DeviceSerialNumber": "167006",
  "DwellTime": 2.1e-06,
  "EchoTime": 0.037,
  "EchoTrainLength": 104,
  "EffectiveEchoSpacing": 0.000560011,
  "FlipAngle": 52,
  "ImageComments": "Unaliased_MB4_PE3_LB",
  "ImageOrientationPatientDICOM": [0.999939, -0.00858964, -0.00689652, 0.00558479, 0.93495, -0.354735],
  "ImageType": [
    "ORIGINAL",
    "PRIMARY",
    "M",
    "MB",
    "ND",
    "MOSAIC"
],
  "ImagingFrequency": 123.259,
  "InPlanePhaseEncodingDirectionDICOM": "COL",
  "InstitutionAddress": "Chemin_Queen-Mary_4565_Montreal_District_CA_H3W_1W5",
  "InstitutionName": "IUGM",
  "InstitutionalDepartmentName": "Department",
  "MRAcquisitionType": "2D",
  "MagneticFieldStrength": 3,
  "Manufacturer": "Siemens",
  "ManufacturersModelName": "Prisma_fit",
  "Modality": "MR",
  "MultibandAccelerationFactor": 4,
  "PartialFourier": 1,
  "PatientPosition": "HFS",
  "PercentPhaseFOV": 100,
  "PhaseEncodingDirection": "j",
  "PhaseEncodingSteps": 104,
  "PhaseResolution": 1,
  "PixelBandwidth": 2290,
  "ProcedureStepDescription": "neuromod_scans",
  "ProtocolName": "func_task-language_run-2",
  "PulseSequenceDetails": "%CustomerSeq%_cmrr_mbep2d_bold",
  "ReceiveCoilActiveElements": "HC1-7;NC1,2",
  "ReceiveCoilName": "HeadNeck_64",
  "ReconMatrixPE": 104,
  "RepetitionTime": 1.49,
  "SAR": 0.0291855,
  "ScanOptions": "FS",
  "ScanningSequence": "EP",
  "SequenceName": "epfid2d1_104",
  "SequenceVariant": "SK_SS",
  "SeriesDescription": "func_task-language_run-2",
  "SeriesNumber": 27,
  "ShimSetting": [639, -7148, -8799, 648, 54, 148, -43, 7],
  "SliceThickness": 2,
  "SliceTiming": [0, 0.785, 0.1, 0.8825, 0.1975, 0.98, 0.295, 1.08, 0.3925, 1.1775, 0.49, 1.275, 0.59, 1.3725, 0.6875, 0, 0.785, 0.1, 0.8825, 0.1975, 0.98, 0.295, 1.08, 0.3925, 1.1775, 0.49, 1.275, 0.59, 1.3725, 0.6875, 0, 0.785, 0.1, 0.8825, 0.1975, 0.98, 0.295, 1.08, 0.3925, 1.1775, 0.49, 1.275, 0.59, 1.3725, 0.6875, 0, 0.785, 0.1, 0.8825, 0.1975, 0.98, 0.295, 1.08, 0.3925, 1.1775, 0.49, 1.275, 0.59, 1.3725, 0.6875],
  "SoftwareVersions": "syngo_MR_E11",
  "SpacingBetweenSlices": 2,
  "StationName": "MRC35049",
  "TaskName": "language",
  "TotalReadoutTime": 0.0576811,
  "TxRefAmp": 209.094,
  "WipMemBlock": "76207958-286b-48a3-8297-86c40542efbd||Sequence: R016 ve11c/master r/e634e98; Dec 19 2017 11:00:25 by eja",
  "dcmmeta_affine": [
    [-1.9998786449432373, 0.011169579811394215, -0.018989894539117813, 108.24323272705078],
    [0.017179280519485474, 1.8699004650115967, -0.7093497514724731, -67.34629821777344],
    [-0.013793036341667175, 0.7094697952270508, 1.8698830604553223, -65.08641815185547],
    [0.0, 0.0, 0.0, 1.0]
],
  "dcmmeta_reorient_transform": [
    [0.0, -1.0, 0.0, 103.0],
    [1.0, 0.0, 0.0, 0.0],
    [0.0, 0.0, 1.0, 0.0],
    [0.0, 0.0, 0.0, 1.0]
],
  "dcmmeta_shape": [104, 104, 60, 159],
  "dcmmeta_slice_dim": 2,
  "dcmmeta_version": 0.6,
  "global": {
    "const": {
      "AcquisitionMatrix": [104, 0, 0, 104],
      "AngioFlag": "N",
      "BitsAllocated": 16,
      "BitsStored": 16,
      "BodyPartExamined": "BRAIN",
      "Columns": 832,
      "EchoNumbers": 1,
      "EchoTime": 37.0,
      "EchoTrainLength": 104,
      "FlipAngle": 52.0,
      "HighBit": 15,
      "ImageOrientationPatient": [0.99993932621415, -0.0085896405944, -0.006896518314, 0.00558478971236, 0.93495024576292, -0.3547348982997],
      "ImagePositionPatient": [-841.41525686037, -799.64397456527, 271.25663969376],
      "ImageType": [
        "ORIGINAL",
        "PRIMARY",
        "M",
        "MB",
        "ND",
        "MOSAIC"
],
      "ImagedNucleus": "1H",
      "ImagingFrequency": 123.259383,
      "InPlanePhaseEncodingDirection": "COL",
      "MRAcquisitionType": "2D",
      "MagneticFieldStrength": 3.0,
      "Manufacturer": "SIEMENS",
      "ManufacturerModelName": "Prisma_fit",
      "Modality": "MR",
      "NumberOfAverages": 1.0,
      "NumberOfPhaseEncodingSteps": 104,
      "PercentPhaseFieldOfView": 100.0,
      "PercentSampling": 100.0,
      "PerformedProcedureStepStartTime": "140940.490000",
      "PhotometricInterpretation": "MONOCHROME2",
      "PixelBandwidth": 2290.0,
      "PixelRepresentation": 0,
      "PixelSpacing": [2.0, 2.0],
      "ProtocolName": "func_task-language_run-2",
      "RepetitionTime": 1490.0,
      "Rows": 832,
      "SAR": 0.0291855161852,
      "SamplesPerPixel": 1,
      "ScanOptions": "FS",
      "ScanningSequence": "EP",
      "SequenceName": "epfid2d1_104",
      "SequenceVariant": [
        "SK",
        "SS"
],
      "SeriesDescription": "func_task-language_run-2",
      "SeriesNumber": 27,
      "SeriesTime": "152332.338000",
      "SliceLocation": -37.993720554952,
      "SliceThickness": 2.0,
      "SmallestImagePixelValue": 0,
      "SoftwareVersions": "syngo MR E11",
      "SpacingBetweenSlices": 2.0000000499686,
      "SpecificCharacterSet": "ISO_IR 100",
      "StudyID": "1",
      "StudyTime": "140940.433000",
      "TransmitCoilName": "Body",
      "VariableFlipAngleFlag": "N",
      "WindowCenterWidthExplanation": "Algo1",
      "dBdt": 0.0},
    "slices": {}
  },
  "time": {
    "samples": {
      "AcquisitionNumber": [1, 2, 3, 4, 5, 6, 7, 8, 9, 10, 11, 12, 13, 14, 15, 16, 17, 18, 19, 20, 21, 22, 23, 24, 25, 26, 27, 28, 29, 30, 31, 32, 33, 34, 35, 36, 37, 38, 39, 40, 41, 42, 43, 44, 45, 46, 47, 48, 49, 50, 51, 52, 53, 54, 55, 56, 57, 58, 59, 60, 61, 62, 63, 64, 65, 66, 67, 68, 69, 70, 71, 72, 73, 74, 75, 76, 77, 78, 79, 80, 81, 82, 83, 84, 85, 86, 87, 88, 89, 90, 91, 92, 93, 94, 95, 96, 97, 98, 99, 100, 101, 102, 103, 104, 105, 106, 107, 108, 109, 110, 111, 112, 113, 114, 115, 116, 117, 118, 119, 120, 121, 122, 123, 124, 125, 126, 127, 128, 129, 130, 131, 132, 133, 134, 135, 136, 137, 138, 139, 140, 141, 142, 143, 144, 145, 146, 147, 148, 149, 150, 151, 152, 153, 154, 155, 156, 157, 158, 159],
      "AcquisitionTime": ["152238.380000", "152239.870000", "152241.360000", "152242.850000", "152244.340000", "152245.830000", "152247.320000", "152248.810000", "152250.300000", "152251.790000", "152253.280000", "152254.770000", "152256.260000", "152257.750000", "152259.240000", "152300.730000", "152302.220000", "152303.710000", "152305.200000", "152306.690000", "152308.180000", "152309.670000", "152311.160000", "152312.650000", "152314.140000", "152315.630000", "152317.120000", "152318.610000", "152320.100000", "152321.590000", "152323.080000", "152324.570000", "152326.060000", "152327.550000", "152329.040000", "152330.530000", "152332.020000", "152333.510000", "152335.000000", "152336.490000", "152337.980000", "152339.470000", "152340.960000", "152342.450000", "152343.940000", "152345.430000", "152346.920000", "152348.410000", "152349.900000", "152351.390000", "152352.880000", "152354.370000", "152355.860000", "152357.350000", "152358.840000", "152400.330000", "152401.820000", "152403.310000", "152404.800000", "152406.290000", "152407.780000", "152409.270000", "152410.760000", "152412.250000", "152413.740000", "152415.230000", "152416.720000", "152418.210000", "152419.700000", "152421.190000", "152422.680000", "152424.170000", "152425.660000", "152427.150000", "152428.640000", "152430.130000", "152431.620000", "152433.110000", "152434.600000", "152436.090000", "152437.580000", "152439.070000", "152440.560000", "152442.050000", "152443.540000", "152445.030000", "152446.520000", "152448.010000", "152449.500000", "152450.990000", "152452.480000", "152453.970000", "152455.460000", "152456.950000", "152458.440000", "152459.930000", "152501.420000", "152502.910000", "152504.400000", "152505.890000", "152507.380000", "152508.870000", "152510.360000", "152511.850000", "152513.340000", "152514.830000", "152516.320000", "152517.810000", "152519.300000", "152520.790000", "152522.280000", "152523.770000", "152525.260000", "152526.750000", "152528.240000", "152529.730000", "152531.220000", "152532.710000", "152534.200000", "152535.690000", "152537.180000", "152538.670000", "152540.160000", "152541.650000", "152543.140000", "152544.630000", "152546.120000", "152547.610000", "152549.100000", "152550.590000", "152552.080000", "152553.570000", "152555.060000", "152556.550000", "152558.040000", "152559.530000", "152601.020000", "152602.510000", "152604.000000", "152605.490000", "152606.980000", "152608.470000", "152609.960000", "152611.450000", "152612.940000", "152614.430000", "152615.920000", "152617.410000", "152618.900000", "152620.390000", "152621.880000", "152623.370000", "152624.860000", "152626.350000", "152627.840000", "152629.330000", "152630.820000", "152632.310000", "152633.800000"],
      "ContentTime": ["152332.340000", "152352.309000", "152352.312000", "152352.315000", "152352.318000", "152352.321000", "152352.329000", "152352.332000", "152352.335000", "152352.338000", "152352.341000", "152352.344000", "152352.347000", "152352.350000", "152352.353000", "152352.356000", "152352.359000", "152352.361000", "152352.364000", "152352.367000", "152352.370000", "152352.373000", "152412.308000", "152412.311000", "152412.314000", "152412.317000", "152412.320000", "152412.323000", "152412.326000", "152412.329000", "152412.332000", "152412.334000", "152412.337000", "152412.340000", "152412.343000", "152412.346000", "152412.349000", "152412.352000", "152412.355000", "152412.358000", "152412.361000", "152412.363000", "152432.308000", "152432.311000", "152432.314000", "152432.317000", "152432.320000", "152432.323000", "152432.326000", "152432.329000", "152432.332000", "152432.335000", "152432.338000", "152432.341000", "152432.343000", "152432.346000", "152432.349000", "152432.352000", "152432.355000", "152432.358000", "152432.361000", "152432.364000", "152452.309000", "152452.312000", "152452.315000", "152452.334000", "152452.337000", "152452.340000", "152452.343000", "152452.346000", "152452.349000", "152452.352000", "152452.355000", "152452.358000", "152452.361000", "152452.364000", "152452.374000", "152452.377000", "152452.380000", "152452.383000", "152452.386000", "152452.389000", "152512.309000", "152512.312000", "152512.315000", "152512.318000", "152512.321000", "152512.324000", "152512.327000", "152512.330000", "152512.333000", "152512.336000", "152512.339000", "152512.342000", "152512.345000", "152512.348000", "152512.351000", "152512.354000", "152512.357000", "152512.360000", "152512.363000", "152512.366000", "152552.309000", "152552.312000", "152552.315000", "152552.318000", "152552.321000", "152552.324000", "152552.332000", "152552.335000", "152552.337000", "152552.340000", "152552.343000", "152552.346000", "152552.349000", "152552.352000", "152552.355000", "152552.358000", "152552.361000", "152552.364000", "152552.367000", "152552.370000", "152552.373000", "152552.376000", "152552.379000", "152552.382000", "152552.385000", "152552.388000", "152552.391000", "152552.394000", "152632.308000", "152632.311000", "152632.314000", "152632.317000", "152632.320000", "152632.323000", "152632.331000", "152632.334000", "152632.337000", "152632.340000", "152632.343000", "152632.346000", "152632.349000", "152632.352000", "152632.355000", "152632.358000", "152632.361000", "152632.364000", "152632.367000", "152632.370000", "152632.373000", "152632.376000", "152632.379000", "152632.382000", "152632.385000", "152632.388000", "152635.439000", "152635.442000", "152635.445000"],
      "InstanceCreationTime": ["152332.340000", "152352.309000", "152352.312000", "152352.315000", "152352.318000", "152352.321000", "152352.329000", "152352.332000", "152352.335000", "152352.338000", "152352.341000", "152352.344000", "152352.347000", "152352.350000", "152352.353000", "152352.356000", "152352.359000", "152352.361000", "152352.364000", "152352.367000", "152352.370000", "152352.373000", "152412.308000", "152412.311000", "152412.314000", "152412.317000", "152412.320000", "152412.323000", "152412.326000", "152412.329000", "152412.332000", "152412.334000", "152412.337000", "152412.340000", "152412.343000", "152412.346000", "152412.349000", "152412.352000", "152412.355000", "152412.358000", "152412.361000", "152412.363000", "152432.308000", "152432.311000", "152432.314000", "152432.317000", "152432.320000", "152432.323000", "152432.326000", "152432.329000", "152432.332000", "152432.335000", "152432.338000", "152432.341000", "152432.343000", "152432.346000", "152432.349000", "152432.352000", "152432.355000", "152432.358000", "152432.361000", "152432.364000", "152452.309000", "152452.312000", "152452.315000", "152452.334000", "152452.337000", "152452.340000", "152452.343000", "152452.346000", "152452.349000", "152452.352000", "152452.355000", "152452.358000", "152452.361000", "152452.364000", "152452.374000", "152452.377000", "152452.380000", "152452.383000", "152452.386000", "152452.389000", "152512.309000", "152512.312000", "152512.315000", "152512.318000", "152512.321000", "152512.324000", "152512.327000", "152512.330000", "152512.333000", "152512.336000", "152512.339000", "152512.342000", "152512.345000", "152512.348000", "152512.351000", "152512.354000", "152512.357000", "152512.360000", "152512.363000", "152512.366000", "152552.309000", "152552.312000", "152552.315000", "152552.318000", "152552.321000", "152552.324000", "152552.332000", "152552.335000", "152552.337000", "152552.340000", "152552.343000", "152552.346000", "152552.349000", "152552.352000", "152552.355000", "152552.358000", "152552.361000", "152552.364000", "152552.367000", "152552.370000", "152552.373000", "152552.376000", "152552.379000", "152552.382000", "152552.385000", "152552.388000", "152552.391000", "152552.394000", "152632.308000", "152632.311000", "152632.314000", "152632.317000", "152632.320000", "152632.323000", "152632.331000", "152632.334000", "152632.337000", "152632.340000", "152632.343000", "152632.346000", "152632.349000", "152632.352000", "152632.355000", "152632.358000", "152632.361000", "152632.364000", "152632.367000", "152632.370000", "152632.373000", "152632.376000", "152632.379000", "152632.382000", "152632.385000", "152632.388000", "152635.439000", "152635.442000", "152635.445000"],
      "InstanceNumber": [1, 2, 3, 4, 5, 6, 7, 8, 9, 10, 11, 12, 13, 14, 15, 16, 17, 18, 19, 20, 21, 22, 23, 24, 25, 26, 27, 28, 29, 30, 31, 32, 33, 34, 35, 36, 37, 38, 39, 40, 41, 42, 43, 44, 45, 46, 47, 48, 49, 50, 51, 52, 53, 54, 55, 56, 57, 58, 59, 60, 61, 62, 63, 64, 65, 66, 67, 68, 69, 70, 71, 72, 73, 74, 75, 76, 77, 78, 79, 80, 81, 82, 83, 84, 85, 86, 87, 88, 89, 90, 91, 92, 93, 94, 95, 96, 97, 98, 99, 100, 101, 102, 103, 104, 105, 106, 107, 108, 109, 110, 111, 112, 113, 114, 115, 116, 117, 118, 119, 120, 121, 122, 123, 124, 125, 126, 127, 128, 129, 130, 131, 132, 133, 134, 135, 136, 137, 138, 139, 140, 141, 142, 143, 144, 145, 146, 147, 148, 149, 150, 151, 152, 153, 154, 155, 156, 157, 158, 159],
      "LargestImagePixelValue": [41106, 39893, 39351, 39057, 38411, 39021, 38452, 39003, 38297, 38638, 38642, 39000, 38074, 38771, 38645, 39143, 38350, 38015, 38509, 38940, 38686, 38881, 38751, 38740, 38185, 38782, 38452, 38987, 38286, 39076, 39421, 38630, 38694, 38855, 38956, 38961, 39151, 38731, 39492, 39023, 38968, 39008, 39610, 39140, 39691, 39344, 39281, 39194, 39579, 39073, 38502, 39206, 39479, 39290, 39649, 39428, 39322, 39272, 38968, 39139, 39410, 39491, 38943, 39394, 38659, 38809, 39024, 39049, 39179, 39251, 38738, 38899, 39012, 38701, 39198, 39084, 38668, 38860, 39349, 39669, 39269, 39238, 38174, 39157, 39342, 39723, 39201, 39089, 39357, 39458, 38371, 39179, 38878, 39915, 39678, 39447, 39279, 40026, 39425, 39730, 39617, 39331, 38982, 39246, 39357, 39704, 39691, 39265, 39652, 39265, 39296, 39584, 39741, 38817, 39259, 39445, 39767, 39324, 39268, 39474, 39004, 39217, 39280, 39508, 39499, 39160, 39165, 39669, 39711, 39783, 39007, 38934, 39087, 39487, 38881, 39211, 38653, 39189, 38876, 39111, 39054, 38917, 38866, 39558, 39044, 38879, 39097, 38837, 38930, 38673, 39201, 38785, 38724, 38413, 38782, 38677, 39022, 39243, 38750],
      "WindowCenter": [9902.0, 9866.0, 9854.0, 9861.0, 9855.0, 9846.0, 9844.0, 9859.0, 9845.0, 9844.0, 9844.0, 9858.0, 9848.0, 9853.0, 9837.0, 9841.0, 9841.0, 9836.0, 9844.0, 9843.0, 9835.0, 9838.0, 9830.0, 9841.0, 9838.0, 9844.0, 9827.0, 9813.0, 9807.0, 9835.0, 9845.0, 9824.0, 9814.0, 9814.0, 9822.0, 9829.0, 9819.0, 9820.0, 9827.0, 9836.0, 9829.0, 9822.0, 9828.0, 9830.0, 9834.0, 9836.0, 9830.0, 9838.0, 9844.0, 9831.0, 9816.0, 9819.0, 9822.0, 9838.0, 9845.0, 9847.0, 9838.0, 9821.0, 9804.0, 9810.0, 9823.0, 9829.0, 9831.0, 9828.0, 9813.0, 9800.0, 9784.0, 9790.0, 9806.0, 9808.0, 9809.0, 9810.0, 9812.0, 9809.0, 9801.0, 9800.0, 9800.0, 9801.0, 9815.0, 9834.0, 9837.0, 9829.0, 9807.0, 9796.0, 9807.0, 9818.0, 9833.0, 9837.0, 9837.0, 9830.0, 9823.0, 9828.0, 9820.0, 9823.0, 9825.0, 9817.0, 9819.0, 9832.0, 9842.0, 9845.0, 9845.0, 9828.0, 9812.0, 9801.0, 9805.0, 9806.0, 9815.0, 9818.0, 9817.0, 9792.0, 9798.0, 9807.0, 9798.0, 9779.0, 9773.0, 9790.0, 9815.0, 9818.0, 9803.0, 9810.0, 9802.0, 9811.0, 9835.0, 9832.0, 9820.0, 9804.0, 9808.0, 9826.0, 9844.0, 9838.0, 9822.0, 9811.0, 9802.0, 9810.0, 9819.0, 9828.0, 9820.0, 9819.0, 9806.0, 9802.0, 9803.0, 9819.0, 9823.0, 9828.0, 9821.0, 9820.0, 9827.0, 9821.0, 9826.0, 9829.0, 9837.0, 9815.0, 9812.0, 9796.0, 9801.0, 9810.0, 9817.0, 9809.0, 9801.0],
      "WindowWidth": [20991.0, 20894.0, 20855.0, 20862.0, 20845.0, 20825.0, 20818.0, 20846.0, 20818.0, 20815.0, 20815.0, 20843.0, 20830.0, 20839.0, 20805.0, 20809.0, 20808.0, 20797.0, 20815.0, 20812.0, 20794.0, 20797.0, 20780.0, 20806.0, 20805.0, 20816.0, 20775.0, 20742.0, 20734.0, 20791.0, 20816.0, 20772.0, 20747.0, 20745.0, 20764.0, 20778.0, 20758.0, 20759.0, 20774.0, 20791.0, 20778.0, 20766.0, 20778.0, 20785.0, 20791.0, 20794.0, 20786.0, 20801.0, 20810.0, 20785.0, 20754.0, 20758.0, 20767.0, 20800.0, 20816.0, 20820.0, 20799.0, 20761.0, 20726.0, 20739.0, 20766.0, 20782.0, 20784.0, 20776.0, 20743.0, 20709.0, 20677.0, 20693.0, 20727.0, 20735.0, 20735.0, 20736.0, 20743.0, 20734.0, 20717.0, 20715.0, 20716.0, 20721.0, 20750.0, 20792.0, 20803.0, 20781.0, 20735.0, 20711.0, 20732.0, 20759.0, 20791.0, 20802.0, 20801.0, 20783.0, 20767.0, 20777.0, 20761.0, 20768.0, 20771.0, 20756.0, 20759.0, 20786.0, 20812.0, 20818.0, 20816.0, 20776.0, 20741.0, 20717.0, 20725.0, 20730.0, 20751.0, 20758.0, 20749.0, 20693.0, 20706.0, 20728.0, 20707.0, 20671.0, 20654.0, 20691.0, 20749.0, 20756.0, 20724.0, 20734.0, 20718.0, 20741.0, 20792.0, 20789.0, 20760.0, 20724.0, 20729.0, 20770.0, 20811.0, 20801.0, 20766.0, 20741.0, 20723.0, 20740.0, 20761.0, 20780.0, 20761.0, 20757.0, 20734.0, 20720.0, 20725.0, 20762.0, 20772.0, 20779.0, 20767.0, 20764.0, 20778.0, 20765.0, 20774.0, 20782.0, 20801.0, 20754.0, 20743.0, 20710.0, 20720.0, 20739.0, 20754.0, 20733.0, 20718.0]
    },
    "slices": {}
  }
}