{
  "AcquisitionMatrixPE": 104,
  "AcquisitionNumber": 1,
  "AcquisitionTime": "15:42:13.397500",
  "BandwidthPerPixelPhaseEncode": 17.17,
  "BaseResolution": 104,
  "BodyPartExamined": "BRAIN",
  "CoilString": "HC1-7;NC1_2",
  "ConsistencyInfo": "N4_VE11C_LATEST_20160120",
  "ConversionSoftware": "dcm2niix",
  "ConversionSoftwareVersion": "v1.0.20190720  (JP2:OpenJPEG) GCC7.3.0",
  "DerivedVendorReportedEchoSpacing": 0.000560011,
  "DeviceSerialNumber": "167006",
  "DwellTime": 2.1e-06,
  "EchoTime": 0.037,
  "EchoTrainLength": 104,
  "EffectiveEchoSpacing": 0.000560011,
  "FlipAngle": 52,
  "ImageComments": "Unaliased_MB4_PE3_LB",
  "ImageOrientationPatientDICOM": [0.999772, -0.020518, 0.00597559, 0.0207677, 0.866877, -0.498089],
  "ImageType": [
    "ORIGINAL",
    "PRIMARY",
    "M",
    "MB",
    "ND",
    "MOSAIC"
],
  "ImagingFrequency": 123.259,
  "InPlanePhaseEncodingDirectionDICOM": "COL",
  "InstitutionAddress": "Chemin_Queen-Mary_4565_Montreal_District_CA_H3W_1W5",
  "InstitutionName": "IUGM",
  "InstitutionalDepartmentName": "Department",
  "MRAcquisitionType": "2D",
  "MagneticFieldStrength": 3,
  "Manufacturer": "Siemens",
  "ManufacturersModelName": "Prisma_fit",
  "Modality": "MR",
  "MultibandAccelerationFactor": 4,
  "PartialFourier": 1,
  "PatientPosition": "HFS",
  "PercentPhaseFOV": 100,
  "PhaseEncodingDirection": "j",
  "PhaseEncodingSteps": 104,
  "PhaseResolution": 1,
  "PixelBandwidth": 2290,
  "ProcedureStepDescription": "hcptrt_generic",
  "ProtocolName": "func_task-gambling_run-1",
  "PulseSequenceDetails": "%CustomerSeq%_cmrr_mbep2d_bold",
  "ReceiveCoilActiveElements": "HC1-7;NC1,2",
  "ReceiveCoilName": "HeadNeck_64",
  "ReconMatrixPE": 104,
  "RepetitionTime": 1.49,
  "SAR": 0.0374133,
  "ScanOptions": "FS",
  "ScanningSequence": "EP",
  "SequenceName": "epfid2d1_104",
  "SequenceVariant": "SK_SS",
  "SeriesDescription": "func_task-gambling_run-1",
  "SeriesNumber": 13,
  "ShimSetting": [617, -7193, -8882, 391, -5, -158, -6, -29],
  "SliceThickness": 2,
  "SliceTiming": [0, 0.785, 0.0975, 0.8825, 0.1975, 0.98, 0.295, 1.0775, 0.3925, 1.1775, 0.49, 1.275, 0.5875, 1.3725, 0.6875, 0, 0.785, 0.0975, 0.8825, 0.1975, 0.98, 0.295, 1.0775, 0.3925, 1.1775, 0.49, 1.275, 0.5875, 1.3725, 0.6875, 0, 0.785, 0.0975, 0.8825, 0.1975, 0.98, 0.295, 1.0775, 0.3925, 1.1775, 0.49, 1.275, 0.5875, 1.3725, 0.6875, 0, 0.785, 0.0975, 0.8825, 0.1975, 0.98, 0.295, 1.0775, 0.3925, 1.1775, 0.49, 1.275, 0.5875, 1.3725, 0.6875],
  "SoftwareVersions": "syngo_MR_E11",
  "SpacingBetweenSlices": 2,
  "StationName": "MRC35049",
  "TaskName": "gambling",
  "TotalReadoutTime": 0.0576811,
  "TxRefAmp": 250.681,
  "WipMemBlock": "d89084f7-cd20-4c0f-8bf0-3e34107e6fb1||Sequence: R016 ve11c/master r/e634e98; Dec 19 2017 11:00:25 by eja",
  "dcmmeta_affine": [
    [-1.999543309211731, 0.041535407304763794, -0.010079365223646164, 105.9311294555664],
    [0.04103599488735199, 1.7337545156478882, -0.9961985349655151, -54.09605407714844],
    [0.011951182968914509, 0.9961777925491333, 1.734210729598999, -97.30785369873047],
    [0.0, 0.0, 0.0, 1.0]
],
  "dcmmeta_reorient_transform": [
    [0.0, -1.0, 0.0, 103.0],
    [1.0, 0.0, 0.0, 0.0],
    [0.0, 0.0, 1.0, 0.0],
    [0.0, 0.0, 0.0, 1.0]
],
  "dcmmeta_shape": [104, 104, 60, 129],
  "dcmmeta_slice_dim": 2,
  "dcmmeta_version": 0.6,
  "global": {
    "const": {
      "AcquisitionMatrix": [104, 0, 0, 104],
      "AngioFlag": "N",
      "BitsAllocated": 16,
      "BitsStored": 16,
      "BodyPartExamined": "BRAIN",
      "Columns": 832,
      "EchoNumbers": 1,
      "EchoTime": 37.0,
      "EchoTrainLength": 104,
      "FlipAngle": 52.0,
      "HighBit": 15,
      "ImageOrientationPatient": [0.99977162595823, -0.02051799781, 0.00597559157831, 0.02076770395522, 0.86687723971862, -0.4980889014325],
      "ImagePositionPatient": [-853.1619084087, -740.63018644816, 363.55694903063],
      "ImageType": [
        "ORIGINAL",
        "PRIMARY",
        "M",
        "MB",
        "ND",
        "MOSAIC"
],
      "ImagedNucleus": "1H",
      "ImagingFrequency": 123.259449,
      "InPlanePhaseEncodingDirection": "COL",
      "MRAcquisitionType": "2D",
      "MagneticFieldStrength": 3.0,
      "Manufacturer": "SIEMENS",
      "ManufacturerModelName": "Prisma_fit",
      "Modality": "MR",
      "NumberOfAverages": 1.0,
      "NumberOfPhaseEncodingSteps": 104,
      "PercentPhaseFieldOfView": 100.0,
      "PercentSampling": 100.0,
      "PerformedProcedureStepStartTime": "152122.825000",
      "PhotometricInterpretation": "MONOCHROME2",
      "PixelBandwidth": 2290.0,
      "PixelRepresentation": 0,
      "PixelSpacing": [2.0, 2.0],
      "ProtocolName": "func_task-gambling_run-1",
      "RepetitionTime": 1490.0,
      "Rows": 832,
      "SAR": 0.03741334081274,
      "SamplesPerPixel": 1,
      "ScanOptions": "FS",
      "ScanningSequence": "EP",
      "SequenceName": "epfid2d1_104",
      "SequenceVariant": [
        "SK",
        "SS"
],
      "SeriesDescription": "func_task-gambling_run-1",
      "SeriesNumber": 13,
      "SeriesTime": "154336.034000",
      "SliceLocation": -57.964819661305,
      "SliceThickness": 2.0,
      "SmallestImagePixelValue": 0,
      "SoftwareVersions": "syngo MR E11",
      "SpacingBetweenSlices": 2.0000000258558,
      "SpecificCharacterSet": "ISO_IR 100",
      "StudyID": "1",
      "StudyTime": "152122.747000",
      "TransmitCoilName": "Body",
      "VariableFlipAngleFlag": "N",
      "WindowCenterWidthExplanation": "Algo1",
      "dBdt": 0.0},
    "slices": {}
  },
  "time": {
    "samples": {
      "AcquisitionNumber": [1, 2, 3, 4, 5, 6, 7, 8, 9, 10, 11, 12, 13, 14, 15, 16, 17, 18, 19, 20, 21, 22, 23, 24, 25, 26, 27, 28, 29, 30, 31, 32, 33, 34, 35, 36, 37, 38, 39, 40, 41, 42, 43, 44, 45, 46, 47, 48, 49, 50, 51, 52, 53, 54, 55, 56, 57, 58, 59, 60, 61, 62, 63, 64, 65, 66, 67, 68, 69, 70, 71, 72, 73, 74, 75, 76, 77, 78, 79, 80, 81, 82, 83, 84, 85, 86, 87, 88, 89, 90, 91, 92, 93, 94, 95, 96, 97, 98, 99, 100, 101, 102, 103, 104, 105, 106, 107, 108, 109, 110, 111, 112, 113, 114, 115, 116, 117, 118, 119, 120, 121, 122, 123, 124, 125, 126, 127, 128, 129],
      "AcquisitionTime": ["154213.397500", "154214.887500", "154216.377500", "154217.867500", "154219.357500", "154220.847500", "154222.337500", "154223.827500", "154225.317500", "154226.807500", "154228.297500", "154229.787500", "154231.277500", "154232.767500", "154234.257500", "154235.747500", "154237.237500", "154238.727500", "154240.217500", "154241.707500", "154243.197500", "154244.687500", "154246.177500", "154247.667500", "154249.157500", "154250.647500", "154252.137500", "154253.627500", "154255.117500", "154256.607500", "154258.097500", "154259.587500", "154301.077500", "154302.567500", "154304.057500", "154305.547500", "154307.037500", "154308.527500", "154310.017500", "154311.507500", "154312.997500", "154314.487500", "154315.977500", "154317.467500", "154318.957500", "154320.447500", "154321.937500", "154323.427500", "154324.917500", "154326.407500", "154327.897500", "154329.387500", "154330.877500", "154332.367500", "154333.857500", "154335.347500", "154336.837500", "154338.327500", "154339.817500", "154341.307500", "154342.797500", "154344.287500", "154345.777500", "154347.267500", "154348.757500", "154350.247500", "154351.737500", "154353.227500", "154354.717500", "154356.207500", "154357.697500", "154359.187500", "154400.677500", "154402.167500", "154403.657500", "154405.147500", "154406.637500", "154408.127500", "154409.617500", "154411.107500", "154412.597500", "154414.087500", "154415.577500", "154417.067500", "154418.557500", "154420.047500", "154421.537500", "154423.027500", "154424.517500", "154426.007500", "154427.497500", "154428.987500", "154430.477500", "154431.967500", "154433.457500", "154434.947500", "154436.437500", "154437.927500", "154439.417500", "154440.907500", "154442.397500", "154443.887500", "154445.377500", "154446.867500", "154448.357500", "154449.847500", "154451.337500", "154452.827500", "154454.317500", "154455.807500", "154457.297500", "154458.787500", "154500.277500", "154501.767500", "154503.257500", "154504.747500", "154506.237500", "154507.727500", "154509.217500", "154510.707500", "154512.197500", "154513.687500", "154515.177500", "154516.667500", "154518.157500", "154519.647500", "154521.137500", "154522.627500", "154524.117500"],
      "ContentTime": ["154336.037000", "154336.040000", "154336.049000", "154336.052000", "154336.055000", "154336.058000", "154336.061000", "154336.063000", "154336.067000", "154336.075000", "154336.078000", "154336.081000", "154336.084000", "154336.087000", "154336.089000", "154336.092000", "154336.095000", "154336.098000", "154336.101000", "154336.104000", "154336.107000", "154336.110000", "154336.112000", "154336.115000", "154336.118000", "154336.121000", "154336.124000", "154356.011000", "154356.015000", "154356.018000", "154356.028000", "154356.031000", "154356.035000", "154356.037000", "154356.040000", "154356.043000", "154356.047000", "154356.049000", "154356.052000", "154356.055000", "154356.058000", "154356.061000", "154356.064000", "154356.067000", "154356.070000", "154356.073000", "154356.076000", "154416.010000", "154416.013000", "154416.016000", "154416.019000", "154416.032000", "154416.035000", "154416.038000", "154416.041000", "154416.044000", "154416.047000", "154416.049000", "154416.052000", "154416.055000", "154416.058000", "154416.061000", "154416.064000", "154416.067000", "154416.069000", "154416.072000", "154416.075000", "154436.010000", "154436.014000", "154436.017000", "154436.020000", "154436.023000", "154436.026000", "154436.037000", "154436.040000", "154436.043000", "154436.046000", "154436.049000", "154436.052000", "154436.055000", "154436.057000", "154436.060000", "154436.068000", "154436.071000", "154436.074000", "154436.077000", "154436.079000", "154456.010000", "154456.013000", "154456.016000", "154456.019000", "154456.022000", "154456.025000", "154456.028000", "154456.031000", "154456.033000", "154456.036000", "154456.039000", "154456.042000", "154456.045000", "154456.048000", "154456.051000", "154456.053000", "154456.056000", "154456.059000", "154456.062000", "154456.065000", "154456.068000", "154526.424000", "154526.427000", "154526.430000", "154526.433000", "154526.436000", "154526.439000", "154526.442000", "154526.445000", "154526.448000", "154526.451000", "154526.454000", "154526.456000", "154526.459000", "154526.462000", "154526.465000", "154526.468000", "154526.471000", "154526.474000", "154526.477000", "154526.480000", "154526.483000"],
      "InstanceCreationTime": ["154336.037000", "154336.040000", "154336.049000", "154336.052000", "154336.055000", "154336.058000", "154336.061000", "154336.063000", "154336.067000", "154336.075000", "154336.078000", "154336.081000", "154336.084000", "154336.087000", "154336.089000", "154336.092000", "154336.095000", "154336.098000", "154336.101000", "154336.104000", "154336.107000", "154336.110000", "154336.112000", "154336.115000", "154336.118000", "154336.121000", "154336.124000", "154356.011000", "154356.015000", "154356.018000", "154356.028000", "154356.031000", "154356.035000", "154356.037000", "154356.040000", "154356.043000", "154356.047000", "154356.049000", "154356.052000", "154356.055000", "154356.058000", "154356.061000", "154356.064000", "154356.067000", "154356.070000", "154356.073000", "154356.076000", "154416.010000", "154416.013000", "154416.016000", "154416.019000", "154416.032000", "154416.035000", "154416.038000", "154416.041000", "154416.044000", "154416.047000", "154416.049000", "154416.052000", "154416.055000", "154416.058000", "154416.061000", "154416.064000", "154416.067000", "154416.069000", "154416.072000", "154416.075000", "154436.010000", "154436.014000", "154436.017000", "154436.020000", "154436.023000", "154436.026000", "154436.037000", "154436.040000", "154436.043000", "154436.046000", "154436.049000", "154436.052000", "154436.055000", "154436.057000", "154436.060000", "154436.068000", "154436.071000", "154436.074000", "154436.077000", "154436.079000", "154456.010000", "154456.013000", "154456.016000", "154456.019000", "154456.022000", "154456.025000", "154456.028000", "154456.031000", "154456.033000", "154456.036000", "154456.039000", "154456.042000", "154456.045000", "154456.048000", "154456.051000", "154456.053000", "154456.056000", "154456.059000", "154456.062000", "154456.065000", "154456.068000", "154526.424000", "154526.427000", "154526.430000", "154526.433000", "154526.436000", "154526.439000", "154526.442000", "154526.445000", "154526.448000", "154526.451000", "154526.454000", "154526.456000", "154526.459000", "154526.462000", "154526.465000", "154526.468000", "154526.471000", "154526.474000", "154526.477000", "154526.480000", "154526.483000"],
      "InstanceNumber": [1, 2, 3, 4, 5, 6, 7, 8, 9, 10, 11, 12, 13, 14, 15, 16, 17, 18, 19, 20, 21, 22, 23, 24, 25, 26, 27, 28, 29, 30, 31, 32, 33, 34, 35, 36, 37, 38, 39, 40, 41, 42, 43, 44, 45, 46, 47, 48, 49, 50, 51, 52, 53, 54, 55, 56, 57, 58, 59, 60, 61, 62, 63, 64, 65, 66, 67, 68, 69, 70, 71, 72, 73, 74, 75, 76, 77, 78, 79, 80, 81, 82, 83, 84, 85, 86, 87, 88, 89, 90, 91, 92, 93, 94, 95, 96, 97, 98, 99, 100, 101, 102, 103, 104, 105, 106, 107, 108, 109, 110, 111, 112, 113, 114, 115, 116, 117, 118, 119, 120, 121, 122, 123, 124, 125, 126, 127, 128, 129],
      "LargestImagePixelValue": [49557, 47421, 47132, 46532, 45977, 46734, 46478, 46284, 46242, 45809, 46190, 45622, 45259, 45274, 44947, 45155, 44457, 44940, 45208, 44566, 44777, 44744, 45108, 44871, 44809, 44665, 45910, 45613, 45901, 45502, 45375, 44154, 43825, 44325, 44951, 44816, 45093, 45382, 45041, 45159, 44866, 45255, 45028, 44676, 44970, 44685, 44949, 44707, 45545, 45345, 45584, 45654, 45316, 45040, 44564, 45000, 45308, 44918, 44920, 45047, 45403, 45026, 45071, 45053, 45009, 44782, 44970, 44955, 44713, 45263, 45624, 45194, 45085, 44904, 45134, 45314, 44551, 45425, 44829, 44735, 44419, 45111, 44787, 45067, 44841, 45481, 44964, 44805, 44716, 45060, 44910, 44944, 44079, 44840, 44342, 45291, 44651, 44774, 44431, 44654, 44578, 44704, 44554, 45072, 44717, 44295, 44565, 44559, 44504, 44836, 44785, 44296, 44565, 44098, 44618, 45503, 45206, 44282, 43883, 43847, 43937, 44094, 44099, 43759, 43920, 44273, 44025, 44333, 44772],
      "WindowCenter": [11261.0, 11181.0, 11132.0, 11118.0, 11119.0, 11139.0, 11139.0, 11129.0, 11119.0, 11110.0, 11101.0, 11104.0, 11122.0, 11135.0, 11144.0, 11151.0, 11148.0, 11160.0, 11173.0, 11169.0, 11192.0, 11204.0, 11205.0, 11182.0, 11148.0, 11112.0, 11100.0, 11151.0, 11197.0, 11170.0, 11133.0, 11106.0, 11143.0, 11189.0, 11161.0, 11105.0, 11053.0, 11042.0, 11044.0, 11066.0, 11079.0, 11095.0, 11110.0, 11109.0, 11127.0, 11128.0, 11130.0, 11145.0, 11194.0, 11215.0, 11194.0, 11168.0, 11144.0, 11141.0, 11148.0, 11157.0, 11143.0, 11132.0, 11156.0, 11168.0, 11139.0, 11103.0, 11075.0, 11076.0, 11116.0, 11138.0, 11137.0, 11121.0, 11119.0, 11154.0, 11183.0, 11168.0, 11143.0, 11098.0, 11098.0, 11112.0, 11134.0, 11138.0, 11130.0, 11120.0, 11105.0, 11108.0, 11086.0, 11087.0, 11081.0, 11088.0, 11099.0, 11127.0, 11124.0, 11130.0, 11121.0, 11123.0, 11118.0, 11127.0, 11116.0, 11130.0, 11121.0, 11116.0, 11110.0, 11105.0, 11116.0, 11120.0, 11111.0, 11121.0, 11104.0, 11095.0, 11098.0, 11099.0, 11088.0, 11089.0, 11117.0, 11136.0, 11141.0, 11128.0, 11154.0, 11141.0, 11086.0, 11076.0, 11106.0, 11099.0, 11060.0, 11061.0, 11055.0, 11052.0, 11078.0, 11111.0, 11129.0, 11122.0, 11109.0],
      "WindowWidth": [24304.0, 24082.0, 23944.0, 23902.0, 23898.0, 23937.0, 23939.0, 23909.0, 23886.0, 23865.0, 23846.0, 23855.0, 23901.0, 23940.0, 23960.0, 23972.0, 23967.0, 23993.0, 24024.0, 24017.0, 24073.0, 24097.0, 24098.0, 24049.0, 23972.0, 23882.0, 23858.0, 23975.0, 24083.0, 24021.0, 23937.0, 23878.0, 23957.0, 24063.0, 24001.0, 23867.0, 23735.0, 23706.0, 23717.0, 23768.0, 23804.0, 23839.0, 23883.0, 23871.0, 23915.0, 23918.0, 23922.0, 23955.0, 24069.0, 24123.0, 24073.0, 24008.0, 23958.0, 23946.0, 23964.0, 23984.0, 23953.0, 23935.0, 23986.0, 24017.0, 23945.0, 23860.0, 23794.0, 23795.0, 23891.0, 23945.0, 23943.0, 23908.0, 23901.0, 23991.0, 24053.0, 24020.0, 23960.0, 23851.0, 23850.0, 23882.0, 23941.0, 23946.0, 23930.0, 23899.0, 23863.0, 23866.0, 23818.0, 23818.0, 23809.0, 23824.0, 23848.0, 23918.0, 23910.0, 23926.0, 23906.0, 23908.0, 23897.0, 23915.0, 23894.0, 23916.0, 23900.0, 23896.0, 23888.0, 23862.0, 23892.0, 23894.0, 23884.0, 23906.0, 23863.0, 23851.0, 23854.0, 23854.0, 23833.0, 23827.0, 23891.0, 23945.0, 23951.0, 23928.0, 23984.0, 23950.0, 23822.0, 23793.0, 23867.0, 23849.0, 23757.0, 23762.0, 23754.0, 23737.0, 23801.0, 23886.0, 23928.0, 23911.0, 23878.0]
    },
    "slices": {}
  }
}