{
  "AcquisitionMatrixPE": 104,
  "AcquisitionNumber": 1,
  "AcquisitionTime": "15:34:5.650000",
  "BandwidthPerPixelPhaseEncode": 17.17,
  "BaseResolution": 104,
  "BodyPartExamined": "BRAIN",
  "CoilString": "HC1-7;NC1_2",
  "ConsistencyInfo": "N4_VE11C_LATEST_20160120",
  "ConversionSoftware": "dcm2niix",
  "ConversionSoftwareVersion": "v1.0.20190720  (JP2:OpenJPEG) GCC7.3.0",
  "DerivedVendorReportedEchoSpacing": 0.000560011,
  "DeviceSerialNumber": "167006",
  "DwellTime": 2.1e-06,
  "EchoTime": 0.037,
  "EchoTrainLength": 104,
  "EffectiveEchoSpacing": 0.000560011,
  "FlipAngle": 52,
  "ImageComments": "Unaliased_MB4_PE3_LB",
  "ImageOrientationPatientDICOM": [0.999772, -0.020518, 0.00597559, 0.0207677, 0.866877, -0.498089],
  "ImageType": [
    "ORIGINAL",
    "PRIMARY",
    "M",
    "MB",
    "ND",
    "MOSAIC"
],
  "ImagingFrequency": 123.259,
  "InPlanePhaseEncodingDirectionDICOM": "COL",
  "InstitutionAddress": "Chemin_Queen-Mary_4565_Montreal_District_CA_H3W_1W5",
  "InstitutionName": "IUGM",
  "InstitutionalDepartmentName": "Department",
  "MRAcquisitionType": "2D",
  "MagneticFieldStrength": 3,
  "Manufacturer": "Siemens",
  "ManufacturersModelName": "Prisma_fit",
  "Modality": "MR",
  "MultibandAccelerationFactor": 4,
  "PartialFourier": 1,
  "PatientPosition": "HFS",
  "PercentPhaseFOV": 100,
  "PhaseEncodingDirection": "j",
  "PhaseEncodingSteps": 104,
  "PhaseResolution": 1,
  "PixelBandwidth": 2290,
  "ProcedureStepDescription": "hcptrt_generic",
  "ProtocolName": "func_task-relational_run-1",
  "PulseSequenceDetails": "%CustomerSeq%_cmrr_mbep2d_bold",
  "ReceiveCoilActiveElements": "HC1-7;NC1,2",
  "ReceiveCoilName": "HeadNeck_64",
  "ReconMatrixPE": 104,
  "RepetitionTime": 1.49,
  "SAR": 0.0373684,
  "ScanOptions": "FS",
  "ScanningSequence": "EP",
  "SequenceName": "epfid2d1_104",
  "SequenceVariant": "SK_SS",
  "SeriesDescription": "func_task-relational_run-1",
  "SeriesNumber": 9,
  "ShimSetting": [617, -7193, -8882, 391, -5, -158, -6, -29],
  "SliceThickness": 2,
  "SliceTiming": [0, 0.7825, 0.0975, 0.8825, 0.195, 0.98, 0.2925, 1.0775, 0.3925, 1.175, 0.49, 1.2725, 0.5875, 1.3725, 0.685, 0, 0.7825, 0.0975, 0.8825, 0.195, 0.98, 0.2925, 1.0775, 0.3925, 1.175, 0.49, 1.2725, 0.5875, 1.3725, 0.685, 0, 0.7825, 0.0975, 0.8825, 0.195, 0.98, 0.2925, 1.0775, 0.3925, 1.175, 0.49, 1.2725, 0.5875, 1.3725, 0.685, 0, 0.7825, 0.0975, 0.8825, 0.195, 0.98, 0.2925, 1.0775, 0.3925, 1.175, 0.49, 1.2725, 0.5875, 1.3725, 0.685],
  "SoftwareVersions": "syngo_MR_E11",
  "SpacingBetweenSlices": 2,
  "StationName": "MRC35049",
  "TaskName": "relational",
  "TotalReadoutTime": 0.0576811,
  "TxRefAmp": 250.681,
  "WipMemBlock": "5570e35e-0b03-4a71-a178-00cdccaba98c||Sequence: R016 ve11c/master r/e634e98; Dec 19 2017 11:00:25 by eja",
  "dcmmeta_affine": [
    [-1.999543309211731, 0.041535407304763794, -0.010079365223646164, 105.9311294555664],
    [0.04103599488735199, 1.7337545156478882, -0.9961985349655151, -54.09605407714844],
    [0.011951182968914509, 0.9961777925491333, 1.734210729598999, -97.30785369873047],
    [0.0, 0.0, 0.0, 1.0]
],
  "dcmmeta_reorient_transform": [
    [0.0, -1.0, 0.0, 103.0],
    [1.0, 0.0, 0.0, 0.0],
    [0.0, 0.0, 1.0, 0.0],
    [0.0, 0.0, 0.0, 1.0]
],
  "dcmmeta_shape": [104, 104, 60, 119],
  "dcmmeta_slice_dim": 2,
  "dcmmeta_version": 0.6,
  "global": {
    "const": {
      "AcquisitionMatrix": [104, 0, 0, 104],
      "AngioFlag": "N",
      "BitsAllocated": 16,
      "BitsStored": 16,
      "BodyPartExamined": "BRAIN",
      "Columns": 832,
      "EchoNumbers": 1,
      "EchoTime": 37.0,
      "EchoTrainLength": 104,
      "FlipAngle": 52.0,
      "HighBit": 15,
      "ImageOrientationPatient": [0.99977162595823, -0.02051799781, 0.00597559157831, 0.02076770395522, 0.86687723971862, -0.4980889014325],
      "ImagePositionPatient": [-853.1619084087, -740.63018644816, 363.55694903063],
      "ImageType": [
        "ORIGINAL",
        "PRIMARY",
        "M",
        "MB",
        "ND",
        "MOSAIC"
],
      "ImagedNucleus": "1H",
      "ImagingFrequency": 123.259448,
      "InPlanePhaseEncodingDirection": "COL",
      "MRAcquisitionType": "2D",
      "MagneticFieldStrength": 3.0,
      "Manufacturer": "SIEMENS",
      "ManufacturerModelName": "Prisma_fit",
      "Modality": "MR",
      "NumberOfAverages": 1.0,
      "NumberOfPhaseEncodingSteps": 104,
      "PercentPhaseFieldOfView": 100.0,
      "PercentSampling": 100.0,
      "PerformedProcedureStepStartTime": "152122.825000",
      "PhotometricInterpretation": "MONOCHROME2",
      "PixelBandwidth": 2290.0,
      "PixelRepresentation": 0,
      "PixelSpacing": [2.0, 2.0],
      "ProtocolName": "func_task-relational_run-1",
      "RepetitionTime": 1490.0,
      "Rows": 832,
      "SAR": 0.03736843523203,
      "SamplesPerPixel": 1,
      "ScanOptions": "FS",
      "ScanningSequence": "EP",
      "SequenceName": "epfid2d1_104",
      "SequenceVariant": [
        "SK",
        "SS"
],
      "SeriesDescription": "func_task-relational_run-1",
      "SeriesNumber": 9,
      "SeriesTime": "153524.026000",
      "SliceLocation": -57.964819661305,
      "SliceThickness": 2.0,
      "SmallestImagePixelValue": 0,
      "SoftwareVersions": "syngo MR E11",
      "SpacingBetweenSlices": 2.0000000258558,
      "SpecificCharacterSet": "ISO_IR 100",
      "StudyID": "1",
      "StudyTime": "152122.747000",
      "TransmitCoilName": "Body",
      "VariableFlipAngleFlag": "N",
      "WindowCenterWidthExplanation": "Algo1",
      "dBdt": 0.0},
    "slices": {}
  },
  "time": {
    "samples": {
      "AcquisitionNumber": [1, 2, 3, 4, 5, 6, 7, 8, 9, 10, 11, 12, 13, 14, 15, 16, 17, 18, 19, 20, 21, 22, 23, 24, 25, 26, 27, 28, 29, 30, 31, 32, 33, 34, 35, 36, 37, 38, 39, 40, 41, 42, 43, 44, 45, 46, 47, 48, 49, 50, 51, 52, 53, 54, 55, 56, 57, 58, 59, 60, 61, 62, 63, 64, 65, 66, 67, 68, 69, 70, 71, 72, 73, 74, 75, 76, 77, 78, 79, 80, 81, 82, 83, 84, 85, 86, 87, 88, 89, 90, 91, 92, 93, 94, 95, 96, 97, 98, 99, 100, 101, 102, 103, 104, 105, 106, 107, 108, 109, 110, 111, 112, 113, 114, 115, 116, 117, 118, 119],
      "AcquisitionTime": ["153405.650000", "153407.140000", "153408.630000", "153410.120000", "153411.610000", "153413.100000", "153414.590000", "153416.080000", "153417.570000", "153419.060000", "153420.550000", "153422.040000", "153423.530000", "153425.020000", "153426.510000", "153428.000000", "153429.490000", "153430.980000", "153432.470000", "153433.960000", "153435.450000", "153436.940000", "153438.430000", "153439.920000", "153441.410000", "153442.900000", "153444.390000", "153445.880000", "153447.370000", "153448.860000", "153450.350000", "153451.840000", "153453.330000", "153454.820000", "153456.310000", "153457.800000", "153459.290000", "153500.780000", "153502.270000", "153503.760000", "153505.250000", "153506.740000", "153508.230000", "153509.720000", "153511.210000", "153512.700000", "153514.190000", "153515.680000", "153517.170000", "153518.660000", "153520.150000", "153521.640000", "153523.130000", "153524.620000", "153526.110000", "153527.600000", "153529.090000", "153530.580000", "153532.070000", "153533.560000", "153535.050000", "153536.540000", "153538.030000", "153539.520000", "153541.010000", "153542.500000", "153543.990000", "153545.480000", "153546.970000", "153548.460000", "153549.950000", "153551.440000", "153552.930000", "153554.420000", "153555.910000", "153557.400000", "153558.890000", "153600.380000", "153601.870000", "153603.360000", "153604.850000", "153606.340000", "153607.830000", "153609.320000", "153610.810000", "153612.300000", "153613.790000", "153615.280000", "153616.770000", "153618.260000", "153619.750000", "153621.240000", "153622.730000", "153624.220000", "153625.710000", "153627.200000", "153628.690000", "153630.180000", "153631.670000", "153633.160000", "153634.650000", "153636.140000", "153637.630000", "153639.120000", "153640.610000", "153642.100000", "153643.590000", "153645.080000", "153646.570000", "153648.060000", "153649.550000", "153651.040000", "153652.530000", "153654.020000", "153655.510000", "153657.000000", "153658.490000", "153659.980000", "153701.470000"],
      "ContentTime": ["153524.028000", "153524.032000", "153524.035000", "153524.038000", "153524.041000", "153524.044000", "153524.047000", "153524.050000", "153524.053000", "153524.055000", "153524.058000", "153524.061000", "153524.064000", "153524.067000", "153524.070000", "153524.077000", "153524.080000", "153524.083000", "153524.093000", "153524.096000", "153524.099000", "153524.102000", "153524.105000", "153543.977000", "153543.980000", "153543.984000", "153543.987000", "153543.989000", "153543.992000", "153543.995000", "153543.998000", "153544.002000", "153544.005000", "153544.008000", "153544.011000", "153544.014000", "153544.017000", "153544.020000", "153544.023000", "153544.026000", "153544.029000", "153544.032000", "153544.035000", "153544.037000", "153603.977000", "153603.980000", "153603.983000", "153603.985000", "153603.988000", "153603.996000", "153603.998000", "153604.002000", "153604.005000", "153604.008000", "153604.011000", "153604.014000", "153604.017000", "153604.020000", "153604.023000", "153604.026000", "153604.029000", "153604.031000", "153604.034000", "153604.037000", "153623.976000", "153623.979000", "153623.982000", "153623.985000", "153623.988000", "153623.991000", "153623.994000", "153623.997000", "153624.000000", "153624.003000", "153624.006000", "153624.009000", "153624.012000", "153624.015000", "153624.018000", "153624.021000", "153624.024000", "153624.026000", "153624.029000", "153624.032000", "153643.976000", "153643.980000", "153643.983000", "153643.986000", "153643.989000", "153643.992000", "153643.995000", "153644.000000", "153644.004000", "153644.007000", "153644.010000", "153644.017000", "153644.020000", "153644.024000", "153644.027000", "153644.031000", "153644.035000", "153644.038000", "153644.041000", "153644.044000", "153703.730000", "153703.734000", "153703.737000", "153703.741000", "153703.744000", "153703.749000", "153703.753000", "153703.756000", "153703.760000", "153703.764000", "153703.767000", "153703.770000", "153703.773000", "153703.776000", "153703.780000"],
      "InstanceCreationTime": ["153524.028000", "153524.032000", "153524.035000", "153524.038000", "153524.041000", "153524.044000", "153524.047000", "153524.050000", "153524.053000", "153524.055000", "153524.058000", "153524.061000", "153524.064000", "153524.067000", "153524.070000", "153524.077000", "153524.080000", "153524.083000", "153524.093000", "153524.096000", "153524.099000", "153524.102000", "153524.105000", "153543.977000", "153543.980000", "153543.984000", "153543.987000", "153543.989000", "153543.992000", "153543.995000", "153543.998000", "153544.002000", "153544.005000", "153544.008000", "153544.011000", "153544.014000", "153544.017000", "153544.020000", "153544.023000", "153544.026000", "153544.029000", "153544.032000", "153544.035000", "153544.037000", "153603.977000", "153603.980000", "153603.983000", "153603.985000", "153603.988000", "153603.996000", "153603.998000", "153604.002000", "153604.005000", "153604.008000", "153604.011000", "153604.014000", "153604.017000", "153604.020000", "153604.023000", "153604.026000", "153604.029000", "153604.031000", "153604.034000", "153604.037000", "153623.976000", "153623.979000", "153623.982000", "153623.985000", "153623.988000", "153623.991000", "153623.994000", "153623.997000", "153624.000000", "153624.003000", "153624.006000", "153624.009000", "153624.012000", "153624.015000", "153624.018000", "153624.021000", "153624.024000", "153624.026000", "153624.029000", "153624.032000", "153643.976000", "153643.980000", "153643.983000", "153643.986000", "153643.989000", "153643.992000", "153643.995000", "153644.000000", "153644.004000", "153644.007000", "153644.010000", "153644.017000", "153644.020000", "153644.024000", "153644.027000", "153644.031000", "153644.035000", "153644.038000", "153644.041000", "153644.044000", "153703.730000", "153703.734000", "153703.737000", "153703.741000", "153703.744000", "153703.749000", "153703.753000", "153703.756000", "153703.760000", "153703.764000", "153703.767000", "153703.770000", "153703.773000", "153703.776000", "153703.780000"],
      "InstanceNumber": [1, 2, 3, 4, 5, 6, 7, 8, 9, 10, 11, 12, 13, 14, 15, 16, 17, 18, 19, 20, 21, 22, 23, 24, 25, 26, 27, 28, 29, 30, 31, 32, 33, 34, 35, 36, 37, 38, 39, 40, 41, 42, 43, 44, 45, 46, 47, 48, 49, 50, 51, 52, 53, 54, 55, 56, 57, 58, 59, 60, 61, 62, 63, 64, 65, 66, 67, 68, 69, 70, 71, 72, 73, 74, 75, 76, 77, 78, 79, 80, 81, 82, 83, 84, 85, 86, 87, 88, 89, 90, 91, 92, 93, 94, 95, 96, 97, 98, 99, 100, 101, 102, 103, 104, 105, 106, 107, 108, 109, 110, 111, 112, 113, 114, 115, 116, 117, 118, 119],
      "LargestImagePixelValue": [47848, 47627, 46797, 45841, 46000, 45924, 45439, 45769, 45611, 45820, 45598, 46275, 45375, 46045, 45620, 45093, 45299, 45798, 45701, 45613, 45208, 45457, 45461, 45512, 45343, 45600, 45303, 45541, 45355, 45287, 45962, 45648, 45025, 45083, 45642, 46089, 45897, 45020, 45728, 45490, 45465, 45478, 45673, 46081, 46143, 45995, 46089, 45896, 45467, 45899, 45511, 45722, 45625, 45766, 45482, 45385, 45350, 45237, 45397, 45238, 45245, 45734, 45673, 46119, 45405, 45624, 45680, 45352, 45378, 46131, 45376, 45901, 45437, 45585, 45706, 45874, 45852, 45960, 45875, 45692, 45227, 45428, 45729, 45341, 45027, 45595, 45255, 45265, 44920, 45738, 45135, 45222, 45344, 44952, 44994, 44973, 45624, 45539, 45369, 44937, 44895, 45318, 45035, 45272, 45518, 45218, 45319, 45629, 45141, 45095, 45192, 45601, 45715, 45490, 45410, 45555, 45264, 45364, 45947],
      "WindowCenter": [11274.0, 11238.0, 11255.0, 11238.0, 11217.0, 11224.0, 11240.0, 11240.0, 11223.0, 11177.0, 11176.0, 11195.0, 11187.0, 11216.0, 11234.0, 11224.0, 11222.0, 11209.0, 11216.0, 11225.0, 11223.0, 11206.0, 11181.0, 11166.0, 11176.0, 11206.0, 11214.0, 11194.0, 11151.0, 11125.0, 11139.0, 11186.0, 11196.0, 11172.0, 11146.0, 11144.0, 11168.0, 11174.0, 11189.0, 11174.0, 11152.0, 11133.0, 11117.0, 11122.0, 11130.0, 11139.0, 11157.0, 11166.0, 11179.0, 11194.0, 11190.0, 11188.0, 11180.0, 11177.0, 11181.0, 11186.0, 11172.0, 11175.0, 11183.0, 11181.0, 11178.0, 11166.0, 11153.0, 11161.0, 11175.0, 11182.0, 11171.0, 11174.0, 11182.0, 11188.0, 11163.0, 11148.0, 11142.0, 11156.0, 11162.0, 11152.0, 11151.0, 11182.0, 11201.0, 11190.0, 11163.0, 11153.0, 11160.0, 11198.0, 11199.0, 11169.0, 11142.0, 11173.0, 11181.0, 11192.0, 11171.0, 11177.0, 11202.0, 11227.0, 11201.0, 11188.0, 11170.0, 11149.0, 11156.0, 11204.0, 11226.0, 11199.0, 11153.0, 11135.0, 11152.0, 11179.0, 11159.0, 11154.0, 11166.0, 11173.0, 11159.0, 11158.0, 11131.0, 11130.0, 11166.0, 11192.0, 11201.0, 11195.0, 11186.0],
      "WindowWidth": [24339.0, 24214.0, 24235.0, 24193.0, 24132.0, 24140.0, 24176.0, 24177.0, 24137.0, 24022.0, 24019.0, 24068.0, 24050.0, 24112.0, 24162.0, 24137.0, 24134.0, 24102.0, 24119.0, 24139.0, 24136.0, 24095.0, 24040.0, 23998.0, 24025.0, 24091.0, 24111.0, 24070.0, 23962.0, 23906.0, 23931.0, 24052.0, 24079.0, 24018.0, 23954.0, 23953.0, 24003.0, 24023.0, 24052.0, 24019.0, 23964.0, 23920.0, 23881.0, 23889.0, 23914.0, 23931.0, 23981.0, 23995.0, 24029.0, 24064.0, 24057.0, 24052.0, 24037.0, 24027.0, 24036.0, 24053.0, 24014.0, 24024.0, 24043.0, 24040.0, 24029.0, 23996.0, 23965.0, 23983.0, 24018.0, 24033.0, 24007.0, 24016.0, 24035.0, 24045.0, 23991.0, 23954.0, 23944.0, 23977.0, 23986.0, 23962.0, 23959.0, 24027.0, 24080.0, 24049.0, 23989.0, 23963.0, 23978.0, 24068.0, 24078.0, 24004.0, 23941.0, 24014.0, 24039.0, 24063.0, 24015.0, 24027.0, 24079.0, 24145.0, 24085.0, 24047.0, 24006.0, 23957.0, 23971.0, 24087.0, 24143.0, 24077.0, 23965.0, 23927.0, 23964.0, 24031.0, 23986.0, 23965.0, 23994.0, 24009.0, 23978.0, 23973.0, 23913.0, 23909.0, 23994.0, 24055.0, 24077.0, 24062.0, 24038.0]
    },
    "slices": {}
  }
}