{
  "AcquisitionMatrixPE": 104,
  "AcquisitionNumber": 1,
  "AcquisitionTime": "15:55:8.617500",
  "BandwidthPerPixelPhaseEncode": 17.17,
  "BaseResolution": 104,
  "BodyPartExamined": "BRAIN",
  "CoilString": "HC1-7;NC1_2",
  "ConsistencyInfo": "N4_VE11C_LATEST_20160120",
  "ConversionSoftware": "dcm2niix",
  "ConversionSoftwareVersion": "v1.0.20190720  (JP2:OpenJPEG) GCC7.3.0",
  "DerivedVendorReportedEchoSpacing": 0.000560011,
  "DeviceSerialNumber": "167006",
  "DwellTime": 2.1e-06,
  "EchoTime": 0.037,
  "EchoTrainLength": 104,
  "EffectiveEchoSpacing": 0.000560011,
  "FlipAngle": 52,
  "ImageComments": "Unaliased_MB4_PE3_LB",
  "ImageOrientationPatientDICOM": [0.999772, -0.020518, 0.00597559, 0.0207677, 0.866877, -0.498089],
  "ImageType": [
    "ORIGINAL",
    "PRIMARY",
    "M",
    "MB",
    "ND",
    "MOSAIC"
],
  "ImagingFrequency": 123.259,
  "InPlanePhaseEncodingDirectionDICOM": "COL",
  "InstitutionAddress": "Chemin_Queen-Mary_4565_Montreal_District_CA_H3W_1W5",
  "InstitutionName": "IUGM",
  "InstitutionalDepartmentName": "Department",
  "MRAcquisitionType": "2D",
  "MagneticFieldStrength": 3,
  "Manufacturer": "Siemens",
  "ManufacturersModelName": "Prisma_fit",
  "Modality": "MR",
  "MultibandAccelerationFactor": 4,
  "PartialFourier": 1,
  "PatientPosition": "HFS",
  "PercentPhaseFOV": 100,
  "PhaseEncodingDirection": "j",
  "PhaseEncodingSteps": 104,
  "PhaseResolution": 1,
  "PixelBandwidth": 2290,
  "ProcedureStepDescription": "hcptrt_generic",
  "ProtocolName": "func_task-motor_run-1",
  "PulseSequenceDetails": "%CustomerSeq%_cmrr_mbep2d_bold",
  "ReceiveCoilActiveElements": "HC1-7;NC1,2",
  "ReceiveCoilName": "HeadNeck_64",
  "ReconMatrixPE": 104,
  "RepetitionTime": 1.49,
  "SAR": 0.0374696,
  "ScanOptions": "FS",
  "ScanningSequence": "EP",
  "SequenceName": "epfid2d1_104",
  "SequenceVariant": "SK_SS",
  "SeriesDescription": "func_task-motor_run-1",
  "SeriesNumber": 19,
  "ShimSetting": [617, -7192, -8882, 390, -4, -157, -6, -29],
  "SliceThickness": 2,
  "SliceTiming": [0, 0.785, 0.0975, 0.8825, 0.1975, 0.98, 0.295, 1.0775, 0.3925, 1.1775, 0.49, 1.275, 0.5875, 1.3725, 0.6875, 0, 0.785, 0.0975, 0.8825, 0.1975, 0.98, 0.295, 1.0775, 0.3925, 1.1775, 0.49, 1.275, 0.5875, 1.3725, 0.6875, 0, 0.785, 0.0975, 0.8825, 0.1975, 0.98, 0.295, 1.0775, 0.3925, 1.1775, 0.49, 1.275, 0.5875, 1.3725, 0.6875, 0, 0.785, 0.0975, 0.8825, 0.1975, 0.98, 0.295, 1.0775, 0.3925, 1.1775, 0.49, 1.275, 0.5875, 1.3725, 0.6875],
  "SoftwareVersions": "syngo_MR_E11",
  "SpacingBetweenSlices": 2,
  "StationName": "MRC35049",
  "TaskName": "motor",
  "TotalReadoutTime": 0.0576811,
  "TxRefAmp": 250.681,
  "WipMemBlock": "cbcd006c-6930-4e5b-b6c4-81717753b041||Sequence: R016 ve11c/master r/e634e98; Dec 19 2017 11:00:25 by eja",
  "dcmmeta_affine": [
    [-1.999543309211731, 0.041535407304763794, -0.010079365223646164, 105.9311294555664],
    [0.04103599488735199, 1.7337545156478882, -0.9961985349655151, -54.09605407714844],
    [0.011951182968914509, 0.9961777925491333, 1.734210729598999, -97.30785369873047],
    [0.0, 0.0, 0.0, 1.0]
],
  "dcmmeta_reorient_transform": [
    [0.0, -1.0, 0.0, 103.0],
    [1.0, 0.0, 0.0, 0.0],
    [0.0, 0.0, 1.0, 0.0],
    [0.0, 0.0, 0.0, 1.0]
],
  "dcmmeta_shape": [104, 104, 60, 144],
  "dcmmeta_slice_dim": 2,
  "dcmmeta_version": 0.6,
  "global": {
    "const": {
      "AcquisitionMatrix": [104, 0, 0, 104],
      "AngioFlag": "N",
      "BitsAllocated": 16,
      "BitsStored": 16,
      "BodyPartExamined": "BRAIN",
      "Columns": 832,
      "EchoNumbers": 1,
      "EchoTime": 37.0,
      "EchoTrainLength": 104,
      "FlipAngle": 52.0,
      "HighBit": 15,
      "ImageOrientationPatient": [0.99977162595823, -0.02051799781, 0.00597559157831, 0.02076770395522, 0.86687723971862, -0.4980889014325],
      "ImagePositionPatient": [-853.1619084087, -740.63018644816, 363.55694903063],
      "ImageType": [
        "ORIGINAL",
        "PRIMARY",
        "M",
        "MB",
        "ND",
        "MOSAIC"
],
      "ImagedNucleus": "1H",
      "ImagingFrequency": 123.259453,
      "InPlanePhaseEncodingDirection": "COL",
      "MRAcquisitionType": "2D",
      "MagneticFieldStrength": 3.0,
      "Manufacturer": "SIEMENS",
      "ManufacturerModelName": "Prisma_fit",
      "Modality": "MR",
      "NumberOfAverages": 1.0,
      "NumberOfPhaseEncodingSteps": 104,
      "PercentPhaseFieldOfView": 100.0,
      "PercentSampling": 100.0,
      "PerformedProcedureStepStartTime": "152122.825000",
      "PhotometricInterpretation": "MONOCHROME2",
      "PixelBandwidth": 2290.0,
      "PixelRepresentation": 0,
      "PixelSpacing": [2.0, 2.0],
      "ProtocolName": "func_task-motor_run-1",
      "RepetitionTime": 1490.0,
      "Rows": 832,
      "SAR": 0.03746955091546,
      "SamplesPerPixel": 1,
      "ScanOptions": "FS",
      "ScanningSequence": "EP",
      "SequenceName": "epfid2d1_104",
      "SequenceVariant": [
        "SK",
        "SS"
],
      "SeriesDescription": "func_task-motor_run-1",
      "SeriesNumber": 19,
      "SeriesTime": "155636.047000",
      "SliceLocation": -57.964819661305,
      "SliceThickness": 2.0,
      "SmallestImagePixelValue": 0,
      "SoftwareVersions": "syngo MR E11",
      "SpacingBetweenSlices": 2.0000000258558,
      "SpecificCharacterSet": "ISO_IR 100",
      "StudyID": "1",
      "StudyTime": "152122.747000",
      "TransmitCoilName": "Body",
      "VariableFlipAngleFlag": "N",
      "WindowCenterWidthExplanation": "Algo1",
      "dBdt": 0.0},
    "slices": {}
  },
  "time": {
    "samples": {
      "AcquisitionNumber": [1, 2, 3, 4, 5, 6, 7, 8, 9, 10, 11, 12, 13, 14, 15, 16, 17, 18, 19, 20, 21, 22, 23, 24, 25, 26, 27, 28, 29, 30, 31, 32, 33, 34, 35, 36, 37, 38, 39, 40, 41, 42, 43, 44, 45, 46, 47, 48, 49, 50, 51, 52, 53, 54, 55, 56, 57, 58, 59, 60, 61, 62, 63, 64, 65, 66, 67, 68, 69, 70, 71, 72, 73, 74, 75, 76, 77, 78, 79, 80, 81, 82, 83, 84, 85, 86, 87, 88, 89, 90, 91, 92, 93, 94, 95, 96, 97, 98, 99, 100, 101, 102, 103, 104, 105, 106, 107, 108, 109, 110, 111, 112, 113, 114, 115, 116, 117, 118, 119, 120, 121, 122, 123, 124, 125, 126, 127, 128, 129, 130, 131, 132, 133, 134, 135, 136, 137, 138, 139, 140, 141, 142, 143, 144],
      "AcquisitionTime": ["155508.617500", "155510.107500", "155511.597500", "155513.087500", "155514.577500", "155516.067500", "155517.557500", "155519.047500", "155520.537500", "155522.027500", "155523.517500", "155525.007500", "155526.497500", "155527.987500", "155529.477500", "155530.967500", "155532.457500", "155533.947500", "155535.437500", "155536.927500", "155538.417500", "155539.907500", "155541.397500", "155542.887500", "155544.377500", "155545.867500", "155547.357500", "155548.847500", "155550.337500", "155551.827500", "155553.317500", "155554.807500", "155556.297500", "155557.787500", "155559.277500", "155600.767500", "155602.257500", "155603.747500", "155605.237500", "155606.727500", "155608.217500", "155609.707500", "155611.197500", "155612.687500", "155614.177500", "155615.667500", "155617.157500", "155618.647500", "155620.137500", "155621.627500", "155623.117500", "155624.607500", "155626.097500", "155627.587500", "155629.077500", "155630.567500", "155632.057500", "155633.547500", "155635.037500", "155636.527500", "155638.017500", "155639.507500", "155640.997500", "155642.487500", "155643.977500", "155645.467500", "155646.957500", "155648.447500", "155649.937500", "155651.427500", "155652.917500", "155654.407500", "155655.897500", "155657.387500", "155658.877500", "155700.367500", "155701.857500", "155703.347500", "155704.837500", "155706.327500", "155707.817500", "155709.307500", "155710.797500", "155712.287500", "155713.777500", "155715.267500", "155716.757500", "155718.247500", "155719.737500", "155721.227500", "155722.717500", "155724.207500", "155725.697500", "155727.187500", "155728.677500", "155730.167500", "155731.657500", "155733.147500", "155734.637500", "155736.127500", "155737.617500", "155739.107500", "155740.597500", "155742.087500", "155743.577500", "155745.067500", "155746.557500", "155748.047500", "155749.537500", "155751.027500", "155752.517500", "155754.007500", "155755.497500", "155756.987500", "155758.477500", "155759.967500", "155801.457500", "155802.947500", "155804.437500", "155805.927500", "155807.417500", "155808.907500", "155810.397500", "155811.887500", "155813.377500", "155814.867500", "155816.357500", "155817.847500", "155819.337500", "155820.827500", "155822.317500", "155823.807500", "155825.297500", "155826.787500", "155828.277500", "155829.767500", "155831.257500", "155832.747500", "155834.237500", "155835.727500", "155837.217500", "155838.707500", "155840.197500", "155841.687500"],
      "ContentTime": ["155636.049000", "155636.053000", "155636.056000", "155636.059000", "155636.062000", "155636.064000", "155636.067000", "155636.070000", "155636.073000", "155636.076000", "155636.079000", "155636.082000", "155636.085000", "155636.087000", "155636.090000", "155636.093000", "155636.096000", "155636.099000", "155636.102000", "155636.105000", "155636.107000", "155636.110000", "155636.113000", "155636.116000", "155636.119000", "155636.122000", "155636.125000", "155636.128000", "155636.130000", "155636.133000", "155636.136000", "155636.139000", "155636.142000", "155636.145000", "155656.010000", "155656.014000", "155656.017000", "155656.020000", "155656.023000", "155656.026000", "155656.029000", "155656.031000", "155656.034000", "155656.037000", "155656.040000", "155656.043000", "155656.051000", "155656.054000", "155656.057000", "155656.060000", "155656.063000", "155656.066000", "155656.069000", "155656.072000", "155716.010000", "155716.013000", "155716.016000", "155716.019000", "155716.022000", "155716.024000", "155716.027000", "155716.030000", "155716.033000", "155716.036000", "155716.039000", "155716.042000", "155716.044000", "155716.047000", "155716.050000", "155716.053000", "155716.056000", "155716.059000", "155716.062000", "155716.064000", "155716.067000", "155736.011000", "155736.014000", "155736.017000", "155736.020000", "155736.023000", "155736.025000", "155736.028000", "155736.031000", "155736.034000", "155736.037000", "155736.040000", "155736.043000", "155736.045000", "155736.048000", "155736.051000", "155736.054000", "155736.057000", "155736.060000", "155736.063000", "155736.066000", "155816.010000", "155816.013000", "155816.016000", "155816.019000", "155816.022000", "155816.025000", "155816.028000", "155816.030000", "155816.033000", "155816.037000", "155816.040000", "155816.043000", "155816.045000", "155816.048000", "155816.051000", "155816.054000", "155816.057000", "155816.060000", "155816.063000", "155816.065000", "155816.068000", "155816.071000", "155816.074000", "155816.077000", "155816.080000", "155816.083000", "155816.086000", "155816.088000", "155816.091000", "155816.094000", "155843.479000", "155843.483000", "155843.485000", "155843.488000", "155843.491000", "155843.494000", "155843.497000", "155843.500000", "155843.503000", "155843.506000", "155843.509000", "155843.512000", "155843.515000", "155843.518000", "155843.521000", "155843.524000", "155843.527000", "155843.531000", "155843.534000"],
      "InstanceCreationTime": ["155636.049000", "155636.053000", "155636.056000", "155636.059000", "155636.062000", "155636.064000", "155636.067000", "155636.070000", "155636.073000", "155636.076000", "155636.079000", "155636.082000", "155636.085000", "155636.087000", "155636.090000", "155636.093000", "155636.096000", "155636.099000", "155636.102000", "155636.105000", "155636.107000", "155636.110000", "155636.113000", "155636.116000", "155636.119000", "155636.122000", "155636.125000", "155636.128000", "155636.130000", "155636.133000", "155636.136000", "155636.139000", "155636.142000", "155636.145000", "155656.010000", "155656.014000", "155656.017000", "155656.020000", "155656.023000", "155656.026000", "155656.029000", "155656.031000", "155656.034000", "155656.037000", "155656.040000", "155656.043000", "155656.051000", "155656.054000", "155656.057000", "155656.060000", "155656.063000", "155656.066000", "155656.069000", "155656.072000", "155716.010000", "155716.013000", "155716.016000", "155716.019000", "155716.022000", "155716.024000", "155716.027000", "155716.030000", "155716.033000", "155716.036000", "155716.039000", "155716.042000", "155716.044000", "155716.047000", "155716.050000", "155716.053000", "155716.056000", "155716.059000", "155716.062000", "155716.064000", "155716.067000", "155736.011000", "155736.014000", "155736.017000", "155736.020000", "155736.023000", "155736.025000", "155736.028000", "155736.031000", "155736.034000", "155736.037000", "155736.040000", "155736.043000", "155736.045000", "155736.048000", "155736.051000", "155736.054000", "155736.057000", "155736.060000", "155736.063000", "155736.066000", "155816.010000", "155816.013000", "155816.016000", "155816.019000", "155816.022000", "155816.025000", "155816.028000", "155816.030000", "155816.033000", "155816.037000", "155816.040000", "155816.043000", "155816.045000", "155816.048000", "155816.051000", "155816.054000", "155816.057000", "155816.060000", "155816.063000", "155816.065000", "155816.068000", "155816.071000", "155816.074000", "155816.077000", "155816.080000", "155816.083000", "155816.086000", "155816.088000", "155816.091000", "155816.094000", "155843.479000", "155843.483000", "155843.485000", "155843.488000", "155843.491000", "155843.494000", "155843.497000", "155843.500000", "155843.503000", "155843.506000", "155843.509000", "155843.512000", "155843.515000", "155843.518000", "155843.521000", "155843.524000", "155843.527000", "155843.531000", "155843.534000"],
      "InstanceNumber": [1, 2, 3, 4, 5, 6, 7, 8, 9, 10, 11, 12, 13, 14, 15, 16, 17, 18, 19, 20, 21, 22, 23, 24, 25, 26, 27, 28, 29, 30, 31, 32, 33, 34, 35, 36, 37, 38, 39, 40, 41, 42, 43, 44, 45, 46, 47, 48, 49, 50, 51, 52, 53, 54, 55, 56, 57, 58, 59, 60, 61, 62, 63, 64, 65, 66, 67, 68, 69, 70, 71, 72, 73, 74, 75, 76, 77, 78, 79, 80, 81, 82, 83, 84, 85, 86, 87, 88, 89, 90, 91, 92, 93, 94, 95, 96, 97, 98, 99, 100, 101, 102, 103, 104, 105, 106, 107, 108, 109, 110, 111, 112, 113, 114, 115, 116, 117, 118, 119, 120, 121, 122, 123, 124, 125, 126, 127, 128, 129, 130, 131, 132, 133, 134, 135, 136, 137, 138, 139, 140, 141, 142, 143, 144],
      "LargestImagePixelValue": [46658, 45746, 45532, 44335, 45273, 44664, 44567, 45196, 44492, 44750, 44816, 44499, 44372, 45181, 44310, 44237, 44229, 44059, 45091, 45268, 45213, 45905, 45640, 45772, 45205, 45761, 45348, 44787, 44618, 45335, 45045, 44598, 45129, 44957, 44842, 45212, 44831, 45150, 45446, 44939, 45085, 44571, 45131, 44515, 44893, 44643, 45150, 45053, 44845, 44151, 44140, 43889, 43863, 43843, 43601, 43408, 44261, 43607, 43903, 43944, 44083, 44068, 43558, 43711, 43624, 43821, 43231, 43613, 44038, 44078, 43858, 43508, 42997, 43043, 43297, 44138, 44096, 44653, 45190, 45219, 45129, 45092, 45428, 45427, 44904, 45538, 44960, 43678, 44306, 44094, 44435, 44206, 44357, 44270, 44463, 44363, 44638, 44460, 44378, 44027, 44171, 43924, 43446, 45526, 43613, 44357, 43868, 43990, 43229, 43939, 44071, 43711, 44332, 44260, 44248, 44624, 44576, 43884, 44503, 45094, 44981, 44965, 44698, 45135, 45215, 44714, 44958, 44882, 45188, 44373, 44136, 44438, 44501, 44414, 43210, 45263, 43266, 43326, 44011, 43938, 44447, 44008, 45089, 44152],
      "WindowCenter": [11128.0, 11154.0, 11184.0, 11165.0, 11135.0, 11119.0, 11064.0, 11051.0, 11034.0, 11045.0, 11083.0, 11113.0, 11136.0, 11128.0, 11087.0, 11091.0, 11096.0, 11127.0, 11167.0, 11157.0, 11146.0, 11160.0, 11161.0, 11144.0, 11105.0, 11097.0, 11100.0, 11122.0, 11126.0, 11127.0, 11097.0, 11072.0, 11076.0, 11086.0, 11100.0, 11128.0, 11056.0, 11117.0, 11112.0, 11142.0, 11160.0, 11158.0, 11154.0, 11150.0, 11149.0, 11147.0, 11144.0, 11124.0, 11100.0, 11094.0, 11099.0, 11081.0, 11062.0, 11047.0, 11032.0, 11038.0, 11042.0, 11048.0, 11057.0, 11045.0, 11036.0, 11057.0, 11071.0, 11064.0, 11057.0, 11054.0, 11044.0, 11086.0, 11138.0, 11124.0, 11082.0, 11046.0, 11018.0, 11062.0, 11093.0, 11086.0, 11059.0, 11070.0, 11118.0, 11171.0, 11173.0, 11134.0, 11102.0, 11080.0, 11073.0, 11124.0, 11144.0, 11133.0, 11109.0, 11091.0, 11070.0, 11051.0, 11052.0, 11050.0, 11053.0, 11063.0, 11063.0, 11075.0, 11066.0, 11059.0, 11063.0, 11052.0, 11053.0, 11110.0, 11105.0, 11075.0, 11040.0, 11045.0, 11062.0, 11090.0, 11085.0, 11055.0, 11036.0, 11033.0, 11038.0, 11056.0, 11071.0, 11080.0, 11075.0, 11093.0, 11099.0, 11124.0, 11147.0, 11158.0, 11150.0, 11136.0, 11124.0, 11139.0, 11159.0, 11140.0, 11141.0, 11123.0, 11099.0, 11065.0, 11035.0, 11121.0, 11121.0, 11096.0, 11071.0, 11042.0, 11084.0, 11130.0, 11135.0, 11104.0],
      "WindowWidth": [23990.0, 24016.0, 24066.0, 24018.0, 23934.0, 23887.0, 23760.0, 23724.0, 23691.0, 23708.0, 23799.0, 23871.0, 23930.0, 23907.0, 23817.0, 23831.0, 23836.0, 23906.0, 24002.0, 23980.0, 23950.0, 23984.0, 23985.0, 23951.0, 23859.0, 23835.0, 23849.0, 23900.0, 23903.0, 23905.0, 23830.0, 23776.0, 23785.0, 23813.0, 23847.0, 23904.0, 23738.0, 23887.0, 23876.0, 23952.0, 23996.0, 23991.0, 23979.0, 23977.0, 23967.0, 23959.0, 23953.0, 23902.0, 23848.0, 23839.0, 23847.0, 23807.0, 23757.0, 23717.0, 23692.0, 23705.0, 23707.0, 23723.0, 23748.0, 23714.0, 23692.0, 23741.0, 23780.0, 23762.0, 23745.0, 23736.0, 23718.0, 23812.0, 23928.0, 23893.0, 23801.0, 23720.0, 23656.0, 23757.0, 23832.0, 23814.0, 23752.0, 23781.0, 23890.0, 24012.0, 24017.0, 23933.0, 23853.0, 23802.0, 23784.0, 23906.0, 23954.0, 23933.0, 23875.0, 23839.0, 23779.0, 23733.0, 23739.0, 23731.0, 23736.0, 23758.0, 23758.0, 23795.0, 23765.0, 23751.0, 23769.0, 23736.0, 23745.0, 23868.0, 23860.0, 23789.0, 23707.0, 23717.0, 23759.0, 23827.0, 23822.0, 23741.0, 23691.0, 23692.0, 23700.0, 23747.0, 23774.0, 23802.0, 23787.0, 23832.0, 23842.0, 23905.0, 23956.0, 23981.0, 23966.0, 23940.0, 23908.0, 23943.0, 23999.0, 23950.0, 23951.0, 23904.0, 23846.0, 23776.0, 23706.0, 23893.0, 23906.0, 23846.0, 23783.0, 23716.0, 23815.0, 23919.0, 23927.0, 23853.0]
    },
    "slices": {}
  }
}