{
  "AcquisitionMatrixPE": 104,
  "AcquisitionNumber": 1,
  "AcquisitionTime": "16:09:25.605000",
  "BandwidthPerPixelPhaseEncode": 17.17,
  "BaseResolution": 104,
  "BodyPartExamined": "BRAIN",
  "CoilString": "HC1-7;NC1_2",
  "ConsistencyInfo": "N4_VE11C_LATEST_20160120",
  "ConversionSoftware": "dcm2niix",
  "ConversionSoftwareVersion": "v1.0.20190720  (JP2:OpenJPEG) GCC7.3.0",
  "DerivedVendorReportedEchoSpacing": 0.000560011,
  "DeviceSerialNumber": "167006",
  "DwellTime": 2.1e-06,
  "EchoTime": 0.037,
  "EchoTrainLength": 104,
  "EffectiveEchoSpacing": 0.000560011,
  "FlipAngle": 52,
  "ImageComments": "Unaliased_MB4_PE3_LB",
  "ImageOrientationPatientDICOM": [0.999772, -0.020518, 0.00597559, 0.0207677, 0.866877, -0.498089],
  "ImageType": [
    "ORIGINAL",
    "PRIMARY",
    "M",
    "MB",
    "ND",
    "MOSAIC"
],
  "ImagingFrequency": 123.259,
  "InPlanePhaseEncodingDirectionDICOM": "COL",
  "InstitutionAddress": "Chemin_Queen-Mary_4565_Montreal_District_CA_H3W_1W5",
  "InstitutionName": "IUGM",
  "InstitutionalDepartmentName": "Department",
  "MRAcquisitionType": "2D",
  "MagneticFieldStrength": 3,
  "Manufacturer": "Siemens",
  "ManufacturersModelName": "Prisma_fit",
  "Modality": "MR",
  "MultibandAccelerationFactor": 4,
  "PartialFourier": 1,
  "PatientPosition": "HFS",
  "PercentPhaseFOV": 100,
  "PhaseEncodingDirection": "j",
  "PhaseEncodingSteps": 104,
  "PhaseResolution": 1,
  "PixelBandwidth": 2290,
  "ProcedureStepDescription": "hcptrt_generic",
  "ProtocolName": "func_task-relational_run-2",
  "PulseSequenceDetails": "%CustomerSeq%_cmrr_mbep2d_bold",
  "ReceiveCoilActiveElements": "HC1-7;NC1,2",
  "ReceiveCoilName": "HeadNeck_64",
  "ReconMatrixPE": 104,
  "RepetitionTime": 1.49,
  "SAR": 0.0373684,
  "ScanOptions": "FS",
  "ScanningSequence": "EP",
  "SequenceName": "epfid2d1_104",
  "SequenceVariant": "SK_SS",
  "SeriesDescription": "func_task-relational_run-2",
  "SeriesNumber": 27,
  "ShimSetting": [617, -7193, -8882, 391, -5, -158, -6, -29],
  "SliceThickness": 2,
  "SliceTiming": [0, 0.7825, 0.0975, 0.88, 0.195, 0.98, 0.2925, 1.0775, 0.39, 1.175, 0.49, 1.2725, 0.5875, 1.37, 0.685, 0, 0.7825, 0.0975, 0.88, 0.195, 0.98, 0.2925, 1.0775, 0.39, 1.175, 0.49, 1.2725, 0.5875, 1.37, 0.685, 0, 0.7825, 0.0975, 0.88, 0.195, 0.98, 0.2925, 1.0775, 0.39, 1.175, 0.49, 1.2725, 0.5875, 1.37, 0.685, 0, 0.7825, 0.0975, 0.88, 0.195, 0.98, 0.2925, 1.0775, 0.39, 1.175, 0.49, 1.2725, 0.5875, 1.37, 0.685],
  "SoftwareVersions": "syngo_MR_E11",
  "SpacingBetweenSlices": 2,
  "StationName": "MRC35049",
  "TaskName": "relational",
  "TotalReadoutTime": 0.0576811,
  "TxRefAmp": 250.681,
  "WipMemBlock": "38015e17-15d5-4c0e-9e22-c00de46bd30d||Sequence: R016 ve11c/master r/e634e98; Dec 19 2017 11:00:25 by eja",
  "dcmmeta_affine": [
    [-1.999543309211731, 0.041535407304763794, -0.010079365223646164, 105.9311294555664],
    [0.04103599488735199, 1.7337545156478882, -0.9961985349655151, -54.09605407714844],
    [0.011951182968914509, 0.9961777925491333, 1.734210729598999, -97.30785369873047],
    [0.0, 0.0, 0.0, 1.0]
],
  "dcmmeta_reorient_transform": [
    [0.0, -1.0, 0.0, 103.0],
    [1.0, 0.0, 0.0, 0.0],
    [0.0, 0.0, 1.0, 0.0],
    [0.0, 0.0, 0.0, 1.0]
],
  "dcmmeta_shape": [104, 104, 60, 119],
  "dcmmeta_slice_dim": 2,
  "dcmmeta_version": 0.6,
  "global": {
    "const": {
      "AcquisitionMatrix": [104, 0, 0, 104],
      "AngioFlag": "N",
      "BitsAllocated": 16,
      "BitsStored": 16,
      "BodyPartExamined": "BRAIN",
      "Columns": 832,
      "EchoNumbers": 1,
      "EchoTime": 37.0,
      "EchoTrainLength": 104,
      "FlipAngle": 52.0,
      "HighBit": 15,
      "ImageOrientationPatient": [0.99977162595823, -0.02051799781, 0.00597559157831, 0.02076770395522, 0.86687723971862, -0.4980889014325],
      "ImagePositionPatient": [-853.1619084087, -740.63018644816, 363.55694903063],
      "ImageType": [
        "ORIGINAL",
        "PRIMARY",
        "M",
        "MB",
        "ND",
        "MOSAIC"
],
      "ImagedNucleus": "1H",
      "ImagingFrequency": 123.259457,
      "InPlanePhaseEncodingDirection": "COL",
      "MRAcquisitionType": "2D",
      "MagneticFieldStrength": 3.0,
      "Manufacturer": "SIEMENS",
      "ManufacturerModelName": "Prisma_fit",
      "Modality": "MR",
      "NumberOfAverages": 1.0,
      "NumberOfPhaseEncodingSteps": 104,
      "PercentPhaseFieldOfView": 100.0,
      "PercentSampling": 100.0,
      "PerformedProcedureStepStartTime": "152122.825000",
      "PhotometricInterpretation": "MONOCHROME2",
      "PixelBandwidth": 2290.0,
      "PixelRepresentation": 0,
      "PixelSpacing": [2.0, 2.0],
      "ProtocolName": "func_task-relational_run-2",
      "RepetitionTime": 1490.0,
      "Rows": 832,
      "SAR": 0.03736843523203,
      "SamplesPerPixel": 1,
      "ScanOptions": "FS",
      "ScanningSequence": "EP",
      "SequenceName": "epfid2d1_104",
      "SequenceVariant": [
        "SK",
        "SS"
],
      "SeriesDescription": "func_task-relational_run-2",
      "SeriesNumber": 27,
      "SeriesTime": "161024.003000",
      "SliceLocation": -57.964819661305,
      "SliceThickness": 2.0,
      "SmallestImagePixelValue": 0,
      "SoftwareVersions": "syngo MR E11",
      "SpacingBetweenSlices": 2.0000000258558,
      "SpecificCharacterSet": "ISO_IR 100",
      "StudyID": "1",
      "StudyTime": "152122.747000",
      "TransmitCoilName": "Body",
      "VariableFlipAngleFlag": "N",
      "WindowCenterWidthExplanation": "Algo1",
      "dBdt": 0.0},
    "slices": {}
  },
  "time": {
    "samples": {
      "AcquisitionNumber": [1, 2, 3, 4, 5, 6, 7, 8, 9, 10, 11, 12, 13, 14, 15, 16, 17, 18, 19, 20, 21, 22, 23, 24, 25, 26, 27, 28, 29, 30, 31, 32, 33, 34, 35, 36, 37, 38, 39, 40, 41, 42, 43, 44, 45, 46, 47, 48, 49, 50, 51, 52, 53, 54, 55, 56, 57, 58, 59, 60, 61, 62, 63, 64, 65, 66, 67, 68, 69, 70, 71, 72, 73, 74, 75, 76, 77, 78, 79, 80, 81, 82, 83, 84, 85, 86, 87, 88, 89, 90, 91, 92, 93, 94, 95, 96, 97, 98, 99, 100, 101, 102, 103, 104, 105, 106, 107, 108, 109, 110, 111, 112, 113, 114, 115, 116, 117, 118, 119],
      "AcquisitionTime": ["160925.605000", "160927.095000", "160928.585000", "160930.075000", "160931.565000", "160933.055000", "160934.545000", "160936.035000", "160937.525000", "160939.015000", "160940.505000", "160941.995000", "160943.485000", "160944.975000", "160946.465000", "160947.955000", "160949.445000", "160950.935000", "160952.425000", "160953.915000", "160955.405000", "160956.895000", "160958.385000", "160959.875000", "161001.365000", "161002.855000", "161004.345000", "161005.835000", "161007.325000", "161008.815000", "161010.305000", "161011.795000", "161013.285000", "161014.775000", "161016.265000", "161017.755000", "161019.245000", "161020.735000", "161022.225000", "161023.715000", "161025.205000", "161026.695000", "161028.185000", "161029.675000", "161031.165000", "161032.655000", "161034.145000", "161035.635000", "161037.125000", "161038.615000", "161040.105000", "161041.595000", "161043.085000", "161044.575000", "161046.065000", "161047.555000", "161049.045000", "161050.535000", "161052.025000", "161053.515000", "161055.005000", "161056.495000", "161057.985000", "161059.475000", "161100.965000", "161102.455000", "161103.945000", "161105.435000", "161106.925000", "161108.415000", "161109.905000", "161111.395000", "161112.885000", "161114.375000", "161115.865000", "161117.355000", "161118.845000", "161120.335000", "161121.825000", "161123.315000", "161124.805000", "161126.295000", "161127.785000", "161129.275000", "161130.765000", "161132.255000", "161133.745000", "161135.235000", "161136.725000", "161138.215000", "161139.705000", "161141.195000", "161142.685000", "161144.175000", "161145.665000", "161147.155000", "161148.645000", "161150.135000", "161151.625000", "161153.115000", "161154.605000", "161156.095000", "161157.585000", "161159.075000", "161200.565000", "161202.055000", "161203.545000", "161205.035000", "161206.525000", "161208.015000", "161209.505000", "161210.995000", "161212.485000", "161213.975000", "161215.465000", "161216.955000", "161218.445000", "161219.935000", "161221.425000"],
      "ContentTime": ["161024.006000", "161024.010000", "161024.012000", "161043.977000", "161043.980000", "161043.983000", "161043.986000", "161043.989000", "161043.992000", "161043.994000", "161043.997000", "161044.001000", "161044.009000", "161044.012000", "161044.015000", "161044.018000", "161044.021000", "161044.024000", "161044.028000", "161044.031000", "161044.033000", "161044.036000", "161044.039000", "161044.042000", "161103.976000", "161103.979000", "161103.982000", "161103.985000", "161103.987000", "161103.990000", "161103.993000", "161103.996000", "161104.000000", "161104.003000", "161104.006000", "161104.012000", "161104.014000", "161104.017000", "161104.020000", "161104.023000", "161104.026000", "161104.029000", "161104.032000", "161104.035000", "161123.976000", "161123.979000", "161123.985000", "161123.988000", "161123.991000", "161123.994000", "161123.997000", "161124.001000", "161124.004000", "161124.007000", "161124.010000", "161124.012000", "161124.015000", "161124.018000", "161124.021000", "161124.024000", "161124.027000", "161124.030000", "161124.032000", "161124.035000", "161143.976000", "161143.979000", "161143.982000", "161143.985000", "161143.987000", "161143.990000", "161143.993000", "161143.996000", "161144.000000", "161144.003000", "161144.006000", "161144.009000", "161144.011000", "161144.014000", "161144.017000", "161144.020000", "161144.023000", "161144.026000", "161144.029000", "161144.032000", "161203.976000", "161203.979000", "161203.982000", "161203.985000", "161203.988000", "161203.990000", "161203.994000", "161203.996000", "161204.000000", "161204.003000", "161204.006000", "161204.009000", "161204.012000", "161204.015000", "161204.018000", "161204.020000", "161204.023000", "161204.026000", "161204.029000", "161204.032000", "161204.035000", "161224.036000", "161224.039000", "161224.042000", "161224.044000", "161224.047000", "161224.050000", "161224.053000", "161224.056000", "161224.059000", "161224.062000", "161224.065000", "161224.078000", "161224.082000", "161224.085000"],
      "InstanceCreationTime": ["161024.006000", "161024.010000", "161024.012000", "161043.977000", "161043.980000", "161043.983000", "161043.986000", "161043.989000", "161043.992000", "161043.994000", "161043.997000", "161044.001000", "161044.009000", "161044.012000", "161044.015000", "161044.018000", "161044.021000", "161044.024000", "161044.028000", "161044.031000", "161044.033000", "161044.036000", "161044.039000", "161044.042000", "161103.976000", "161103.979000", "161103.982000", "161103.985000", "161103.987000", "161103.990000", "161103.993000", "161103.996000", "161104.000000", "161104.003000", "161104.006000", "161104.012000", "161104.014000", "161104.017000", "161104.020000", "161104.023000", "161104.026000", "161104.029000", "161104.032000", "161104.035000", "161123.976000", "161123.979000", "161123.985000", "161123.988000", "161123.991000", "161123.994000", "161123.997000", "161124.001000", "161124.004000", "161124.007000", "161124.010000", "161124.012000", "161124.015000", "161124.018000", "161124.021000", "161124.024000", "161124.027000", "161124.030000", "161124.032000", "161124.035000", "161143.976000", "161143.979000", "161143.982000", "161143.985000", "161143.987000", "161143.990000", "161143.993000", "161143.996000", "161144.000000", "161144.003000", "161144.006000", "161144.009000", "161144.011000", "161144.014000", "161144.017000", "161144.020000", "161144.023000", "161144.026000", "161144.029000", "161144.032000", "161203.976000", "161203.979000", "161203.982000", "161203.985000", "161203.988000", "161203.990000", "161203.994000", "161203.996000", "161204.000000", "161204.003000", "161204.006000", "161204.009000", "161204.012000", "161204.015000", "161204.018000", "161204.020000", "161204.023000", "161204.026000", "161204.029000", "161204.032000", "161204.035000", "161224.036000", "161224.039000", "161224.042000", "161224.044000", "161224.047000", "161224.050000", "161224.053000", "161224.056000", "161224.059000", "161224.062000", "161224.065000", "161224.078000", "161224.082000", "161224.085000"],
      "InstanceNumber": [1, 2, 3, 4, 5, 6, 7, 8, 9, 10, 11, 12, 13, 14, 15, 16, 17, 18, 19, 20, 21, 22, 23, 24, 25, 26, 27, 28, 29, 30, 31, 32, 33, 34, 35, 36, 37, 38, 39, 40, 41, 42, 43, 44, 45, 46, 47, 48, 49, 50, 51, 52, 53, 54, 55, 56, 57, 58, 59, 60, 61, 62, 63, 64, 65, 66, 67, 68, 69, 70, 71, 72, 73, 74, 75, 76, 77, 78, 79, 80, 81, 82, 83, 84, 85, 86, 87, 88, 89, 90, 91, 92, 93, 94, 95, 96, 97, 98, 99, 100, 101, 102, 103, 104, 105, 106, 107, 108, 109, 110, 111, 112, 113, 114, 115, 116, 117, 118, 119],
      "LargestImagePixelValue": [48018, 46382, 43836, 44636, 43641, 43695, 43587, 43115, 42741, 43158, 42903, 42777, 42921, 42621, 42842, 42880, 43562, 42503, 44276, 44050, 42797, 42196, 44023, 44502, 43824, 43850, 42555, 43226, 42799, 42374, 43118, 43608, 43714, 43327, 44494, 44042, 42147, 44229, 45926, 45382, 44386, 43551, 44429, 42552, 42392, 42914, 42635, 43658, 43469, 42960, 43984, 42199, 42371, 42432, 43030, 42647, 42757, 42523, 42237, 42588, 42575, 42600, 42648, 42735, 42706, 43002, 43347, 43154, 43191, 43359, 42800, 44596, 43118, 44199, 42983, 43767, 43870, 42687, 43661, 45278, 45970, 44930, 43581, 43711, 43509, 42526, 44660, 44080, 44250, 44694, 45175, 44031, 44853, 43935, 43291, 44013, 42950, 43075, 43669, 42358, 43257, 42963, 43277, 42790, 42397, 42329, 42072, 43169, 43799, 42688, 44035, 44088, 43138, 43761, 44681, 45165, 44269, 43507, 42267],
      "WindowCenter": [11146.0, 11090.0, 11053.0, 11046.0, 11033.0, 11021.0, 11009.0, 11010.0, 11042.0, 11071.0, 11071.0, 11021.0, 10998.0, 10979.0, 11012.0, 11017.0, 11029.0, 11014.0, 11024.0, 10980.0, 10950.0, 10977.0, 11026.0, 11014.0, 10969.0, 10931.0, 10932.0, 10986.0, 11012.0, 11015.0, 11008.0, 10983.0, 10959.0, 10949.0, 10969.0, 10980.0, 10969.0, 10996.0, 11021.0, 10983.0, 10969.0, 10974.0, 11012.0, 11007.0, 10990.0, 10993.0, 10978.0, 10988.0, 10983.0, 10973.0, 10985.0, 10977.0, 10979.0, 10990.0, 10997.0, 10999.0, 11009.0, 11009.0, 11008.0, 11007.0, 11002.0, 10989.0, 10990.0, 10993.0, 10997.0, 10993.0, 10973.0, 10962.0, 10981.0, 11008.0, 10991.0, 11011.0, 10973.0, 10989.0, 10964.0, 10947.0, 10970.0, 10998.0, 11031.0, 11038.0, 11015.0, 10966.0, 10938.0, 10953.0, 10966.0, 10958.0, 10976.0, 10973.0, 10973.0, 10986.0, 10991.0, 10991.0, 11003.0, 11005.0, 10996.0, 11007.0, 11010.0, 11025.0, 11034.0, 11017.0, 11024.0, 11022.0, 11019.0, 11016.0, 10994.0, 10990.0, 10982.0, 10991.0, 11005.0, 10988.0, 10995.0, 11004.0, 10994.0, 11024.0, 11049.0, 11020.0, 10976.0, 10970.0, 10999.0],
      "WindowWidth": [24010.0, 23845.0, 23746.0, 23719.0, 23685.0, 23653.0, 23621.0, 23621.0, 23710.0, 23766.0, 23773.0, 23659.0, 23607.0, 23557.0, 23636.0, 23649.0, 23675.0, 23640.0, 23663.0, 23556.0, 23491.0, 23559.0, 23660.0, 23643.0, 23536.0, 23445.0, 23449.0, 23572.0, 23635.0, 23645.0, 23623.0, 23566.0, 23513.0, 23485.0, 23527.0, 23550.0, 23537.0, 23588.0, 23644.0, 23553.0, 23526.0, 23541.0, 23622.0, 23628.0, 23580.0, 23584.0, 23550.0, 23568.0, 23565.0, 23539.0, 23562.0, 23569.0, 23560.0, 23585.0, 23601.0, 23609.0, 23625.0, 23632.0, 23625.0, 23624.0, 23624.0, 23585.0, 23593.0, 23589.0, 23606.0, 23592.0, 23548.0, 23520.0, 23560.0, 23623.0, 23582.0, 23639.0, 23544.0, 23575.0, 23522.0, 23482.0, 23527.0, 23598.0, 23683.0, 23680.0, 23631.0, 23518.0, 23458.0, 23492.0, 23521.0, 23509.0, 23537.0, 23534.0, 23533.0, 23565.0, 23568.0, 23579.0, 23597.0, 23625.0, 23593.0, 23610.0, 23623.0, 23655.0, 23679.0, 23647.0, 23663.0, 23658.0, 23651.0, 23653.0, 23602.0, 23585.0, 23564.0, 23579.0, 23609.0, 23579.0, 23587.0, 23612.0, 23609.0, 23674.0, 23727.0, 23655.0, 23558.0, 23549.0, 23612.0]
    },
    "slices": {}
  }
}