{
  "AcquisitionMatrixPE": 104,
  "AcquisitionNumber": 1,
  "AcquisitionTime": "16:20:57.542500",
  "BandwidthPerPixelPhaseEncode": 17.17,
  "BaseResolution": 104,
  "BodyPartExamined": "BRAIN",
  "CoilString": "HC1-7;NC1_2",
  "ConsistencyInfo": "N4_VE11C_LATEST_20160120",
  "ConversionSoftware": "dcm2niix",
  "ConversionSoftwareVersion": "v1.0.20190720  (JP2:OpenJPEG) GCC7.3.0",
  "DerivedVendorReportedEchoSpacing": 0.000560011,
  "DeviceSerialNumber": "167006",
  "DwellTime": 2.1e-06,
  "EchoTime": 0.037,
  "EchoTrainLength": 104,
  "EffectiveEchoSpacing": 0.000560011,
  "FlipAngle": 52,
  "ImageComments": "Unaliased_MB4_PE3_LB",
  "ImageOrientationPatientDICOM": [0.999772, -0.020518, 0.00597559, 0.0207677, 0.866877, -0.498089],
  "ImageType": [
    "ORIGINAL",
    "PRIMARY",
    "M",
    "MB",
    "ND",
    "MOSAIC"
],
  "ImagingFrequency": 123.259,
  "InPlanePhaseEncodingDirectionDICOM": "COL",
  "InstitutionAddress": "Chemin_Queen-Mary_4565_Montreal_District_CA_H3W_1W5",
  "InstitutionName": "IUGM",
  "InstitutionalDepartmentName": "Department",
  "MRAcquisitionType": "2D",
  "MagneticFieldStrength": 3,
  "Manufacturer": "Siemens",
  "ManufacturersModelName": "Prisma_fit",
  "Modality": "MR",
  "MultibandAccelerationFactor": 4,
  "PartialFourier": 1,
  "PatientPosition": "HFS",
  "PercentPhaseFOV": 100,
  "PhaseEncodingDirection": "j",
  "PhaseEncodingSteps": 104,
  "PhaseResolution": 1,
  "PixelBandwidth": 2290,
  "ProcedureStepDescription": "hcptrt_generic",
  "ProtocolName": "func_task-motor_run-2",
  "PulseSequenceDetails": "%CustomerSeq%_cmrr_mbep2d_bold",
  "ReceiveCoilActiveElements": "HC1-7;NC1,2",
  "ReceiveCoilName": "HeadNeck_64",
  "ReconMatrixPE": 104,
  "RepetitionTime": 1.49,
  "SAR": 0.0374696,
  "ScanOptions": "FS",
  "ScanningSequence": "EP",
  "SequenceName": "epfid2d1_104",
  "SequenceVariant": "SK_SS",
  "SeriesDescription": "func_task-motor_run-2",
  "SeriesNumber": 33,
  "ShimSetting": [617, -7192, -8882, 390, -4, -157, -6, -29],
  "SliceThickness": 2,
  "SliceTiming": [0, 0.785, 0.0975, 0.8825, 0.1975, 0.98, 0.295, 1.0775, 0.3925, 1.1775, 0.49, 1.275, 0.5875, 1.3725, 0.6875, 0, 0.785, 0.0975, 0.8825, 0.1975, 0.98, 0.295, 1.0775, 0.3925, 1.1775, 0.49, 1.275, 0.5875, 1.3725, 0.6875, 0, 0.785, 0.0975, 0.8825, 0.1975, 0.98, 0.295, 1.0775, 0.3925, 1.1775, 0.49, 1.275, 0.5875, 1.3725, 0.6875, 0, 0.785, 0.0975, 0.8825, 0.1975, 0.98, 0.295, 1.0775, 0.3925, 1.1775, 0.49, 1.275, 0.5875, 1.3725, 0.6875],
  "SoftwareVersions": "syngo_MR_E11",
  "SpacingBetweenSlices": 2,
  "StationName": "MRC35049",
  "TaskName": "motor",
  "TotalReadoutTime": 0.0576811,
  "TxRefAmp": 250.681,
  "WipMemBlock": "f9ceb52f-6152-4160-8124-63feb5af4890||Sequence: R016 ve11c/master r/e634e98; Dec 19 2017 11:00:25 by eja",
  "dcmmeta_affine": [
    [-1.999543309211731, 0.041535407304763794, -0.010079365223646164, 105.9311294555664],
    [0.04103599488735199, 1.7337545156478882, -0.9961985349655151, -54.09605407714844],
    [0.011951182968914509, 0.9961777925491333, 1.734210729598999, -97.30785369873047],
    [0.0, 0.0, 0.0, 1.0]
],
  "dcmmeta_reorient_transform": [
    [0.0, -1.0, 0.0, 103.0],
    [1.0, 0.0, 0.0, 0.0],
    [0.0, 0.0, 1.0, 0.0],
    [0.0, 0.0, 0.0, 1.0]
],
  "dcmmeta_shape": [104, 104, 60, 144],
  "dcmmeta_slice_dim": 2,
  "dcmmeta_version": 0.6,
  "global": {
    "const": {
      "AcquisitionMatrix": [104, 0, 0, 104],
      "AngioFlag": "N",
      "BitsAllocated": 16,
      "BitsStored": 16,
      "BodyPartExamined": "BRAIN",
      "Columns": 832,
      "EchoNumbers": 1,
      "EchoTime": 37.0,
      "EchoTrainLength": 104,
      "FlipAngle": 52.0,
      "HighBit": 15,
      "ImageOrientationPatient": [0.99977162595823, -0.02051799781, 0.00597559157831, 0.02076770395522, 0.86687723971862, -0.4980889014325],
      "ImagePositionPatient": [-853.1619084087, -740.63018644816, 363.55694903063],
      "ImageType": [
        "ORIGINAL",
        "PRIMARY",
        "M",
        "MB",
        "ND",
        "MOSAIC"
],
      "ImagedNucleus": "1H",
      "ImagingFrequency": 123.259459,
      "InPlanePhaseEncodingDirection": "COL",
      "MRAcquisitionType": "2D",
      "MagneticFieldStrength": 3.0,
      "Manufacturer": "SIEMENS",
      "ManufacturerModelName": "Prisma_fit",
      "Modality": "MR",
      "NumberOfAverages": 1.0,
      "NumberOfPhaseEncodingSteps": 104,
      "PercentPhaseFieldOfView": 100.0,
      "PercentSampling": 100.0,
      "PerformedProcedureStepStartTime": "152122.825000",
      "PhotometricInterpretation": "MONOCHROME2",
      "PixelBandwidth": 2290.0,
      "PixelRepresentation": 0,
      "PixelSpacing": [2.0, 2.0],
      "ProtocolName": "func_task-motor_run-2",
      "RepetitionTime": 1490.0,
      "Rows": 832,
      "SAR": 0.03746955091546,
      "SamplesPerPixel": 1,
      "ScanOptions": "FS",
      "ScanningSequence": "EP",
      "SequenceName": "epfid2d1_104",
      "SequenceVariant": [
        "SK",
        "SS"
],
      "SeriesDescription": "func_task-motor_run-2",
      "SeriesNumber": 33,
      "SeriesTime": "162224.004000",
      "SliceLocation": -57.964819661305,
      "SliceThickness": 2.0,
      "SmallestImagePixelValue": 0,
      "SoftwareVersions": "syngo MR E11",
      "SpacingBetweenSlices": 2.0000000258558,
      "SpecificCharacterSet": "ISO_IR 100",
      "StudyID": "1",
      "StudyTime": "152122.747000",
      "TransmitCoilName": "Body",
      "VariableFlipAngleFlag": "N",
      "WindowCenterWidthExplanation": "Algo1",
      "dBdt": 0.0},
    "slices": {}
  },
  "time": {
    "samples": {
      "AcquisitionNumber": [1, 2, 3, 4, 5, 6, 7, 8, 9, 10, 11, 12, 13, 14, 15, 16, 17, 18, 19, 20, 21, 22, 23, 24, 25, 26, 27, 28, 29, 30, 31, 32, 33, 34, 35, 36, 37, 38, 39, 40, 41, 42, 43, 44, 45, 46, 47, 48, 49, 50, 51, 52, 53, 54, 55, 56, 57, 58, 59, 60, 61, 62, 63, 64, 65, 66, 67, 68, 69, 70, 71, 72, 73, 74, 75, 76, 77, 78, 79, 80, 81, 82, 83, 84, 85, 86, 87, 88, 89, 90, 91, 92, 93, 94, 95, 96, 97, 98, 99, 100, 101, 102, 103, 104, 105, 106, 107, 108, 109, 110, 111, 112, 113, 114, 115, 116, 117, 118, 119, 120, 121, 122, 123, 124, 125, 126, 127, 128, 129, 130, 131, 132, 133, 134, 135, 136, 137, 138, 139, 140, 141, 142, 143, 144],
      "AcquisitionTime": ["162057.542500", "162059.032500", "162100.522500", "162102.012500", "162103.502500", "162104.992500", "162106.482500", "162107.972500", "162109.462500", "162110.952500", "162112.442500", "162113.932500", "162115.422500", "162116.912500", "162118.402500", "162119.892500", "162121.382500", "162122.872500", "162124.362500", "162125.852500", "162127.342500", "162128.832500", "162130.322500", "162131.812500", "162133.302500", "162134.792500", "162136.282500", "162137.772500", "162139.262500", "162140.752500", "162142.242500", "162143.732500", "162145.222500", "162146.712500", "162148.202500", "162149.692500", "162151.182500", "162152.672500", "162154.162500", "162155.652500", "162157.142500", "162158.632500", "162200.122500", "162201.612500", "162203.102500", "162204.592500", "162206.082500", "162207.572500", "162209.062500", "162210.552500", "162212.042500", "162213.532500", "162215.022500", "162216.512500", "162218.002500", "162219.492500", "162220.982500", "162222.472500", "162223.962500", "162225.452500", "162226.942500", "162228.432500", "162229.922500", "162231.412500", "162232.902500", "162234.392500", "162235.882500", "162237.372500", "162238.862500", "162240.352500", "162241.842500", "162243.332500", "162244.822500", "162246.312500", "162247.802500", "162249.292500", "162250.782500", "162252.272500", "162253.762500", "162255.252500", "162256.742500", "162258.232500", "162259.722500", "162301.212500", "162302.702500", "162304.192500", "162305.682500", "162307.172500", "162308.662500", "162310.152500", "162311.642500", "162313.132500", "162314.622500", "162316.112500", "162317.602500", "162319.092500", "162320.582500", "162322.072500", "162323.562500", "162325.052500", "162326.542500", "162328.032500", "162329.522500", "162331.012500", "162332.502500", "162333.992500", "162335.482500", "162336.972500", "162338.462500", "162339.952500", "162341.442500", "162342.932500", "162344.422500", "162345.912500", "162347.402500", "162348.892500", "162350.382500", "162351.872500", "162353.362500", "162354.852500", "162356.342500", "162357.832500", "162359.322500", "162400.812500", "162402.302500", "162403.792500", "162405.282500", "162406.772500", "162408.262500", "162409.752500", "162411.242500", "162412.732500", "162414.222500", "162415.712500", "162417.202500", "162418.692500", "162420.182500", "162421.672500", "162423.162500", "162424.652500", "162426.142500", "162427.632500", "162429.122500", "162430.612500"],
      "ContentTime": ["162224.006000", "162224.010000", "162224.013000", "162224.016000", "162224.018000", "162224.021000", "162224.024000", "162224.027000", "162224.030000", "162224.033000", "162224.041000", "162224.043000", "162224.047000", "162224.050000", "162224.053000", "162224.056000", "162224.058000", "162224.061000", "162224.064000", "162224.067000", "162224.070000", "162224.073000", "162224.076000", "162224.078000", "162224.081000", "162224.084000", "162224.087000", "162224.090000", "162224.093000", "162224.096000", "162224.099000", "162224.102000", "162224.105000", "162224.107000", "162243.976000", "162243.979000", "162243.982000", "162243.985000", "162243.988000", "162243.990000", "162243.993000", "162243.996000", "162244.000000", "162244.003000", "162244.006000", "162244.008000", "162244.011000", "162244.014000", "162244.017000", "162244.020000", "162244.023000", "162244.026000", "162244.029000", "162244.031000", "162244.034000", "162303.976000", "162303.981000", "162303.984000", "162303.987000", "162303.990000", "162303.993000", "162303.996000", "162304.000000", "162304.002000", "162304.006000", "162304.008000", "162304.011000", "162304.014000", "162304.017000", "162304.020000", "162304.023000", "162304.026000", "162304.029000", "162304.031000", "162304.034000", "162323.976000", "162323.979000", "162323.982000", "162323.985000", "162323.987000", "162323.990000", "162323.993000", "162323.996000", "162324.000000", "162324.003000", "162324.006000", "162324.009000", "162324.011000", "162324.014000", "162324.017000", "162324.020000", "162324.023000", "162324.026000", "162324.028000", "162324.031000", "162403.976000", "162403.979000", "162403.982000", "162403.985000", "162403.987000", "162403.991000", "162403.994000", "162403.997000", "162404.001000", "162404.004000", "162404.008000", "162404.011000", "162404.014000", "162404.017000", "162404.020000", "162404.023000", "162404.025000", "162404.028000", "162404.031000", "162404.034000", "162404.037000", "162404.040000", "162404.043000", "162404.046000", "162404.048000", "162404.051000", "162404.054000", "162404.057000", "162404.060000", "162432.356000", "162432.359000", "162432.362000", "162432.365000", "162432.367000", "162432.381000", "162432.384000", "162432.386000", "162432.389000", "162432.392000", "162432.395000", "162432.398000", "162432.401000", "162432.404000", "162432.407000", "162432.410000", "162432.413000", "162432.415000", "162432.418000", "162432.421000"],
      "InstanceCreationTime": ["162224.006000", "162224.010000", "162224.013000", "162224.016000", "162224.018000", "162224.021000", "162224.024000", "162224.027000", "162224.030000", "162224.033000", "162224.041000", "162224.043000", "162224.047000", "162224.050000", "162224.053000", "162224.056000", "162224.058000", "162224.061000", "162224.064000", "162224.067000", "162224.070000", "162224.073000", "162224.076000", "162224.078000", "162224.081000", "162224.084000", "162224.087000", "162224.090000", "162224.093000", "162224.096000", "162224.099000", "162224.102000", "162224.105000", "162224.107000", "162243.976000", "162243.979000", "162243.982000", "162243.985000", "162243.988000", "162243.990000", "162243.993000", "162243.996000", "162244.000000", "162244.003000", "162244.006000", "162244.008000", "162244.011000", "162244.014000", "162244.017000", "162244.020000", "162244.023000", "162244.026000", "162244.029000", "162244.031000", "162244.034000", "162303.976000", "162303.981000", "162303.984000", "162303.987000", "162303.990000", "162303.993000", "162303.996000", "162304.000000", "162304.002000", "162304.006000", "162304.008000", "162304.011000", "162304.014000", "162304.017000", "162304.020000", "162304.023000", "162304.026000", "162304.029000", "162304.031000", "162304.034000", "162323.976000", "162323.979000", "162323.982000", "162323.985000", "162323.987000", "162323.990000", "162323.993000", "162323.996000", "162324.000000", "162324.003000", "162324.006000", "162324.009000", "162324.011000", "162324.014000", "162324.017000", "162324.020000", "162324.023000", "162324.026000", "162324.028000", "162324.031000", "162403.976000", "162403.979000", "162403.982000", "162403.985000", "162403.987000", "162403.991000", "162403.994000", "162403.997000", "162404.001000", "162404.004000", "162404.008000", "162404.011000", "162404.014000", "162404.017000", "162404.020000", "162404.023000", "162404.025000", "162404.028000", "162404.031000", "162404.034000", "162404.037000", "162404.040000", "162404.043000", "162404.046000", "162404.048000", "162404.051000", "162404.054000", "162404.057000", "162404.060000", "162432.356000", "162432.359000", "162432.362000", "162432.365000", "162432.367000", "162432.381000", "162432.384000", "162432.386000", "162432.389000", "162432.392000", "162432.395000", "162432.398000", "162432.401000", "162432.404000", "162432.407000", "162432.410000", "162432.413000", "162432.415000", "162432.418000", "162432.421000"],
      "InstanceNumber": [1, 2, 3, 4, 5, 6, 7, 8, 9, 10, 11, 12, 13, 14, 15, 16, 17, 18, 19, 20, 21, 22, 23, 24, 25, 26, 27, 28, 29, 30, 31, 32, 33, 34, 35, 36, 37, 38, 39, 40, 41, 42, 43, 44, 45, 46, 47, 48, 49, 50, 51, 52, 53, 54, 55, 56, 57, 58, 59, 60, 61, 62, 63, 64, 65, 66, 67, 68, 69, 70, 71, 72, 73, 74, 75, 76, 77, 78, 79, 80, 81, 82, 83, 84, 85, 86, 87, 88, 89, 90, 91, 92, 93, 94, 95, 96, 97, 98, 99, 100, 101, 102, 103, 104, 105, 106, 107, 108, 109, 110, 111, 112, 113, 114, 115, 116, 117, 118, 119, 120, 121, 122, 123, 124, 125, 126, 127, 128, 129, 130, 131, 132, 133, 134, 135, 136, 137, 138, 139, 140, 141, 142, 143, 144],
      "LargestImagePixelValue": [46705, 45902, 45471, 44598, 46722, 46285, 45455, 44200, 43700, 42963, 42435, 42727, 45238, 45767, 46585, 45174, 44507, 43584, 43747, 43667, 44755, 44888, 44801, 44497, 44418, 44633, 44047, 45793, 44040, 43789, 43947, 44085, 43964, 44187, 44104, 44313, 43757, 44012, 44476, 44747, 44449, 43915, 45124, 44638, 44179, 44148, 44724, 43681, 44343, 44944, 44460, 45163, 44631, 45166, 44858, 45811, 44779, 44230, 43706, 43457, 43880, 43490, 43731, 43859, 44128, 43802, 43696, 43587, 44290, 43437, 42969, 45429, 44151, 43250, 43860, 43243, 42826, 42657, 43090, 43438, 43418, 43354, 43041, 43584, 43057, 42848, 42838, 42742, 42961, 43400, 43486, 43494, 43206, 43317, 43227, 43274, 43664, 43349, 44265, 44434, 44524, 44000, 43855, 44178, 44025, 44141, 44926, 44223, 44673, 44317, 44386, 44017, 43662, 43528, 43556, 43826, 43990, 44356, 44040, 44129, 44087, 44085, 44517, 43974, 44167, 44256, 44978, 44643, 44537, 44163, 43230, 42931, 43067, 42844, 43097, 43163, 43464, 44112, 43503, 43881, 43410, 42764, 42557, 42223],
      "WindowCenter": [11104.0, 11024.0, 10990.0, 10981.0, 11017.0, 11010.0, 10985.0, 10964.0, 10997.0, 11016.0, 11025.0, 11020.0, 11031.0, 11018.0, 10999.0, 10978.0, 11016.0, 11039.0, 11058.0, 11033.0, 11027.0, 11021.0, 11028.0, 11027.0, 11034.0, 11040.0, 11062.0, 11086.0, 11037.0, 11024.0, 11048.0, 11085.0, 11083.0, 11072.0, 11049.0, 11039.0, 11033.0, 11035.0, 11055.0, 11074.0, 11070.0, 11051.0, 11053.0, 11027.0, 11037.0, 11065.0, 11095.0, 11098.0, 11113.0, 11113.0, 11102.0, 11092.0, 11075.0, 11077.0, 11069.0, 11068.0, 11026.0, 11030.0, 11002.0, 11003.0, 11003.0, 11011.0, 10999.0, 11008.0, 11007.0, 11002.0, 11005.0, 11005.0, 11015.0, 11012.0, 10991.0, 11000.0, 10986.0, 10961.0, 10976.0, 10984.0, 10992.0, 10997.0, 11005.0, 11009.0, 11012.0, 11013.0, 11008.0, 11008.0, 10994.0, 10990.0, 10985.0, 10977.0, 10995.0, 11011.0, 11011.0, 11004.0, 10989.0, 10976.0, 10974.0, 10980.0, 11010.0, 11001.0, 11040.0, 11068.0, 11047.0, 11034.0, 11021.0, 11017.0, 11013.0, 11012.0, 11021.0, 11013.0, 11006.0, 11011.0, 10997.0, 10968.0, 10953.0, 10968.0, 10992.0, 11011.0, 11024.0, 11036.0, 11021.0, 11031.0, 11030.0, 11037.0, 11056.0, 11079.0, 11098.0, 11098.0, 11101.0, 11099.0, 11087.0, 11059.0, 11048.0, 11015.0, 11005.0, 11028.0, 11062.0, 11076.0, 11079.0, 11057.0, 11018.0, 11021.0, 11009.0, 11012.0, 10998.0, 10982.0],
      "WindowWidth": [23903.0, 23676.0, 23580.0, 23557.0, 23624.0, 23606.0, 23546.0, 23502.0, 23586.0, 23628.0, 23655.0, 23640.0, 23651.0, 23618.0, 23573.0, 23529.0, 23623.0, 23682.0, 23731.0, 23669.0, 23644.0, 23634.0, 23656.0, 23661.0, 23674.0, 23687.0, 23750.0, 23791.0, 23683.0, 23646.0, 23701.0, 23787.0, 23796.0, 23770.0, 23702.0, 23679.0, 23672.0, 23671.0, 23720.0, 23759.0, 23752.0, 23713.0, 23718.0, 23661.0, 23687.0, 23748.0, 23817.0, 23834.0, 23869.0, 23871.0, 23845.0, 23815.0, 23781.0, 23785.0, 23763.0, 23754.0, 23659.0, 23670.0, 23601.0, 23603.0, 23603.0, 23628.0, 23593.0, 23612.0, 23616.0, 23606.0, 23604.0, 23609.0, 23631.0, 23624.0, 23578.0, 23590.0, 23565.0, 23511.0, 23541.0, 23567.0, 23583.0, 23597.0, 23612.0, 23620.0, 23628.0, 23629.0, 23628.0, 23618.0, 23588.0, 23589.0, 23569.0, 23547.0, 23592.0, 23621.0, 23620.0, 23614.0, 23571.0, 23545.0, 23538.0, 23553.0, 23622.0, 23602.0, 23691.0, 23762.0, 23710.0, 23679.0, 23659.0, 23641.0, 23633.0, 23625.0, 23647.0, 23636.0, 23610.0, 23622.0, 23593.0, 23526.0, 23498.0, 23528.0, 23591.0, 23631.0, 23659.0, 23682.0, 23648.0, 23679.0, 23677.0, 23689.0, 23731.0, 23792.0, 23836.0, 23836.0, 23835.0, 23829.0, 23807.0, 23740.0, 23720.0, 23642.0, 23622.0, 23672.0, 23751.0, 23784.0, 23791.0, 23736.0, 23635.0, 23643.0, 23613.0, 23626.0, 23599.0, 23571.0]
    },
    "slices": {}
  }
}