{
  "AcquisitionMatrixPE": 104,
  "AcquisitionNumber": 1,
  "AcquisitionTime": "16:00:20.697500",
  "BandwidthPerPixelPhaseEncode": 17.17,
  "BaseResolution": 104,
  "BodyPartExamined": "BRAIN",
  "CoilString": "HC1-7;NC1_2",
  "ConsistencyInfo": "N4_VE11C_LATEST_20160120",
  "ConversionSoftware": "dcm2niix",
  "ConversionSoftwareVersion": "v1.0.20190720  (JP2:OpenJPEG) GCC7.3.0",
  "DerivedVendorReportedEchoSpacing": 0.000560011,
  "DeviceSerialNumber": "167006",
  "DwellTime": 2.1e-06,
  "EchoTime": 0.037,
  "EchoTrainLength": 104,
  "EffectiveEchoSpacing": 0.000560011,
  "FlipAngle": 52,
  "ImageComments": "Unaliased_MB4_PE3_LB",
  "ImageOrientationPatientDICOM": [0.999772, -0.020518, 0.00597559, 0.0207677, 0.866877, -0.498089],
  "ImageType": [
    "ORIGINAL",
    "PRIMARY",
    "M",
    "MB",
    "ND",
    "MOSAIC"
],
  "ImagingFrequency": 123.259,
  "InPlanePhaseEncodingDirectionDICOM": "COL",
  "InstitutionAddress": "Chemin_Queen-Mary_4565_Montreal_District_CA_H3W_1W5",
  "InstitutionName": "IUGM",
  "InstitutionalDepartmentName": "Department",
  "MRAcquisitionType": "2D",
  "MagneticFieldStrength": 3,
  "Manufacturer": "Siemens",
  "ManufacturersModelName": "Prisma_fit",
  "Modality": "MR",
  "MultibandAccelerationFactor": 4,
  "PartialFourier": 1,
  "PatientPosition": "HFS",
  "PercentPhaseFOV": 100,
  "PhaseEncodingDirection": "j",
  "PhaseEncodingSteps": 104,
  "PhaseResolution": 1,
  "PixelBandwidth": 2290,
  "ProcedureStepDescription": "hcptrt_generic",
  "ProtocolName": "func_task-language_run-2",
  "PulseSequenceDetails": "%CustomerSeq%_cmrr_mbep2d_bold",
  "ReceiveCoilActiveElements": "HC1-7;NC1,2",
  "ReceiveCoilName": "HeadNeck_64",
  "ReconMatrixPE": 104,
  "RepetitionTime": 1.49,
  "SAR": 0.0375156,
  "ScanOptions": "FS",
  "ScanningSequence": "EP",
  "SequenceName": "epfid2d1_104",
  "SequenceVariant": "SK_SS",
  "SeriesDescription": "func_task-language_run-2",
  "SeriesNumber": 23,
  "ShimSetting": [617, -7193, -8882, 391, -5, -158, -6, -29],
  "SliceThickness": 2,
  "SliceTiming": [0, 0.7825, 0.0975, 0.88, 0.195, 0.98, 0.2925, 1.0775, 0.39, 1.175, 0.49, 1.2725, 0.5875, 1.37, 0.685, 0, 0.7825, 0.0975, 0.88, 0.195, 0.98, 0.2925, 1.0775, 0.39, 1.175, 0.49, 1.2725, 0.5875, 1.37, 0.685, 0, 0.7825, 0.0975, 0.88, 0.195, 0.98, 0.2925, 1.0775, 0.39, 1.175, 0.49, 1.2725, 0.5875, 1.37, 0.685, 0, 0.7825, 0.0975, 0.88, 0.195, 0.98, 0.2925, 1.0775, 0.39, 1.175, 0.49, 1.2725, 0.5875, 1.37, 0.685],
  "SoftwareVersions": "syngo_MR_E11",
  "SpacingBetweenSlices": 2,
  "StationName": "MRC35049",
  "TaskName": "language",
  "TotalReadoutTime": 0.0576811,
  "TxRefAmp": 250.681,
  "WipMemBlock": "a43092bf-7ba8-40e1-bced-f1f415e26a8c||Sequence: R016 ve11c/master r/e634e98; Dec 19 2017 11:00:25 by eja",
  "dcmmeta_affine": [
    [-1.999543309211731, 0.041535407304763794, -0.010079365223646164, 105.9311294555664],
    [0.04103599488735199, 1.7337545156478882, -0.9961985349655151, -54.09605407714844],
    [0.011951182968914509, 0.9961777925491333, 1.734210729598999, -97.30785369873047],
    [0.0, 0.0, 0.0, 1.0]
],
  "dcmmeta_reorient_transform": [
    [0.0, -1.0, 0.0, 103.0],
    [1.0, 0.0, 0.0, 0.0],
    [0.0, 0.0, 1.0, 0.0],
    [0.0, 0.0, 0.0, 1.0]
],
  "dcmmeta_shape": [104, 104, 60, 159],
  "dcmmeta_slice_dim": 2,
  "dcmmeta_version": 0.6,
  "global": {
    "const": {
      "AcquisitionMatrix": [104, 0, 0, 104],
      "AngioFlag": "N",
      "BitsAllocated": 16,
      "BitsStored": 16,
      "BodyPartExamined": "BRAIN",
      "Columns": 832,
      "EchoNumbers": 1,
      "EchoTime": 37.0,
      "EchoTrainLength": 104,
      "FlipAngle": 52.0,
      "HighBit": 15,
      "ImageOrientationPatient": [0.99977162595823, -0.02051799781, 0.00597559157831, 0.02076770395522, 0.86687723971862, -0.4980889014325],
      "ImagePositionPatient": [-853.1619084087, -740.63018644816, 363.55694903063],
      "ImageType": [
        "ORIGINAL",
        "PRIMARY",
        "M",
        "MB",
        "ND",
        "MOSAIC"
],
      "ImagedNucleus": "1H",
      "ImagingFrequency": 123.259457,
      "InPlanePhaseEncodingDirection": "COL",
      "MRAcquisitionType": "2D",
      "MagneticFieldStrength": 3.0,
      "Manufacturer": "SIEMENS",
      "ManufacturerModelName": "Prisma_fit",
      "Modality": "MR",
      "NumberOfAverages": 1.0,
      "NumberOfPhaseEncodingSteps": 104,
      "PercentPhaseFieldOfView": 100.0,
      "PercentSampling": 100.0,
      "PerformedProcedureStepStartTime": "152122.825000",
      "PhotometricInterpretation": "MONOCHROME2",
      "PixelBandwidth": 2290.0,
      "PixelRepresentation": 0,
      "PixelSpacing": [2.0, 2.0],
      "ProtocolName": "func_task-language_run-2",
      "RepetitionTime": 1490.0,
      "Rows": 832,
      "SAR": 0.03751559624753,
      "SamplesPerPixel": 1,
      "ScanOptions": "FS",
      "ScanningSequence": "EP",
      "SequenceName": "epfid2d1_104",
      "SequenceVariant": [
        "SK",
        "SS"
],
      "SeriesDescription": "func_task-language_run-2",
      "SeriesNumber": 23,
      "SeriesTime": "160142.455000",
      "SliceLocation": -57.964819661305,
      "SliceThickness": 2.0,
      "SmallestImagePixelValue": 0,
      "SoftwareVersions": "syngo MR E11",
      "SpacingBetweenSlices": 2.0000000258558,
      "SpecificCharacterSet": "ISO_IR 100",
      "StudyID": "1",
      "StudyTime": "152122.747000",
      "TransmitCoilName": "Body",
      "VariableFlipAngleFlag": "N",
      "WindowCenterWidthExplanation": "Algo1",
      "dBdt": 0.0},
    "slices": {}
  },
  "time": {
    "samples": {
      "AcquisitionNumber": [1, 2, 3, 4, 5, 6, 7, 8, 9, 10, 11, 12, 13, 14, 15, 16, 17, 18, 19, 20, 21, 22, 23, 24, 25, 26, 27, 28, 29, 30, 31, 32, 33, 34, 35, 36, 37, 38, 39, 40, 41, 42, 43, 44, 45, 46, 47, 48, 49, 50, 51, 52, 53, 54, 55, 56, 57, 58, 59, 60, 61, 62, 63, 64, 65, 66, 67, 68, 69, 70, 71, 72, 73, 74, 75, 76, 77, 78, 79, 80, 81, 82, 83, 84, 85, 86, 87, 88, 89, 90, 91, 92, 93, 94, 95, 96, 97, 98, 99, 100, 101, 102, 103, 104, 105, 106, 107, 108, 109, 110, 111, 112, 113, 114, 115, 116, 117, 118, 119, 120, 121, 122, 123, 124, 125, 126, 127, 128, 129, 130, 131, 132, 133, 134, 135, 136, 137, 138, 139, 140, 141, 142, 143, 144, 145, 146, 147, 148, 149, 150, 151, 152, 153, 154, 155, 156, 157, 158, 159],
      "AcquisitionTime": ["160020.697500", "160022.187500", "160023.677500", "160025.167500", "160026.657500", "160028.147500", "160029.637500", "160031.127500", "160032.617500", "160034.107500", "160035.597500", "160037.087500", "160038.577500", "160040.067500", "160041.557500", "160043.047500", "160044.537500", "160046.027500", "160047.517500", "160049.007500", "160050.497500", "160051.987500", "160053.477500", "160054.967500", "160056.457500", "160057.947500", "160059.437500", "160100.927500", "160102.417500", "160103.907500", "160105.397500", "160106.887500", "160108.377500", "160109.867500", "160111.357500", "160112.847500", "160114.337500", "160115.827500", "160117.317500", "160118.807500", "160120.297500", "160121.787500", "160123.277500", "160124.767500", "160126.257500", "160127.747500", "160129.237500", "160130.727500", "160132.217500", "160133.707500", "160135.197500", "160136.687500", "160138.177500", "160139.667500", "160141.157500", "160142.647500", "160144.137500", "160145.627500", "160147.117500", "160148.607500", "160150.097500", "160151.587500", "160153.077500", "160154.567500", "160156.057500", "160157.547500", "160159.037500", "160200.527500", "160202.017500", "160203.507500", "160204.997500", "160206.487500", "160207.977500", "160209.467500", "160210.957500", "160212.447500", "160213.937500", "160215.427500", "160216.917500", "160218.407500", "160219.897500", "160221.387500", "160222.877500", "160224.367500", "160225.857500", "160227.347500", "160228.837500", "160230.327500", "160231.817500", "160233.307500", "160234.797500", "160236.287500", "160237.777500", "160239.267500", "160240.757500", "160242.247500", "160243.737500", "160245.227500", "160246.717500", "160248.207500", "160249.697500", "160251.187500", "160252.677500", "160254.167500", "160255.657500", "160257.147500", "160258.637500", "160300.127500", "160301.617500", "160303.107500", "160304.597500", "160306.087500", "160307.577500", "160309.067500", "160310.557500", "160312.047500", "160313.537500", "160315.027500", "160316.517500", "160318.007500", "160319.497500", "160320.987500", "160322.477500", "160323.967500", "160325.457500", "160326.947500", "160328.437500", "160329.927500", "160331.417500", "160332.907500", "160334.397500", "160335.887500", "160337.377500", "160338.867500", "160340.357500", "160341.847500", "160343.337500", "160344.827500", "160346.317500", "160347.807500", "160349.297500", "160350.787500", "160352.277500", "160353.767500", "160355.257500", "160356.747500", "160358.237500", "160359.727500", "160401.217500", "160402.707500", "160404.197500", "160405.687500", "160407.177500", "160408.667500", "160410.157500", "160411.647500", "160413.137500", "160414.627500", "160416.117500"],
      "ContentTime": ["160142.458000", "160142.462000", "160142.465000", "160142.497000", "160142.500000", "160142.503000", "160142.505000", "160142.508000", "160142.511000", "160142.514000", "160142.517000", "160142.538000", "160142.541000", "160142.543000", "160142.546000", "160142.549000", "160142.552000", "160142.555000", "160142.558000", "160142.561000", "160142.564000", "160142.566000", "160142.570000", "160142.572000", "160142.575000", "160142.578000", "160202.421000", "160202.424000", "160202.427000", "160202.430000", "160202.433000", "160202.436000", "160202.439000", "160202.442000", "160202.445000", "160202.448000", "160202.450000", "160202.453000", "160202.456000", "160202.459000", "160202.462000", "160202.465000", "160202.485000", "160202.488000", "160202.491000", "160202.493000", "160202.496000", "160222.421000", "160222.424000", "160222.427000", "160222.430000", "160222.433000", "160222.435000", "160222.438000", "160222.441000", "160222.444000", "160222.458000", "160222.461000", "160222.464000", "160222.467000", "160222.469000", "160222.472000", "160222.475000", "160222.478000", "160222.481000", "160222.484000", "160222.487000", "160242.421000", "160242.424000", "160242.427000", "160242.430000", "160242.440000", "160242.443000", "160242.446000", "160242.449000", "160242.452000", "160242.455000", "160242.458000", "160242.460000", "160242.463000", "160242.466000", "160242.469000", "160242.472000", "160242.475000", "160242.478000", "160242.480000", "160242.483000", "160302.421000", "160302.424000", "160302.427000", "160302.430000", "160302.433000", "160302.436000", "160302.438000", "160302.441000", "160302.444000", "160302.447000", "160302.450000", "160302.453000", "160302.456000", "160302.459000", "160302.461000", "160302.464000", "160302.467000", "160302.470000", "160302.473000", "160302.476000", "160302.479000", "160342.422000", "160342.425000", "160342.428000", "160342.431000", "160342.434000", "160342.437000", "160342.440000", "160342.443000", "160342.446000", "160342.449000", "160342.451000", "160342.454000", "160342.457000", "160342.460000", "160342.463000", "160342.466000", "160342.469000", "160342.472000", "160342.474000", "160342.477000", "160342.480000", "160342.483000", "160342.486000", "160342.489000", "160342.492000", "160342.495000", "160418.331000", "160418.334000", "160418.337000", "160418.340000", "160418.343000", "160418.346000", "160418.349000", "160418.352000", "160418.355000", "160418.358000", "160418.361000", "160418.364000", "160418.366000", "160418.369000", "160418.372000", "160418.375000", "160418.378000", "160418.381000", "160418.384000", "160418.387000", "160418.391000", "160418.394000", "160418.397000", "160418.399000", "160418.402000"],
      "InstanceCreationTime": ["160142.458000", "160142.462000", "160142.465000", "160142.497000", "160142.500000", "160142.503000", "160142.505000", "160142.508000", "160142.511000", "160142.514000", "160142.517000", "160142.538000", "160142.541000", "160142.543000", "160142.546000", "160142.549000", "160142.552000", "160142.555000", "160142.558000", "160142.561000", "160142.564000", "160142.566000", "160142.570000", "160142.572000", "160142.575000", "160142.578000", "160202.421000", "160202.424000", "160202.427000", "160202.430000", "160202.433000", "160202.436000", "160202.439000", "160202.442000", "160202.445000", "160202.448000", "160202.450000", "160202.453000", "160202.456000", "160202.459000", "160202.462000", "160202.465000", "160202.485000", "160202.488000", "160202.491000", "160202.493000", "160202.496000", "160222.421000", "160222.424000", "160222.427000", "160222.430000", "160222.433000", "160222.435000", "160222.438000", "160222.441000", "160222.444000", "160222.458000", "160222.461000", "160222.464000", "160222.467000", "160222.469000", "160222.472000", "160222.475000", "160222.478000", "160222.481000", "160222.484000", "160222.487000", "160242.421000", "160242.424000", "160242.427000", "160242.430000", "160242.440000", "160242.443000", "160242.446000", "160242.449000", "160242.452000", "160242.455000", "160242.458000", "160242.460000", "160242.463000", "160242.466000", "160242.469000", "160242.472000", "160242.475000", "160242.478000", "160242.480000", "160242.483000", "160302.421000", "160302.424000", "160302.427000", "160302.430000", "160302.433000", "160302.436000", "160302.438000", "160302.441000", "160302.444000", "160302.447000", "160302.450000", "160302.453000", "160302.456000", "160302.459000", "160302.461000", "160302.464000", "160302.467000", "160302.470000", "160302.473000", "160302.476000", "160302.479000", "160342.422000", "160342.425000", "160342.428000", "160342.431000", "160342.434000", "160342.437000", "160342.440000", "160342.443000", "160342.446000", "160342.449000", "160342.451000", "160342.454000", "160342.457000", "160342.460000", "160342.463000", "160342.466000", "160342.469000", "160342.472000", "160342.474000", "160342.477000", "160342.480000", "160342.483000", "160342.486000", "160342.489000", "160342.492000", "160342.495000", "160418.331000", "160418.334000", "160418.337000", "160418.340000", "160418.343000", "160418.346000", "160418.349000", "160418.352000", "160418.355000", "160418.358000", "160418.361000", "160418.364000", "160418.366000", "160418.369000", "160418.372000", "160418.375000", "160418.378000", "160418.381000", "160418.384000", "160418.387000", "160418.391000", "160418.394000", "160418.397000", "160418.399000", "160418.402000"],
      "InstanceNumber": [1, 2, 3, 4, 5, 6, 7, 8, 9, 10, 11, 12, 13, 14, 15, 16, 17, 18, 19, 20, 21, 22, 23, 24, 25, 26, 27, 28, 29, 30, 31, 32, 33, 34, 35, 36, 37, 38, 39, 40, 41, 42, 43, 44, 45, 46, 47, 48, 49, 50, 51, 52, 53, 54, 55, 56, 57, 58, 59, 60, 61, 62, 63, 64, 65, 66, 67, 68, 69, 70, 71, 72, 73, 74, 75, 76, 77, 78, 79, 80, 81, 82, 83, 84, 85, 86, 87, 88, 89, 90, 91, 92, 93, 94, 95, 96, 97, 98, 99, 100, 101, 102, 103, 104, 105, 106, 107, 108, 109, 110, 111, 112, 113, 114, 115, 116, 117, 118, 119, 120, 121, 122, 123, 124, 125, 126, 127, 128, 129, 130, 131, 132, 133, 134, 135, 136, 137, 138, 139, 140, 141, 142, 143, 144, 145, 146, 147, 148, 149, 150, 151, 152, 153, 154, 155, 156, 157, 158, 159],
      "LargestImagePixelValue": [46206, 44971, 43869, 44234, 44243, 43983, 44434, 43777, 43771, 43541, 44392, 43495, 44451, 43717, 44010, 43366, 44419, 43749, 44375, 43875, 44058, 43696, 44268, 43956, 44149, 44194, 43736, 44955, 44241, 44243, 44508, 44614, 44230, 44157, 43979, 43410, 44751, 44523, 44302, 44111, 44671, 45263, 44374, 44428, 43778, 43896, 43767, 44633, 44962, 44860, 44067, 43530, 44164, 44507, 43688, 44204, 44423, 44071, 43707, 44422, 44026, 44494, 43411, 44035, 43641, 44218, 43991, 44592, 44335, 44030, 44144, 43906, 44349, 44506, 44297, 43467, 44443, 43555, 44450, 44176, 44715, 44583, 44480, 44808, 44938, 45135, 44541, 45156, 44270, 44045, 44203, 44722, 44244, 44399, 44465, 44689, 44756, 44637, 44659, 45053, 45111, 44583, 44589, 44768, 45114, 44673, 44926, 44639, 44295, 44689, 45121, 45055, 44475, 44863, 44539, 44524, 44571, 45156, 44505, 44496, 44336, 44962, 44709, 44769, 44607, 44180, 44961, 45088, 45029, 44263, 44731, 44165, 44336, 44096, 44242, 44192, 44381, 44001, 44353, 44279, 44295, 44254, 44907, 44338, 44576, 44349, 44565, 44593, 44625, 44143, 44259, 45135, 45006, 45014, 44923, 44293, 44319, 44766, 44907],
      "WindowCenter": [11212.0, 11168.0, 11118.0, 11113.0, 11109.0, 11113.0, 11119.0, 11107.0, 11104.0, 11082.0, 11087.0, 11060.0, 11076.0, 11083.0, 11090.0, 11075.0, 11069.0, 11061.0, 11074.0, 11086.0, 11089.0, 11074.0, 11061.0, 11047.0, 11046.0, 11050.0, 11045.0, 11048.0, 11043.0, 11040.0, 11049.0, 11053.0, 11078.0, 11079.0, 11030.0, 10988.0, 11015.0, 11067.0, 11106.0, 11094.0, 11064.0, 11047.0, 11019.0, 11009.0, 11024.0, 11058.0, 11077.0, 11077.0, 11079.0, 11054.0, 11062.0, 11048.0, 11034.0, 11047.0, 11084.0, 11125.0, 11136.0, 11089.0, 11045.0, 11024.0, 11032.0, 11075.0, 11090.0, 11074.0, 11049.0, 11053.0, 11080.0, 11124.0, 11127.0, 11107.0, 11076.0, 11066.0, 11094.0, 11114.0, 11110.0, 11119.0, 11101.0, 11055.0, 11015.0, 10998.0, 11018.0, 11034.0, 11032.0, 11019.0, 11011.0, 11007.0, 10963.0, 11007.0, 11047.0, 11067.0, 11053.0, 11047.0, 11040.0, 11040.0, 11047.0, 11062.0, 11071.0, 11077.0, 11084.0, 11081.0, 11078.0, 11062.0, 11067.0, 11069.0, 11077.0, 11080.0, 11069.0, 11056.0, 11037.0, 11045.0, 11048.0, 11057.0, 11063.0, 11063.0, 11043.0, 11028.0, 11010.0, 11019.0, 11003.0, 11004.0, 11003.0, 11015.0, 11022.0, 11012.0, 11009.0, 11015.0, 11028.0, 11032.0, 11028.0, 11014.0, 11028.0, 11029.0, 11051.0, 11050.0, 11056.0, 11050.0, 11052.0, 11037.0, 11042.0, 11037.0, 11044.0, 11045.0, 11048.0, 11044.0, 11036.0, 11026.0, 11025.0, 11015.0, 11025.0, 11026.0, 11043.0, 11088.0, 11080.0, 11044.0, 11032.0, 11044.0, 11051.0, 11035.0, 10998.0],
      "WindowWidth": [24173.0, 24029.0, 23896.0, 23872.0, 23851.0, 23857.0, 23869.0, 23841.0, 23839.0, 23790.0, 23790.0, 23737.0, 23769.0, 23791.0, 23805.0, 23771.0, 23754.0, 23737.0, 23766.0, 23795.0, 23803.0, 23764.0, 23735.0, 23706.0, 23704.0, 23708.0, 23696.0, 23700.0, 23688.0, 23680.0, 23703.0, 23713.0, 23779.0, 23791.0, 23672.0, 23574.0, 23630.0, 23746.0, 23840.0, 23815.0, 23736.0, 23694.0, 23639.0, 23625.0, 23654.0, 23733.0, 23774.0, 23767.0, 23771.0, 23716.0, 23738.0, 23709.0, 23681.0, 23706.0, 23791.0, 23886.0, 23910.0, 23804.0, 23707.0, 23648.0, 23668.0, 23767.0, 23819.0, 23767.0, 23715.0, 23726.0, 23781.0, 23884.0, 23889.0, 23847.0, 23775.0, 23753.0, 23812.0, 23861.0, 23866.0, 23887.0, 23848.0, 23743.0, 23644.0, 23590.0, 23633.0, 23674.0, 23669.0, 23637.0, 23615.0, 23610.0, 23518.0, 23611.0, 23706.0, 23762.0, 23726.0, 23707.0, 23694.0, 23688.0, 23703.0, 23740.0, 23755.0, 23772.0, 23790.0, 23780.0, 23775.0, 23736.0, 23757.0, 23758.0, 23772.0, 23785.0, 23756.0, 23736.0, 23687.0, 23702.0, 23712.0, 23731.0, 23749.0, 23749.0, 23694.0, 23668.0, 23618.0, 23639.0, 23602.0, 23603.0, 23601.0, 23627.0, 23657.0, 23626.0, 23622.0, 23631.0, 23653.0, 23664.0, 23654.0, 23626.0, 23648.0, 23656.0, 23711.0, 23714.0, 23731.0, 23713.0, 23720.0, 23682.0, 23694.0, 23683.0, 23700.0, 23699.0, 23700.0, 23696.0, 23673.0, 23651.0, 23654.0, 23625.0, 23651.0, 23651.0, 23704.0, 23821.0, 23804.0, 23723.0, 23690.0, 23713.0, 23730.0, 23692.0, 23603.0]
    },
    "slices": {}
  }
}