{
  "AcquisitionMatrixPE": 104,
  "AcquisitionNumber": 1,
  "AcquisitionTime": "16:05:14.702500",
  "BandwidthPerPixelPhaseEncode": 17.17,
  "BaseResolution": 104,
  "BodyPartExamined": "BRAIN",
  "CoilString": "HC1-7;NC1_2",
  "ConsistencyInfo": "N4_VE11C_LATEST_20160120",
  "ConversionSoftware": "dcm2niix",
  "ConversionSoftwareVersion": "v1.0.20190720  (JP2:OpenJPEG) GCC7.3.0",
  "DerivedVendorReportedEchoSpacing": 0.000560011,
  "DeviceSerialNumber": "167006",
  "DwellTime": 2.1e-06,
  "EchoTime": 0.037,
  "EchoTrainLength": 104,
  "EffectiveEchoSpacing": 0.000560011,
  "FlipAngle": 52,
  "ImageComments": "Unaliased_MB4_PE3_LB",
  "ImageOrientationPatientDICOM": [0.999772, -0.020518, 0.00597559, 0.0207677, 0.866877, -0.498089],
  "ImageType": [
    "ORIGINAL",
    "PRIMARY",
    "M",
    "MB",
    "ND",
    "MOSAIC"
],
  "ImagingFrequency": 123.259,
  "InPlanePhaseEncodingDirectionDICOM": "COL",
  "InstitutionAddress": "Chemin_Queen-Mary_4565_Montreal_District_CA_H3W_1W5",
  "InstitutionName": "IUGM",
  "InstitutionalDepartmentName": "Department",
  "MRAcquisitionType": "2D",
  "MagneticFieldStrength": 3,
  "Manufacturer": "Siemens",
  "ManufacturersModelName": "Prisma_fit",
  "Modality": "MR",
  "MultibandAccelerationFactor": 4,
  "PartialFourier": 1,
  "PatientPosition": "HFS",
  "PercentPhaseFOV": 100,
  "PhaseEncodingDirection": "j",
  "PhaseEncodingSteps": 104,
  "PhaseResolution": 1,
  "PixelBandwidth": 2290,
  "ProcedureStepDescription": "hcptrt_generic",
  "ProtocolName": "func_task-gambling_run-2",
  "PulseSequenceDetails": "%CustomerSeq%_cmrr_mbep2d_bold",
  "ReceiveCoilActiveElements": "HC1-7;NC1,2",
  "ReceiveCoilName": "HeadNeck_64",
  "ReconMatrixPE": 104,
  "RepetitionTime": 1.49,
  "SAR": 0.0374133,
  "ScanOptions": "FS",
  "ScanningSequence": "EP",
  "SequenceName": "epfid2d1_104",
  "SequenceVariant": "SK_SS",
  "SeriesDescription": "func_task-gambling_run-2",
  "SeriesNumber": 25,
  "ShimSetting": [617, -7193, -8882, 391, -5, -158, -6, -29],
  "SliceThickness": 2,
  "SliceTiming": [0, 0.785, 0.0975, 0.8825, 0.195, 0.98, 0.295, 1.0775, 0.3925, 1.175, 0.49, 1.275, 0.5875, 1.3725, 0.685, 0, 0.785, 0.0975, 0.8825, 0.195, 0.98, 0.295, 1.0775, 0.3925, 1.175, 0.49, 1.275, 0.5875, 1.3725, 0.685, 0, 0.785, 0.0975, 0.8825, 0.195, 0.98, 0.295, 1.0775, 0.3925, 1.175, 0.49, 1.275, 0.5875, 1.3725, 0.685, 0, 0.785, 0.0975, 0.8825, 0.195, 0.98, 0.295, 1.0775, 0.3925, 1.175, 0.49, 1.275, 0.5875, 1.3725, 0.685],
  "SoftwareVersions": "syngo_MR_E11",
  "SpacingBetweenSlices": 2,
  "StationName": "MRC35049",
  "TaskName": "gambling",
  "TotalReadoutTime": 0.0576811,
  "TxRefAmp": 250.681,
  "WipMemBlock": "83facba0-ff2a-4f43-b1c6-60d3a70200ab||Sequence: R016 ve11c/master r/e634e98; Dec 19 2017 11:00:25 by eja",
  "dcmmeta_affine": [
    [-1.999543309211731, 0.041535407304763794, -0.010079365223646164, 105.9311294555664],
    [0.04103599488735199, 1.7337545156478882, -0.9961985349655151, -54.09605407714844],
    [0.011951182968914509, 0.9961777925491333, 1.734210729598999, -97.30785369873047],
    [0.0, 0.0, 0.0, 1.0]
],
  "dcmmeta_reorient_transform": [
    [0.0, -1.0, 0.0, 103.0],
    [1.0, 0.0, 0.0, 0.0],
    [0.0, 0.0, 1.0, 0.0],
    [0.0, 0.0, 0.0, 1.0]
],
  "dcmmeta_shape": [104, 104, 60, 129],
  "dcmmeta_slice_dim": 2,
  "dcmmeta_version": 0.6,
  "global": {
    "const": {
      "AcquisitionMatrix": [104, 0, 0, 104],
      "AngioFlag": "N",
      "BitsAllocated": 16,
      "BitsStored": 16,
      "BodyPartExamined": "BRAIN",
      "Columns": 832,
      "EchoNumbers": 1,
      "EchoTime": 37.0,
      "EchoTrainLength": 104,
      "FlipAngle": 52.0,
      "HighBit": 15,
      "ImageOrientationPatient": [0.99977162595823, -0.02051799781, 0.00597559157831, 0.02076770395522, 0.86687723971862, -0.4980889014325],
      "ImagePositionPatient": [-853.1619084087, -740.63018644816, 363.55694903063],
      "ImageType": [
        "ORIGINAL",
        "PRIMARY",
        "M",
        "MB",
        "ND",
        "MOSAIC"
],
      "ImagedNucleus": "1H",
      "ImagingFrequency": 123.259457,
      "InPlanePhaseEncodingDirection": "COL",
      "MRAcquisitionType": "2D",
      "MagneticFieldStrength": 3.0,
      "Manufacturer": "SIEMENS",
      "ManufacturerModelName": "Prisma_fit",
      "Modality": "MR",
      "NumberOfAverages": 1.0,
      "NumberOfPhaseEncodingSteps": 104,
      "PercentPhaseFieldOfView": 100.0,
      "PercentSampling": 100.0,
      "PerformedProcedureStepStartTime": "152122.825000",
      "PhotometricInterpretation": "MONOCHROME2",
      "PixelBandwidth": 2290.0,
      "PixelRepresentation": 0,
      "PixelSpacing": [2.0, 2.0],
      "ProtocolName": "func_task-gambling_run-2",
      "RepetitionTime": 1490.0,
      "Rows": 832,
      "SAR": 0.03741334081274,
      "SamplesPerPixel": 1,
      "ScanOptions": "FS",
      "ScanningSequence": "EP",
      "SequenceName": "epfid2d1_104",
      "SequenceVariant": [
        "SK",
        "SS"
],
      "SeriesDescription": "func_task-gambling_run-2",
      "SeriesNumber": 25,
      "SeriesTime": "160636.053000",
      "SliceLocation": -57.964819661305,
      "SliceThickness": 2.0,
      "SmallestImagePixelValue": 0,
      "SoftwareVersions": "syngo MR E11",
      "SpacingBetweenSlices": 2.0000000258558,
      "SpecificCharacterSet": "ISO_IR 100",
      "StudyID": "1",
      "StudyTime": "152122.747000",
      "TransmitCoilName": "Body",
      "VariableFlipAngleFlag": "N",
      "WindowCenterWidthExplanation": "Algo1",
      "dBdt": 0.0},
    "slices": {}
  },
  "time": {
    "samples": {
      "AcquisitionNumber": [1, 2, 3, 4, 5, 6, 7, 8, 9, 10, 11, 12, 13, 14, 15, 16, 17, 18, 19, 20, 21, 22, 23, 24, 25, 26, 27, 28, 29, 30, 31, 32, 33, 34, 35, 36, 37, 38, 39, 40, 41, 42, 43, 44, 45, 46, 47, 48, 49, 50, 51, 52, 53, 54, 55, 56, 57, 58, 59, 60, 61, 62, 63, 64, 65, 66, 67, 68, 69, 70, 71, 72, 73, 74, 75, 76, 77, 78, 79, 80, 81, 82, 83, 84, 85, 86, 87, 88, 89, 90, 91, 92, 93, 94, 95, 96, 97, 98, 99, 100, 101, 102, 103, 104, 105, 106, 107, 108, 109, 110, 111, 112, 113, 114, 115, 116, 117, 118, 119, 120, 121, 122, 123, 124, 125, 126, 127, 128, 129],
      "AcquisitionTime": ["160514.702500", "160516.192500", "160517.682500", "160519.172500", "160520.662500", "160522.152500", "160523.642500", "160525.132500", "160526.622500", "160528.112500", "160529.602500", "160531.092500", "160532.582500", "160534.072500", "160535.562500", "160537.052500", "160538.542500", "160540.032500", "160541.522500", "160543.012500", "160544.502500", "160545.992500", "160547.482500", "160548.972500", "160550.462500", "160551.952500", "160553.442500", "160554.932500", "160556.422500", "160557.912500", "160559.402500", "160600.892500", "160602.382500", "160603.872500", "160605.362500", "160606.852500", "160608.342500", "160609.832500", "160611.322500", "160612.812500", "160614.302500", "160615.792500", "160617.282500", "160618.772500", "160620.262500", "160621.752500", "160623.242500", "160624.732500", "160626.222500", "160627.712500", "160629.202500", "160630.692500", "160632.182500", "160633.672500", "160635.162500", "160636.652500", "160638.142500", "160639.632500", "160641.122500", "160642.612500", "160644.102500", "160645.592500", "160647.082500", "160648.572500", "160650.062500", "160651.552500", "160653.042500", "160654.532500", "160656.022500", "160657.512500", "160659.002500", "160700.492500", "160701.982500", "160703.472500", "160704.962500", "160706.452500", "160707.942500", "160709.432500", "160710.922500", "160712.412500", "160713.902500", "160715.392500", "160716.882500", "160718.372500", "160719.862500", "160721.352500", "160722.842500", "160724.332500", "160725.822500", "160727.312500", "160728.802500", "160730.292500", "160731.782500", "160733.272500", "160734.762500", "160736.252500", "160737.742500", "160739.232500", "160740.722500", "160742.212500", "160743.702500", "160745.192500", "160746.682500", "160748.172500", "160749.662500", "160751.152500", "160752.642500", "160754.132500", "160755.622500", "160757.112500", "160758.602500", "160800.092500", "160801.582500", "160803.072500", "160804.562500", "160806.052500", "160807.542500", "160809.032500", "160810.522500", "160812.012500", "160813.502500", "160814.992500", "160816.482500", "160817.972500", "160819.462500", "160820.952500", "160822.442500", "160823.932500", "160825.422500"],
      "ContentTime": ["160636.056000", "160636.059000", "160636.062000", "160636.065000", "160636.068000", "160636.071000", "160636.074000", "160636.077000", "160636.079000", "160636.082000", "160636.085000", "160636.088000", "160636.091000", "160636.102000", "160636.105000", "160636.108000", "160636.111000", "160636.113000", "160636.116000", "160636.119000", "160636.122000", "160636.125000", "160636.128000", "160636.130000", "160636.133000", "160636.136000", "160636.139000", "160656.011000", "160656.014000", "160656.017000", "160656.020000", "160656.022000", "160656.025000", "160656.028000", "160656.031000", "160656.034000", "160656.037000", "160656.040000", "160656.054000", "160656.057000", "160656.060000", "160656.065000", "160656.068000", "160656.071000", "160656.074000", "160656.076000", "160656.079000", "160656.082000", "160716.011000", "160716.014000", "160716.017000", "160716.020000", "160716.022000", "160716.025000", "160716.028000", "160716.031000", "160716.034000", "160716.037000", "160716.040000", "160716.042000", "160716.045000", "160716.048000", "160716.051000", "160716.054000", "160716.057000", "160716.059000", "160716.062000", "160716.065000", "160736.010000", "160736.013000", "160736.016000", "160736.019000", "160736.021000", "160736.024000", "160736.027000", "160736.030000", "160736.033000", "160736.036000", "160736.039000", "160736.042000", "160736.045000", "160736.047000", "160736.050000", "160736.053000", "160736.056000", "160736.059000", "160736.061000", "160736.064000", "160756.010000", "160756.013000", "160756.016000", "160756.019000", "160756.022000", "160756.024000", "160756.027000", "160756.030000", "160756.033000", "160756.036000", "160756.039000", "160756.042000", "160756.045000", "160756.047000", "160756.050000", "160756.053000", "160756.056000", "160756.059000", "160756.062000", "160756.065000", "160827.201000", "160827.205000", "160827.208000", "160827.211000", "160827.213000", "160827.216000", "160827.219000", "160827.222000", "160827.225000", "160827.228000", "160827.231000", "160827.234000", "160827.237000", "160827.240000", "160827.243000", "160827.246000", "160827.249000", "160827.252000", "160827.255000", "160827.258000", "160827.261000"],
      "InstanceCreationTime": ["160636.056000", "160636.059000", "160636.062000", "160636.065000", "160636.068000", "160636.071000", "160636.074000", "160636.077000", "160636.079000", "160636.082000", "160636.085000", "160636.088000", "160636.091000", "160636.102000", "160636.105000", "160636.108000", "160636.111000", "160636.113000", "160636.116000", "160636.119000", "160636.122000", "160636.125000", "160636.128000", "160636.130000", "160636.133000", "160636.136000", "160636.139000", "160656.011000", "160656.014000", "160656.017000", "160656.020000", "160656.022000", "160656.025000", "160656.028000", "160656.031000", "160656.034000", "160656.037000", "160656.040000", "160656.054000", "160656.057000", "160656.060000", "160656.065000", "160656.068000", "160656.071000", "160656.074000", "160656.076000", "160656.079000", "160656.082000", "160716.011000", "160716.014000", "160716.017000", "160716.020000", "160716.022000", "160716.025000", "160716.028000", "160716.031000", "160716.034000", "160716.037000", "160716.040000", "160716.042000", "160716.045000", "160716.048000", "160716.051000", "160716.054000", "160716.057000", "160716.059000", "160716.062000", "160716.065000", "160736.010000", "160736.013000", "160736.016000", "160736.019000", "160736.021000", "160736.024000", "160736.027000", "160736.030000", "160736.033000", "160736.036000", "160736.039000", "160736.042000", "160736.045000", "160736.047000", "160736.050000", "160736.053000", "160736.056000", "160736.059000", "160736.061000", "160736.064000", "160756.010000", "160756.013000", "160756.016000", "160756.019000", "160756.022000", "160756.024000", "160756.027000", "160756.030000", "160756.033000", "160756.036000", "160756.039000", "160756.042000", "160756.045000", "160756.047000", "160756.050000", "160756.053000", "160756.056000", "160756.059000", "160756.062000", "160756.065000", "160827.201000", "160827.205000", "160827.208000", "160827.211000", "160827.213000", "160827.216000", "160827.219000", "160827.222000", "160827.225000", "160827.228000", "160827.231000", "160827.234000", "160827.237000", "160827.240000", "160827.243000", "160827.246000", "160827.249000", "160827.252000", "160827.255000", "160827.258000", "160827.261000"],
      "InstanceNumber": [1, 2, 3, 4, 5, 6, 7, 8, 9, 10, 11, 12, 13, 14, 15, 16, 17, 18, 19, 20, 21, 22, 23, 24, 25, 26, 27, 28, 29, 30, 31, 32, 33, 34, 35, 36, 37, 38, 39, 40, 41, 42, 43, 44, 45, 46, 47, 48, 49, 50, 51, 52, 53, 54, 55, 56, 57, 58, 59, 60, 61, 62, 63, 64, 65, 66, 67, 68, 69, 70, 71, 72, 73, 74, 75, 76, 77, 78, 79, 80, 81, 82, 83, 84, 85, 86, 87, 88, 89, 90, 91, 92, 93, 94, 95, 96, 97, 98, 99, 100, 101, 102, 103, 104, 105, 106, 107, 108, 109, 110, 111, 112, 113, 114, 115, 116, 117, 118, 119, 120, 121, 122, 123, 124, 125, 126, 127, 128, 129],
      "LargestImagePixelValue": [48005, 45878, 44783, 44657, 45043, 44839, 44861, 44821, 44914, 44973, 44671, 44358, 44755, 44286, 44223, 44702, 44974, 44668, 44888, 43875, 44456, 44726, 44699, 44452, 44265, 44738, 44335, 44713, 44953, 45650, 43931, 43497, 44706, 44358, 44569, 44744, 45189, 45389, 45596, 45234, 44915, 44626, 44610, 44212, 44614, 44782, 44921, 44949, 44999, 44682, 44693, 44702, 44149, 43108, 44274, 44631, 45106, 44620, 44631, 43649, 44170, 44740, 44718, 44858, 45490, 45461, 45752, 45607, 45400, 45534, 44998, 45136, 43962, 44564, 45117, 45436, 46192, 45458, 46009, 45830, 45858, 45956, 45310, 45842, 45232, 45949, 45359, 45735, 45779, 46188, 45840, 45563, 45217, 44871, 45662, 45067, 44963, 44173, 45028, 44432, 45196, 42902, 45350, 44910, 44642, 44502, 42885, 44200, 43476, 44517, 45303, 45590, 45725, 45552, 44663, 45450, 45569, 45541, 45101, 44644, 42995, 42662, 42554, 43437, 43180, 45681, 46021, 44341, 45998],
      "WindowCenter": [11205.0, 11145.0, 11093.0, 11060.0, 11044.0, 11027.0, 11026.0, 11033.0, 11051.0, 11056.0, 11059.0, 11053.0, 11054.0, 11048.0, 11048.0, 11068.0, 11069.0, 11062.0, 11052.0, 11040.0, 11044.0, 11043.0, 11040.0, 11015.0, 11008.0, 11056.0, 11060.0, 11063.0, 11031.0, 10978.0, 10960.0, 10999.0, 11037.0, 11009.0, 10978.0, 10960.0, 10964.0, 11008.0, 11050.0, 11046.0, 10999.0, 10984.0, 11009.0, 11040.0, 11053.0, 11047.0, 11032.0, 11026.0, 11015.0, 11014.0, 11019.0, 11021.0, 11017.0, 11007.0, 11035.0, 11012.0, 10982.0, 10975.0, 10999.0, 11019.0, 11024.0, 11010.0, 10991.0, 10989.0, 11011.0, 11019.0, 11034.0, 11047.0, 11025.0, 11020.0, 11036.0, 11056.0, 11065.0, 11074.0, 11077.0, 11055.0, 11047.0, 11037.0, 11035.0, 11036.0, 11036.0, 11033.0, 11017.0, 11016.0, 11028.0, 11042.0, 11051.0, 11046.0, 11031.0, 11009.0, 10991.0, 11014.0, 11046.0, 11054.0, 11036.0, 10996.0, 10991.0, 11016.0, 11048.0, 11020.0, 11021.0, 10979.0, 11022.0, 11003.0, 10978.0, 10965.0, 10978.0, 11025.0, 11018.0, 10995.0, 10986.0, 10973.0, 10968.0, 10975.0, 10987.0, 11023.0, 11031.0, 10996.0, 10962.0, 10982.0, 11007.0, 11025.0, 11021.0, 11016.0, 10997.0, 11031.0, 11051.0, 11012.0, 10980.0],
      "WindowWidth": [24150.0, 23978.0, 23839.0, 23747.0, 23705.0, 23662.0, 23660.0, 23673.0, 23718.0, 23725.0, 23736.0, 23720.0, 23728.0, 23718.0, 23719.0, 23761.0, 23760.0, 23747.0, 23722.0, 23701.0, 23705.0, 23704.0, 23695.0, 23639.0, 23623.0, 23739.0, 23742.0, 23750.0, 23686.0, 23552.0, 23510.0, 23602.0, 23685.0, 23620.0, 23547.0, 23512.0, 23516.0, 23616.0, 23714.0, 23701.0, 23599.0, 23559.0, 23616.0, 23695.0, 23720.0, 23702.0, 23668.0, 23662.0, 23633.0, 23631.0, 23640.0, 23642.0, 23639.0, 23628.0, 23686.0, 23630.0, 23555.0, 23539.0, 23590.0, 23642.0, 23658.0, 23619.0, 23571.0, 23567.0, 23618.0, 23636.0, 23670.0, 23716.0, 23652.0, 23646.0, 23679.0, 23723.0, 23750.0, 23769.0, 23772.0, 23722.0, 23702.0, 23681.0, 23672.0, 23677.0, 23676.0, 23670.0, 23635.0, 23629.0, 23658.0, 23688.0, 23710.0, 23701.0, 23670.0, 23619.0, 23583.0, 23631.0, 23707.0, 23728.0, 23680.0, 23588.0, 23584.0, 23637.0, 23710.0, 23645.0, 23647.0, 23563.0, 23647.0, 23608.0, 23550.0, 23519.0, 23555.0, 23660.0, 23644.0, 23585.0, 23566.0, 23530.0, 23517.0, 23530.0, 23563.0, 23659.0, 23672.0, 23591.0, 23511.0, 23565.0, 23620.0, 23664.0, 23654.0, 23647.0, 23601.0, 23676.0, 23713.0, 23633.0, 23550.0]
    },
    "slices": {}
  }
}