{
  "AcquisitionMatrixPE": 104,
  "AcquisitionNumber": 1,
  "AcquisitionTime": "16:53:24.772500",
  "BandwidthPerPixelPhaseEncode": 17.17,
  "BaseResolution": 104,
  "BodyPartExamined": "BRAIN",
  "CoilString": "HC1-7;NC1_2",
  "ConsistencyInfo": "N4_VE11C_LATEST_20160120",
  "ConversionSoftware": "dcm2niix",
  "ConversionSoftwareVersion": "v1.0.20190720  (JP2:OpenJPEG) GCC7.3.0",
  "DerivedVendorReportedEchoSpacing": 0.000560011,
  "DeviceSerialNumber": "167006",
  "DwellTime": 2.1e-06,
  "EchoTime": 0.037,
  "EchoTrainLength": 104,
  "EffectiveEchoSpacing": 0.000560011,
  "FlipAngle": 52,
  "ImageComments": "Unaliased_MB4_PE3_LB",
  "ImageOrientationPatientDICOM": [0.999722, -0.0234785, -0.0022033, 0.0211158, 0.932864, -0.359609],
  "ImageType": [
    "ORIGINAL",
    "PRIMARY",
    "M",
    "MB",
    "ND",
    "MOSAIC"
],
  "ImagingFrequency": 123.26,
  "InPlanePhaseEncodingDirectionDICOM": "COL",
  "InstitutionAddress": "Chemin_Queen-Mary_4565_Montreal_District_CA_H3W_1W5",
  "InstitutionName": "IUGM",
  "InstitutionalDepartmentName": "Department",
  "MRAcquisitionType": "2D",
  "MagneticFieldStrength": 3,
  "Manufacturer": "Siemens",
  "ManufacturersModelName": "Prisma_fit",
  "Modality": "MR",
  "MultibandAccelerationFactor": 4,
  "PartialFourier": 1,
  "PatientPosition": "HFS",
  "PercentPhaseFOV": 100,
  "PhaseEncodingDirection": "j",
  "PhaseEncodingSteps": 104,
  "PhaseResolution": 1,
  "PixelBandwidth": 2290,
  "ProcedureStepDescription": "hcptrt_generic",
  "ProtocolName": "func_task-social_run-1",
  "PulseSequenceDetails": "%CustomerSeq%_cmrr_mbep2d_bold",
  "ReceiveCoilActiveElements": "HC1-7;NC1,2",
  "ReceiveCoilName": "HeadNeck_64",
  "ReconMatrixPE": 104,
  "RepetitionTime": 1.49,
  "SAR": 0.0299391,
  "ScanOptions": "FS",
  "ScanningSequence": "EP",
  "SequenceName": "epfid2d1_104",
  "SequenceVariant": "SK_SS",
  "SeriesDescription": "func_task-social_run-1",
  "SeriesNumber": 19,
  "ShimSetting": [620, -7151, -8817, 647, 11, 169, 3, -4],
  "SliceThickness": 2,
  "SliceTiming": [0, 0.785, 0.0975, 0.8825, 0.195, 0.98, 0.295, 1.0775, 0.3925, 1.175, 0.49, 1.275, 0.5875, 1.3725, 0.685, 0, 0.785, 0.0975, 0.8825, 0.195, 0.98, 0.295, 1.0775, 0.3925, 1.175, 0.49, 1.275, 0.5875, 1.3725, 0.685, 0, 0.785, 0.0975, 0.8825, 0.195, 0.98, 0.295, 1.0775, 0.3925, 1.175, 0.49, 1.275, 0.5875, 1.3725, 0.685, 0, 0.785, 0.0975, 0.8825, 0.195, 0.98, 0.295, 1.0775, 0.3925, 1.175, 0.49, 1.275, 0.5875, 1.3725, 0.685],
  "SoftwareVersions": "syngo_MR_E11",
  "SpacingBetweenSlices": 2,
  "StationName": "MRC35049",
  "TaskName": "social",
  "TotalReadoutTime": 0.0576811,
  "TxRefAmp": 210.481,
  "WipMemBlock": "74659141-8271-4b81-af35-0e1819562fa6||Sequence: R016 ve11c/master r/e634e98; Dec 19 2017 11:00:25 by eja",
  "dcmmeta_affine": [
    [-1.9994438886642456, 0.04223150759935379, -0.02099691331386566, 104.8130111694336],
    [0.04695691913366318, 1.8657280206680298, -0.7189256548881531, -68.64818572998047],
    [-0.004406606778502464, 0.7192186713218689, 1.8662008047103882, -68.59354400634766],
    [0.0, 0.0, 0.0, 1.0]
],
  "dcmmeta_reorient_transform": [
    [0.0, -1.0, 0.0, 103.0],
    [1.0, 0.0, 0.0, 0.0],
    [0.0, 0.0, 1.0, 0.0],
    [0.0, 0.0, 0.0, 1.0]
],
  "dcmmeta_shape": [104, 104, 60, 139],
  "dcmmeta_slice_dim": 2,
  "dcmmeta_version": 0.6,
  "global": {
    "const": {
      "AcquisitionMatrix": [104, 0, 0, 104],
      "AngioFlag": "N",
      "BitsAllocated": 16,
      "BitsStored": 16,
      "BodyPartExamined": "BRAIN",
      "Columns": 832,
      "EchoNumbers": 1,
      "EchoTime": 37.0,
      "EchoTrainLength": 104,
      "FlipAngle": 52.0,
      "HighBit": 15,
      "ImageOrientationPatient": [0.99972191500936, -0.0234784604201, -0.002203303501, 0.02111575400093, 0.9328640020047, -0.3596093417818],
      "ImagePositionPatient": [-852.33267888446, -785.55447219749, 268.88558471198],
      "ImageType": [
        "ORIGINAL",
        "PRIMARY",
        "M",
        "MB",
        "ND",
        "MOSAIC"
],
      "ImagedNucleus": "1H",
      "ImagingFrequency": 123.259596,
      "InPlanePhaseEncodingDirection": "COL",
      "MRAcquisitionType": "2D",
      "MagneticFieldStrength": 3.0,
      "Manufacturer": "SIEMENS",
      "ManufacturerModelName": "Prisma_fit",
      "Modality": "MR",
      "NumberOfAverages": 1.0,
      "NumberOfPhaseEncodingSteps": 104,
      "PercentPhaseFieldOfView": 100.0,
      "PercentSampling": 100.0,
      "PerformedProcedureStepStartTime": "161017.594000",
      "PhotometricInterpretation": "MONOCHROME2",
      "PixelBandwidth": 2290.0,
      "PixelRepresentation": 0,
      "PixelSpacing": [2.0, 2.0],
      "ProtocolName": "func_task-social_run-1",
      "RepetitionTime": 1490.0,
      "Rows": 832,
      "SAR": 0.0299390789604,
      "SamplesPerPixel": 1,
      "ScanOptions": "FS",
      "ScanningSequence": "EP",
      "SequenceName": "epfid2d1_104",
      "SequenceVariant": [
        "SK",
        "SS"
],
      "SeriesDescription": "func_task-social_run-1",
      "SeriesNumber": 19,
      "SeriesTime": "165432.726000",
      "SliceLocation": -40.428565823459,
      "SliceThickness": 2.0,
      "SmallestImagePixelValue": 0,
      "SoftwareVersions": "syngo MR E11",
      "SpacingBetweenSlices": 2.0000000797543,
      "SpecificCharacterSet": "ISO_IR 100",
      "StudyID": "2",
      "StudyTime": "161017.527000",
      "TransmitCoilName": "Body",
      "VariableFlipAngleFlag": "N",
      "WindowCenterWidthExplanation": "Algo1",
      "dBdt": 0.0},
    "slices": {}
  },
  "time": {
    "samples": {
      "AcquisitionNumber": [1, 2, 3, 4, 5, 6, 7, 8, 9, 10, 11, 12, 13, 14, 15, 16, 17, 18, 19, 20, 21, 22, 23, 24, 25, 26, 27, 28, 29, 30, 31, 32, 33, 34, 35, 36, 37, 38, 39, 40, 41, 42, 43, 44, 45, 46, 47, 48, 49, 50, 51, 52, 53, 54, 55, 56, 57, 58, 59, 60, 61, 62, 63, 64, 65, 66, 67, 68, 69, 70, 71, 72, 73, 74, 75, 76, 77, 78, 79, 80, 81, 82, 83, 84, 85, 86, 87, 88, 89, 90, 91, 92, 93, 94, 95, 96, 97, 98, 99, 100, 101, 102, 103, 104, 105, 106, 107, 108, 109, 110, 111, 112, 113, 114, 115, 116, 117, 118, 119, 120, 121, 122, 123, 124, 125, 126, 127, 128, 129, 130, 131, 132, 133, 134, 135, 136, 137, 138, 139],
      "AcquisitionTime": ["165324.772500", "165326.262500", "165327.752500", "165329.242500", "165330.732500", "165332.222500", "165333.712500", "165335.202500", "165336.692500", "165338.182500", "165339.672500", "165341.162500", "165342.652500", "165344.142500", "165345.632500", "165347.122500", "165348.612500", "165350.102500", "165351.592500", "165353.082500", "165354.572500", "165356.062500", "165357.552500", "165359.042500", "165400.532500", "165402.022500", "165403.512500", "165405.002500", "165406.492500", "165407.982500", "165409.472500", "165410.962500", "165412.452500", "165413.942500", "165415.432500", "165416.922500", "165418.412500", "165419.902500", "165421.392500", "165422.882500", "165424.372500", "165425.862500", "165427.352500", "165428.842500", "165430.332500", "165431.822500", "165433.312500", "165434.802500", "165436.292500", "165437.782500", "165439.272500", "165440.762500", "165442.252500", "165443.742500", "165445.232500", "165446.722500", "165448.212500", "165449.702500", "165451.192500", "165452.682500", "165454.172500", "165455.662500", "165457.152500", "165458.642500", "165500.132500", "165501.622500", "165503.112500", "165504.602500", "165506.092500", "165507.582500", "165509.072500", "165510.562500", "165512.052500", "165513.542500", "165515.032500", "165516.522500", "165518.012500", "165519.502500", "165520.992500", "165522.482500", "165523.972500", "165525.462500", "165526.952500", "165528.442500", "165529.932500", "165531.422500", "165532.912500", "165534.402500", "165535.892500", "165537.382500", "165538.872500", "165540.362500", "165541.852500", "165543.342500", "165544.832500", "165546.322500", "165547.812500", "165549.302500", "165550.792500", "165552.282500", "165553.772500", "165555.262500", "165556.752500", "165558.242500", "165559.732500", "165601.222500", "165602.712500", "165604.202500", "165605.692500", "165607.182500", "165608.672500", "165610.162500", "165611.652500", "165613.142500", "165614.632500", "165616.122500", "165617.612500", "165619.102500", "165620.592500", "165622.082500", "165623.572500", "165625.062500", "165626.552500", "165628.042500", "165629.532500", "165631.022500", "165632.512500", "165634.002500", "165635.492500", "165636.982500", "165638.472500", "165639.962500", "165641.452500", "165642.942500", "165644.432500", "165645.922500", "165647.412500", "165648.902500", "165650.392500"],
      "ContentTime": ["165432.728000", "165432.732000", "165432.735000", "165432.738000", "165432.741000", "165432.744000", "165432.748000", "165432.751000", "165432.753000", "165432.757000", "165432.767000", "165452.699000", "165452.707000", "165452.710000", "165452.713000", "165452.716000", "165452.719000", "165452.722000", "165452.725000", "165452.728000", "165452.731000", "165452.734000", "165452.737000", "165452.740000", "165452.743000", "165452.746000", "165452.749000", "165452.752000", "165452.755000", "165452.758000", "165452.761000", "165512.700000", "165512.703000", "165512.706000", "165512.709000", "165512.712000", "165512.715000", "165512.718000", "165512.721000", "165512.740000", "165512.743000", "165512.745000", "165512.748000", "165512.751000", "165512.754000", "165512.757000", "165512.760000", "165512.763000", "165512.766000", "165512.769000", "165512.772000", "165532.700000", "165532.703000", "165532.706000", "165532.709000", "165532.712000", "165532.715000", "165532.718000", "165532.721000", "165532.723000", "165532.726000", "165532.729000", "165532.732000", "165532.735000", "165532.738000", "165532.741000", "165532.744000", "165532.747000", "165532.750000", "165532.753000", "165532.756000", "165532.759000", "165552.700000", "165552.703000", "165552.706000", "165552.709000", "165552.712000", "165552.715000", "165552.718000", "165552.721000", "165552.724000", "165552.727000", "165552.730000", "165552.732000", "165552.735000", "165552.738000", "165552.741000", "165552.744000", "165552.747000", "165552.750000", "165552.753000", "165552.756000", "165632.700000", "165632.703000", "165632.706000", "165632.709000", "165632.712000", "165632.715000", "165632.718000", "165632.721000", "165632.724000", "165632.726000", "165632.729000", "165632.732000", "165632.735000", "165632.738000", "165632.741000", "165632.744000", "165632.747000", "165632.750000", "165632.753000", "165632.756000", "165632.759000", "165632.762000", "165632.765000", "165632.768000", "165632.770000", "165632.773000", "165632.776000", "165632.779000", "165632.782000", "165632.785000", "165632.788000", "165632.791000", "165632.794000", "165653.030000", "165653.034000", "165653.037000", "165653.040000", "165653.043000", "165653.046000", "165653.049000", "165653.052000", "165653.055000", "165653.058000", "165653.062000", "165653.065000", "165653.068000", "165653.071000"],
      "InstanceCreationTime": ["165432.728000", "165432.732000", "165432.735000", "165432.738000", "165432.741000", "165432.744000", "165432.748000", "165432.751000", "165432.753000", "165432.757000", "165432.767000", "165452.699000", "165452.707000", "165452.710000", "165452.713000", "165452.716000", "165452.719000", "165452.722000", "165452.725000", "165452.728000", "165452.731000", "165452.734000", "165452.737000", "165452.740000", "165452.743000", "165452.746000", "165452.749000", "165452.752000", "165452.755000", "165452.758000", "165452.761000", "165512.700000", "165512.703000", "165512.706000", "165512.709000", "165512.712000", "165512.715000", "165512.718000", "165512.721000", "165512.740000", "165512.743000", "165512.745000", "165512.748000", "165512.751000", "165512.754000", "165512.757000", "165512.760000", "165512.763000", "165512.766000", "165512.769000", "165512.772000", "165532.700000", "165532.703000", "165532.706000", "165532.709000", "165532.712000", "165532.715000", "165532.718000", "165532.721000", "165532.723000", "165532.726000", "165532.729000", "165532.732000", "165532.735000", "165532.738000", "165532.741000", "165532.744000", "165532.747000", "165532.750000", "165532.753000", "165532.756000", "165532.759000", "165552.700000", "165552.703000", "165552.706000", "165552.709000", "165552.712000", "165552.715000", "165552.718000", "165552.721000", "165552.724000", "165552.727000", "165552.730000", "165552.732000", "165552.735000", "165552.738000", "165552.741000", "165552.744000", "165552.747000", "165552.750000", "165552.753000", "165552.756000", "165632.700000", "165632.703000", "165632.706000", "165632.709000", "165632.712000", "165632.715000", "165632.718000", "165632.721000", "165632.724000", "165632.726000", "165632.729000", "165632.732000", "165632.735000", "165632.738000", "165632.741000", "165632.744000", "165632.747000", "165632.750000", "165632.753000", "165632.756000", "165632.759000", "165632.762000", "165632.765000", "165632.768000", "165632.770000", "165632.773000", "165632.776000", "165632.779000", "165632.782000", "165632.785000", "165632.788000", "165632.791000", "165632.794000", "165653.030000", "165653.034000", "165653.037000", "165653.040000", "165653.043000", "165653.046000", "165653.049000", "165653.052000", "165653.055000", "165653.058000", "165653.062000", "165653.065000", "165653.068000", "165653.071000"],
      "InstanceNumber": [1, 2, 3, 4, 5, 6, 7, 8, 9, 10, 11, 12, 13, 14, 15, 16, 17, 18, 19, 20, 21, 22, 23, 24, 25, 26, 27, 28, 29, 30, 31, 32, 33, 34, 35, 36, 37, 38, 39, 40, 41, 42, 43, 44, 45, 46, 47, 48, 49, 50, 51, 52, 53, 54, 55, 56, 57, 58, 59, 60, 61, 62, 63, 64, 65, 66, 67, 68, 69, 70, 71, 72, 73, 74, 75, 76, 77, 78, 79, 80, 81, 82, 83, 84, 85, 86, 87, 88, 89, 90, 91, 92, 93, 94, 95, 96, 97, 98, 99, 100, 101, 102, 103, 104, 105, 106, 107, 108, 109, 110, 111, 112, 113, 114, 115, 116, 117, 118, 119, 120, 121, 122, 123, 124, 125, 126, 127, 128, 129, 130, 131, 132, 133, 134, 135, 136, 137, 138, 139],
      "LargestImagePixelValue": [41656, 40832, 40152, 39255, 38994, 38701, 38802, 39021, 38850, 39401, 38573, 38847, 38762, 39208, 39046, 38633, 38978, 38802, 38578, 38807, 38379, 38822, 38837, 39096, 38762, 38761, 38950, 38948, 38839, 39117, 39161, 38656, 38640, 38576, 38983, 38623, 38503, 38816, 39122, 38761, 38497, 38683, 38861, 38935, 39034, 38740, 38839, 38498, 38928, 39276, 38836, 38339, 38427, 38946, 38361, 38586, 38710, 38827, 38860, 38885, 38487, 38558, 38636, 38722, 38551, 38893, 38688, 38634, 38791, 38299, 38647, 39074, 38754, 38578, 38722, 38705, 39000, 39173, 38638, 38491, 38660, 38708, 38332, 38599, 38525, 38458, 38793, 39050, 39316, 38801, 38479, 38900, 38729, 38178, 38733, 39078, 38677, 38671, 38790, 38773, 38783, 38589, 38700, 38552, 38508, 38830, 39021, 38635, 38393, 38725, 38524, 39069, 38674, 39132, 38948, 38677, 38805, 38472, 38420, 38549, 38944, 38464, 38592, 38519, 38647, 38847, 38843, 39050, 39009, 38865, 38579, 38840, 38470, 38841, 38890, 39015, 38803, 38495, 38375],
      "WindowCenter": [9879.0, 9856.0, 9854.0, 9841.0, 9816.0, 9797.0, 9787.0, 9800.0, 9805.0, 9820.0, 9815.0, 9811.0, 9813.0, 9821.0, 9830.0, 9834.0, 9840.0, 9840.0, 9835.0, 9834.0, 9825.0, 9833.0, 9841.0, 9841.0, 9827.0, 9816.0, 9805.0, 9798.0, 9805.0, 9802.0, 9801.0, 9796.0, 9804.0, 9812.0, 9814.0, 9815.0, 9814.0, 9823.0, 9833.0, 9832.0, 9811.0, 9807.0, 9811.0, 9820.0, 9824.0, 9823.0, 9817.0, 9807.0, 9812.0, 9828.0, 9833.0, 9835.0, 9843.0, 9840.0, 9821.0, 9802.0, 9789.0, 9779.0, 9787.0, 9811.0, 9809.0, 9810.0, 9816.0, 9817.0, 9808.0, 9812.0, 9816.0, 9824.0, 9817.0, 9800.0, 9798.0, 9803.0, 9805.0, 9808.0, 9815.0, 9807.0, 9805.0, 9808.0, 9815.0, 9816.0, 9808.0, 9807.0, 9809.0, 9815.0, 9802.0, 9790.0, 9794.0, 9793.0, 9811.0, 9823.0, 9835.0, 9835.0, 9826.0, 9809.0, 9815.0, 9822.0, 9825.0, 9825.0, 9834.0, 9835.0, 9827.0, 9818.0, 9808.0, 9792.0, 9788.0, 9797.0, 9796.0, 9790.0, 9788.0, 9789.0, 9791.0, 9805.0, 9807.0, 9820.0, 9833.0, 9825.0, 9811.0, 9801.0, 9798.0, 9808.0, 9825.0, 9828.0, 9826.0, 9819.0, 9809.0, 9790.0, 9792.0, 9804.0, 9805.0, 9815.0, 9810.0, 9808.0, 9785.0, 9780.0, 9787.0, 9795.0, 9812.0, 9802.0, 9794.0],
      "WindowWidth": [20924.0, 20854.0, 20839.0, 20809.0, 20751.0, 20702.0, 20681.0, 20709.0, 20724.0, 20755.0, 20745.0, 20732.0, 20741.0, 20757.0, 20777.0, 20790.0, 20801.0, 20801.0, 20793.0, 20789.0, 20770.0, 20784.0, 20802.0, 20801.0, 20773.0, 20744.0, 20717.0, 20705.0, 20719.0, 20712.0, 20709.0, 20700.0, 20716.0, 20734.0, 20742.0, 20744.0, 20740.0, 20761.0, 20785.0, 20782.0, 20739.0, 20727.0, 20732.0, 20752.0, 20765.0, 20761.0, 20748.0, 20723.0, 20734.0, 20768.0, 20786.0, 20791.0, 20803.0, 20794.0, 20753.0, 20711.0, 20679.0, 20660.0, 20678.0, 20730.0, 20732.0, 20736.0, 20746.0, 20749.0, 20729.0, 20734.0, 20747.0, 20763.0, 20747.0, 20710.0, 20703.0, 20714.0, 20720.0, 20728.0, 20739.0, 20722.0, 20719.0, 20728.0, 20743.0, 20745.0, 20726.0, 20723.0, 20729.0, 20741.0, 20712.0, 20685.0, 20693.0, 20691.0, 20732.0, 20760.0, 20790.0, 20791.0, 20768.0, 20732.0, 20742.0, 20759.0, 20767.0, 20767.0, 20784.0, 20787.0, 20766.0, 20747.0, 20721.0, 20687.0, 20680.0, 20699.0, 20697.0, 20685.0, 20678.0, 20683.0, 20688.0, 20716.0, 20723.0, 20748.0, 20782.0, 20761.0, 20733.0, 20712.0, 20705.0, 20728.0, 20764.0, 20775.0, 20766.0, 20750.0, 20727.0, 20686.0, 20689.0, 20714.0, 20718.0, 20739.0, 20733.0, 20725.0, 20675.0, 20661.0, 20677.0, 20695.0, 20735.0, 20717.0, 20698.0]
    },
    "slices": {}
  }
}