{
  "AcquisitionMatrixPE": 104,
  "AcquisitionNumber": 1,
  "AcquisitionTime": "16:34:47.137500",
  "BandwidthPerPixelPhaseEncode": 17.17,
  "BaseResolution": 104,
  "BodyPartExamined": "BRAIN",
  "CoilString": "HC1-7;NC1_2",
  "ConsistencyInfo": "N4_VE11C_LATEST_20160120",
  "ConversionSoftware": "dcm2niix",
  "ConversionSoftwareVersion": "v1.0.20190720  (JP2:OpenJPEG) GCC7.3.0",
  "DerivedVendorReportedEchoSpacing": 0.000560011,
  "DeviceSerialNumber": "167006",
  "DwellTime": 2.1e-06,
  "EchoTime": 0.037,
  "EchoTrainLength": 104,
  "EffectiveEchoSpacing": 0.000560011,
  "FlipAngle": 52,
  "ImageComments": "Unaliased_MB4_PE3_LB",
  "ImageOrientationPatientDICOM": [0.999722, -0.0234785, -0.0022033, 0.0211158, 0.932864, -0.359609],
  "ImageType": [
    "ORIGINAL",
    "PRIMARY",
    "M",
    "MB",
    "ND",
    "MOSAIC"
],
  "ImagingFrequency": 123.26,
  "InPlanePhaseEncodingDirectionDICOM": "COL",
  "InstitutionAddress": "Chemin_Queen-Mary_4565_Montreal_District_CA_H3W_1W5",
  "InstitutionName": "IUGM",
  "InstitutionalDepartmentName": "Department",
  "MRAcquisitionType": "2D",
  "MagneticFieldStrength": 3,
  "Manufacturer": "Siemens",
  "ManufacturersModelName": "Prisma_fit",
  "Modality": "MR",
  "MultibandAccelerationFactor": 4,
  "PartialFourier": 1,
  "PatientPosition": "HFS",
  "PercentPhaseFOV": 100,
  "PhaseEncodingDirection": "j",
  "PhaseEncodingSteps": 104,
  "PhaseResolution": 1,
  "PixelBandwidth": 2290,
  "ProcedureStepDescription": "hcptrt_generic",
  "ProtocolName": "func_task-wm_run-1",
  "PulseSequenceDetails": "%CustomerSeq%_cmrr_mbep2d_bold",
  "ReceiveCoilActiveElements": "HC1-7;NC1,2",
  "ReceiveCoilName": "HeadNeck_64",
  "ReconMatrixPE": 104,
  "RepetitionTime": 1.49,
  "SAR": 0.0300661,
  "ScanOptions": "FS",
  "ScanningSequence": "EP",
  "SequenceName": "epfid2d1_104",
  "SequenceVariant": "SK_SS",
  "SeriesDescription": "func_task-wm_run-1",
  "SeriesNumber": 11,
  "ShimSetting": [619, -7154, -8824, 666, -10, 102, -27, -12],
  "SliceThickness": 2,
  "SliceTiming": [0, 0.7825, 0.0975, 0.88, 0.195, 0.98, 0.2925, 1.0775, 0.39, 1.175, 0.49, 1.2725, 0.5875, 1.37, 0.685, 0, 0.7825, 0.0975, 0.88, 0.195, 0.98, 0.2925, 1.0775, 0.39, 1.175, 0.49, 1.2725, 0.5875, 1.37, 0.685, 0, 0.7825, 0.0975, 0.88, 0.195, 0.98, 0.2925, 1.0775, 0.39, 1.175, 0.49, 1.2725, 0.5875, 1.37, 0.685, 0, 0.7825, 0.0975, 0.88, 0.195, 0.98, 0.2925, 1.0775, 0.39, 1.175, 0.49, 1.2725, 0.5875, 1.37, 0.685],
  "SoftwareVersions": "syngo_MR_E11",
  "SpacingBetweenSlices": 2,
  "StationName": "MRC35049",
  "TaskName": "wm",
  "TotalReadoutTime": 0.0576811,
  "TxRefAmp": 210.481,
  "WipMemBlock": "e7c1bb1f-bbc7-4506-9a02-93cd195fb037||Sequence: R016 ve11c/master r/e634e98; Dec 19 2017 11:00:25 by eja",
  "dcmmeta_affine": [
    [-1.9994438886642456, 0.04223150759935379, -0.02099691331386566, 104.8130111694336],
    [0.04695691913366318, 1.8657280206680298, -0.7189256548881531, -68.64818572998047],
    [-0.004406606778502464, 0.7192186713218689, 1.8662008047103882, -68.59354400634766],
    [0.0, 0.0, 0.0, 1.0]
],
  "dcmmeta_reorient_transform": [
    [0.0, -1.0, 0.0, 103.0],
    [1.0, 0.0, 0.0, 0.0],
    [0.0, 0.0, 1.0, 0.0],
    [0.0, 0.0, 0.0, 1.0]
],
  "dcmmeta_shape": [104, 104, 60, 202],
  "dcmmeta_slice_dim": 2,
  "dcmmeta_version": 0.6,
  "global": {
    "const": {
      "AcquisitionMatrix": [104, 0, 0, 104],
      "AngioFlag": "N",
      "BitsAllocated": 16,
      "BitsStored": 16,
      "BodyPartExamined": "BRAIN",
      "Columns": 832,
      "EchoNumbers": 1,
      "EchoTime": 37.0,
      "EchoTrainLength": 104,
      "FlipAngle": 52.0,
      "HighBit": 15,
      "ImageOrientationPatient": [0.99972191500936, -0.0234784604201, -0.002203303501, 0.02111575400093, 0.9328640020047, -0.3596093417818],
      "ImagePositionPatient": [-852.33267888446, -785.55447219749, 268.88558471198],
      "ImageType": [
        "ORIGINAL",
        "PRIMARY",
        "M",
        "MB",
        "ND",
        "MOSAIC"
],
      "ImagedNucleus": "1H",
      "ImagingFrequency": 123.259594,
      "InPlanePhaseEncodingDirection": "COL",
      "MRAcquisitionType": "2D",
      "MagneticFieldStrength": 3.0,
      "Manufacturer": "SIEMENS",
      "ManufacturerModelName": "Prisma_fit",
      "Modality": "MR",
      "NumberOfAverages": 1.0,
      "NumberOfPhaseEncodingSteps": 104,
      "PercentPhaseFieldOfView": 100.0,
      "PercentSampling": 100.0,
      "PerformedProcedureStepStartTime": "161017.594000",
      "PhotometricInterpretation": "MONOCHROME2",
      "PixelBandwidth": 2290.0,
      "PixelRepresentation": 0,
      "PixelSpacing": [2.0, 2.0],
      "ProtocolName": "func_task-wm_run-1",
      "RepetitionTime": 1490.0,
      "Rows": 832,
      "SAR": 0.0300660860156,
      "SamplesPerPixel": 1,
      "ScanOptions": "FS",
      "ScanningSequence": "EP",
      "SequenceName": "epfid2d1_104",
      "SequenceVariant": [
        "SK",
        "SS"
],
      "SeriesDescription": "func_task-wm_run-1",
      "SeriesNumber": 11,
      "SeriesTime": "163612.913000",
      "SliceLocation": -40.428565823459,
      "SliceThickness": 2.0,
      "SmallestImagePixelValue": 0,
      "SoftwareVersions": "syngo MR E11",
      "SpacingBetweenSlices": 2.0000000797543,
      "SpecificCharacterSet": "ISO_IR 100",
      "StudyID": "2",
      "StudyTime": "161017.527000",
      "TransmitCoilName": "Body",
      "VariableFlipAngleFlag": "N",
      "WindowCenterWidthExplanation": "Algo1",
      "dBdt": 0.0},
    "slices": {}
  },
  "time": {
    "samples": {
      "AcquisitionNumber": [1, 2, 3, 4, 5, 6, 7, 8, 9, 10, 11, 12, 13, 14, 15, 16, 17, 18, 19, 20, 21, 22, 23, 24, 25, 26, 27, 28, 29, 30, 31, 32, 33, 34, 35, 36, 37, 38, 39, 40, 41, 42, 43, 44, 45, 46, 47, 48, 49, 50, 51, 52, 53, 54, 55, 56, 57, 58, 59, 60, 61, 62, 63, 64, 65, 66, 67, 68, 69, 70, 71, 72, 73, 74, 75, 76, 77, 78, 79, 80, 81, 82, 83, 84, 85, 86, 87, 88, 89, 90, 91, 92, 93, 94, 95, 96, 97, 98, 99, 100, 101, 102, 103, 104, 105, 106, 107, 108, 109, 110, 111, 112, 113, 114, 115, 116, 117, 118, 119, 120, 121, 122, 123, 124, 125, 126, 127, 128, 129, 130, 131, 132, 133, 134, 135, 136, 137, 138, 139, 140, 141, 142, 143, 144, 145, 146, 147, 148, 149, 150, 151, 152, 153, 154, 155, 156, 157, 158, 159, 160, 161, 162, 163, 164, 165, 166, 167, 168, 169, 170, 171, 172, 173, 174, 175, 176, 177, 178, 179, 180, 181, 182, 183, 184, 185, 186, 187, 188, 189, 190, 191, 192, 193, 194, 195, 196, 197, 198, 199, 200, 201, 202],
      "AcquisitionTime": ["163447.137500", "163448.627500", "163450.117500", "163451.607500", "163453.097500", "163454.587500", "163456.077500", "163457.567500", "163459.057500", "163500.547500", "163502.037500", "163503.527500", "163505.017500", "163506.507500", "163507.997500", "163509.487500", "163510.977500", "163512.467500", "163513.957500", "163515.447500", "163516.937500", "163518.427500", "163519.917500", "163521.407500", "163522.897500", "163524.387500", "163525.877500", "163527.367500", "163528.857500", "163530.347500", "163531.837500", "163533.327500", "163534.817500", "163536.307500", "163537.797500", "163539.287500", "163540.777500", "163542.267500", "163543.757500", "163545.247500", "163546.737500", "163548.227500", "163549.717500", "163551.207500", "163552.697500", "163554.187500", "163555.677500", "163557.167500", "163558.657500", "163600.147500", "163601.637500", "163603.127500", "163604.617500", "163606.107500", "163607.597500", "163609.087500", "163610.577500", "163612.067500", "163613.557500", "163615.047500", "163616.537500", "163618.027500", "163619.517500", "163621.007500", "163622.497500", "163623.987500", "163625.477500", "163626.967500", "163628.457500", "163629.947500", "163631.437500", "163632.927500", "163634.417500", "163635.907500", "163637.397500", "163638.887500", "163640.377500", "163641.867500", "163643.357500", "163644.847500", "163646.337500", "163647.827500", "163649.317500", "163650.807500", "163652.297500", "163653.787500", "163655.277500", "163656.767500", "163658.257500", "163659.747500", "163701.237500", "163702.727500", "163704.217500", "163705.707500", "163707.197500", "163708.687500", "163710.177500", "163711.667500", "163713.157500", "163714.647500", "163716.137500", "163717.627500", "163719.117500", "163720.607500", "163722.097500", "163723.587500", "163725.077500", "163726.567500", "163728.057500", "163729.547500", "163731.037500", "163732.527500", "163734.017500", "163735.507500", "163736.997500", "163738.487500", "163739.977500", "163741.467500", "163742.957500", "163744.447500", "163745.937500", "163747.427500", "163748.917500", "163750.407500", "163751.897500", "163753.387500", "163754.877500", "163756.367500", "163757.857500", "163759.347500", "163800.837500", "163802.327500", "163803.817500", "163805.307500", "163806.797500", "163808.287500", "163809.777500", "163811.267500", "163812.757500", "163814.247500", "163815.737500", "163817.227500", "163818.717500", "163820.207500", "163821.697500", "163823.187500", "163824.677500", "163826.167500", "163827.657500", "163829.147500", "163830.637500", "163832.127500", "163833.617500", "163835.107500", "163836.597500", "163838.087500", "163839.577500", "163841.067500", "163842.557500", "163844.047500", "163845.537500", "163847.027500", "163848.517500", "163850.007500", "163851.497500", "163852.987500", "163854.477500", "163855.967500", "163857.457500", "163858.947500", "163900.437500", "163901.927500", "163903.417500", "163904.907500", "163906.397500", "163907.887500", "163909.377500", "163910.867500", "163912.357500", "163913.847500", "163915.337500", "163916.827500", "163918.317500", "163919.807500", "163921.297500", "163922.787500", "163924.277500", "163925.767500", "163927.257500", "163928.747500", "163930.237500", "163931.727500", "163933.217500", "163934.707500", "163936.197500", "163937.687500", "163939.177500", "163940.667500", "163942.157500", "163943.647500", "163945.137500", "163946.627500"],
      "ContentTime": ["163612.916000", "163612.920000", "163612.923000", "163612.926000", "163612.929000", "163612.931000", "163612.934000", "163612.937000", "163612.940000", "163612.945000", "163612.948000", "163612.951000", "163612.954000", "163612.957000", "163612.960000", "163612.963000", "163612.965000", "163612.974000", "163612.977000", "163612.980000", "163612.983000", "163612.986000", "163612.989000", "163612.992000", "163612.994000", "163612.998000", "163613.001000", "163613.004000", "163613.014000", "163613.017000", "163613.020000", "163613.023000", "163632.885000", "163632.888000", "163632.891000", "163632.894000", "163632.897000", "163632.900000", "163632.903000", "163632.906000", "163632.909000", "163632.911000", "163632.914000", "163632.917000", "163632.920000", "163632.923000", "163632.926000", "163632.929000", "163632.932000", "163632.935000", "163632.938000", "163632.949000", "163652.884000", "163652.887000", "163652.890000", "163652.893000", "163652.896000", "163652.899000", "163652.902000", "163652.905000", "163652.908000", "163652.910000", "163652.913000", "163652.916000", "163652.919000", "163652.922000", "163652.925000", "163652.928000", "163652.931000", "163652.934000", "163652.937000", "163652.940000", "163712.884000", "163712.887000", "163712.890000", "163712.893000", "163712.896000", "163712.899000", "163712.902000", "163712.905000", "163712.908000", "163712.910000", "163712.913000", "163712.916000", "163712.919000", "163712.922000", "163712.925000", "163712.928000", "163712.931000", "163712.934000", "163712.937000", "163712.940000", "163752.884000", "163752.887000", "163752.890000", "163752.893000", "163752.896000", "163752.899000", "163752.902000", "163752.905000", "163752.908000", "163752.911000", "163752.914000", "163752.917000", "163752.920000", "163752.923000", "163752.927000", "163752.930000", "163752.932000", "163752.935000", "163752.938000", "163752.941000", "163752.944000", "163752.947000", "163752.950000", "163752.953000", "163752.956000", "163752.959000", "163752.962000", "163752.965000", "163752.968000", "163752.971000", "163752.974000", "163752.977000", "163832.884000", "163832.887000", "163832.890000", "163832.893000", "163832.896000", "163832.899000", "163832.902000", "163832.905000", "163832.908000", "163832.912000", "163832.915000", "163832.918000", "163832.921000", "163832.924000", "163832.927000", "163832.930000", "163832.933000", "163832.936000", "163832.939000", "163832.942000", "163832.945000", "163832.948000", "163832.951000", "163832.954000", "163832.957000", "163832.959000", "163912.884000", "163912.887000", "163912.890000", "163912.893000", "163912.896000", "163912.899000", "163912.902000", "163912.905000", "163912.908000", "163912.911000", "163912.914000", "163912.916000", "163912.919000", "163912.922000", "163912.925000", "163912.928000", "163912.931000", "163912.934000", "163912.937000", "163912.940000", "163912.943000", "163912.946000", "163912.949000", "163912.965000", "163912.973000", "163912.976000", "163912.979000", "163948.953000", "163948.956000", "163948.959000", "163948.962000", "163948.965000", "163948.968000", "163948.971000", "163948.974000", "163948.977000", "163948.980000", "163948.983000", "163948.986000", "163948.989000", "163948.992000", "163948.995000", "163949.000000", "163949.003000", "163949.006000", "163949.009000", "163949.012000", "163949.016000", "163949.019000", "163949.022000", "163949.026000", "163949.029000"],
      "InstanceCreationTime": ["163612.916000", "163612.920000", "163612.923000", "163612.926000", "163612.929000", "163612.931000", "163612.934000", "163612.937000", "163612.940000", "163612.945000", "163612.948000", "163612.951000", "163612.954000", "163612.957000", "163612.960000", "163612.963000", "163612.965000", "163612.974000", "163612.977000", "163612.980000", "163612.983000", "163612.986000", "163612.989000", "163612.992000", "163612.994000", "163612.998000", "163613.001000", "163613.004000", "163613.014000", "163613.017000", "163613.020000", "163613.023000", "163632.885000", "163632.888000", "163632.891000", "163632.894000", "163632.897000", "163632.900000", "163632.903000", "163632.906000", "163632.909000", "163632.911000", "163632.914000", "163632.917000", "163632.920000", "163632.923000", "163632.926000", "163632.929000", "163632.932000", "163632.935000", "163632.938000", "163632.949000", "163652.884000", "163652.887000", "163652.890000", "163652.893000", "163652.896000", "163652.899000", "163652.902000", "163652.905000", "163652.908000", "163652.910000", "163652.913000", "163652.916000", "163652.919000", "163652.922000", "163652.925000", "163652.928000", "163652.931000", "163652.934000", "163652.937000", "163652.940000", "163712.884000", "163712.887000", "163712.890000", "163712.893000", "163712.896000", "163712.899000", "163712.902000", "163712.905000", "163712.908000", "163712.910000", "163712.913000", "163712.916000", "163712.919000", "163712.922000", "163712.925000", "163712.928000", "163712.931000", "163712.934000", "163712.937000", "163712.940000", "163752.884000", "163752.887000", "163752.890000", "163752.893000", "163752.896000", "163752.899000", "163752.902000", "163752.905000", "163752.908000", "163752.911000", "163752.914000", "163752.917000", "163752.920000", "163752.923000", "163752.927000", "163752.930000", "163752.932000", "163752.935000", "163752.938000", "163752.941000", "163752.944000", "163752.947000", "163752.950000", "163752.953000", "163752.956000", "163752.959000", "163752.962000", "163752.965000", "163752.968000", "163752.971000", "163752.974000", "163752.977000", "163832.884000", "163832.887000", "163832.890000", "163832.893000", "163832.896000", "163832.899000", "163832.902000", "163832.905000", "163832.908000", "163832.912000", "163832.915000", "163832.918000", "163832.921000", "163832.924000", "163832.927000", "163832.930000", "163832.933000", "163832.936000", "163832.939000", "163832.942000", "163832.945000", "163832.948000", "163832.951000", "163832.954000", "163832.957000", "163832.959000", "163912.884000", "163912.887000", "163912.890000", "163912.893000", "163912.896000", "163912.899000", "163912.902000", "163912.905000", "163912.908000", "163912.911000", "163912.914000", "163912.916000", "163912.919000", "163912.922000", "163912.925000", "163912.928000", "163912.931000", "163912.934000", "163912.937000", "163912.940000", "163912.943000", "163912.946000", "163912.949000", "163912.965000", "163912.973000", "163912.976000", "163912.979000", "163948.953000", "163948.956000", "163948.959000", "163948.962000", "163948.965000", "163948.968000", "163948.971000", "163948.974000", "163948.977000", "163948.980000", "163948.983000", "163948.986000", "163948.989000", "163948.992000", "163948.995000", "163949.000000", "163949.003000", "163949.006000", "163949.009000", "163949.012000", "163949.016000", "163949.019000", "163949.022000", "163949.026000", "163949.029000"],
      "InstanceNumber": [1, 2, 3, 4, 5, 6, 7, 8, 9, 10, 11, 12, 13, 14, 15, 16, 17, 18, 19, 20, 21, 22, 23, 24, 25, 26, 27, 28, 29, 30, 31, 32, 33, 34, 35, 36, 37, 38, 39, 40, 41, 42, 43, 44, 45, 46, 47, 48, 49, 50, 51, 52, 53, 54, 55, 56, 57, 58, 59, 60, 61, 62, 63, 64, 65, 66, 67, 68, 69, 70, 71, 72, 73, 74, 75, 76, 77, 78, 79, 80, 81, 82, 83, 84, 85, 86, 87, 88, 89, 90, 91, 92, 93, 94, 95, 96, 97, 98, 99, 100, 101, 102, 103, 104, 105, 106, 107, 108, 109, 110, 111, 112, 113, 114, 115, 116, 117, 118, 119, 120, 121, 122, 123, 124, 125, 126, 127, 128, 129, 130, 131, 132, 133, 134, 135, 136, 137, 138, 139, 140, 141, 142, 143, 144, 145, 146, 147, 148, 149, 150, 151, 152, 153, 154, 155, 156, 157, 158, 159, 160, 161, 162, 163, 164, 165, 166, 167, 168, 169, 170, 171, 172, 173, 174, 175, 176, 177, 178, 179, 180, 181, 182, 183, 184, 185, 186, 187, 188, 189, 190, 191, 192, 193, 194, 195, 196, 197, 198, 199, 200, 201, 202],
      "LargestImagePixelValue": [40493, 39260, 38940, 38233, 38572, 37978, 38370, 38117, 38017, 37775, 38239, 37722, 38376, 38063, 38460, 38858, 38501, 38264, 38351, 38587, 38122, 38202, 38559, 37939, 38492, 37481, 38193, 37932, 37610, 38445, 37655, 38403, 38020, 37741, 38476, 37971, 38193, 37886, 38155, 38399, 37674, 38653, 37819, 38235, 38431, 38175, 37759, 38316, 37964, 38406, 37934, 37982, 37897, 37758, 38338, 38395, 38418, 38155, 37818, 38039, 38063, 38091, 37431, 38389, 38056, 37545, 38099, 37830, 38178, 37950, 37827, 37951, 37863, 38286, 37197, 38424, 37642, 37822, 37998, 38253, 37883, 37926, 37501, 37858, 37931, 38584, 38093, 37920, 37868, 37382, 37758, 38234, 38230, 37940, 38405, 37618, 37780, 38273, 38521, 38011, 37971, 37809, 38552, 38145, 37808, 37592, 37866, 37855, 38258, 37894, 37937, 38209, 38171, 37481, 37989, 37788, 38156, 38427, 37829, 38279, 37880, 37572, 37532, 38266, 37531, 38367, 37701, 37819, 38159, 37849, 37654, 38402, 37344, 37759, 37840, 38038, 38419, 37585, 37723, 38043, 37781, 38048, 37874, 38062, 37655, 37875, 37960, 38241, 37948, 37980, 37976, 37560, 38214, 38318, 38136, 37579, 38068, 38142, 37994, 38142, 38076, 38040, 38142, 38365, 38330, 38037, 38175, 38271, 38003, 37953, 37736, 37863, 38231, 38178, 37710, 37959, 37724, 38292, 38441, 38619, 38068, 38660, 37839, 37596, 38048, 37867, 38319, 38046, 38081, 37909, 37854, 37990, 38279, 38178, 38309, 38636, 38176, 37954, 38269, 38125, 37939, 38277],
      "WindowCenter": [9919.0, 9874.0, 9851.0, 9828.0, 9833.0, 9833.0, 9835.0, 9843.0, 9843.0, 9844.0, 9836.0, 9834.0, 9832.0, 9825.0, 9831.0, 9838.0, 9847.0, 9842.0, 9840.0, 9838.0, 9826.0, 9823.0, 9813.0, 9807.0, 9819.0, 9810.0, 9823.0, 9825.0, 9818.0, 9815.0, 9807.0, 9819.0, 9812.0, 9822.0, 9831.0, 9832.0, 9818.0, 9807.0, 9805.0, 9810.0, 9814.0, 9828.0, 9823.0, 9824.0, 9823.0, 9815.0, 9808.0, 9812.0, 9814.0, 9823.0, 9822.0, 9815.0, 9806.0, 9806.0, 9819.0, 9823.0, 9831.0, 9832.0, 9835.0, 9839.0, 9834.0, 9832.0, 9819.0, 9826.0, 9825.0, 9818.0, 9824.0, 9825.0, 9826.0, 9818.0, 9817.0, 9817.0, 9824.0, 9831.0, 9821.0, 9824.0, 9816.0, 9814.0, 9815.0, 9830.0, 9837.0, 9837.0, 9821.0, 9807.0, 9799.0, 9820.0, 9830.0, 9834.0, 9826.0, 9812.0, 9808.0, 9813.0, 9823.0, 9834.0, 9832.0, 9818.0, 9817.0, 9832.0, 9839.0, 9833.0, 9815.0, 9801.0, 9822.0, 9834.0, 9839.0, 9832.0, 9826.0, 9811.0, 9813.0, 9807.0, 9823.0, 9837.0, 9843.0, 9823.0, 9817.0, 9801.0, 9808.0, 9820.0, 9818.0, 9818.0, 9816.0, 9804.0, 9809.0, 9815.0, 9804.0, 9807.0, 9799.0, 9806.0, 9822.0, 9817.0, 9819.0, 9831.0, 9822.0, 9822.0, 9818.0, 9810.0, 9814.0, 9803.0, 9816.0, 9826.0, 9835.0, 9827.0, 9810.0, 9809.0, 9801.0, 9815.0, 9826.0, 9827.0, 9819.0, 9816.0, 9811.0, 9802.0, 9809.0, 9818.0, 9819.0, 9820.0, 9811.0, 9808.0, 9808.0, 9808.0, 9808.0, 9800.0, 9798.0, 9803.0, 9797.0, 9799.0, 9805.0, 9808.0, 9809.0, 9801.0, 9801.0, 9809.0, 9817.0, 9827.0, 9829.0, 9821.0, 9801.0, 9797.0, 9796.0, 9814.0, 9833.0, 9835.0, 9821.0, 9803.0, 9793.0, 9797.0, 9806.0, 9816.0, 9827.0, 9821.0, 9816.0, 9808.0, 9813.0, 9814.0, 9814.0, 9815.0, 9826.0, 9835.0, 9830.0, 9828.0, 9827.0, 9819.0],
      "WindowWidth": [21017.0, 20899.0, 20834.0, 20784.0, 20788.0, 20788.0, 20793.0, 20810.0, 20808.0, 20808.0, 20793.0, 20784.0, 20779.0, 20767.0, 20778.0, 20793.0, 20812.0, 20804.0, 20799.0, 20793.0, 20769.0, 20762.0, 20738.0, 20728.0, 20749.0, 20736.0, 20761.0, 20767.0, 20752.0, 20743.0, 20727.0, 20746.0, 20735.0, 20758.0, 20778.0, 20780.0, 20751.0, 20725.0, 20721.0, 20730.0, 20742.0, 20769.0, 20760.0, 20763.0, 20761.0, 20744.0, 20728.0, 20734.0, 20742.0, 20760.0, 20756.0, 20741.0, 20720.0, 20723.0, 20748.0, 20762.0, 20777.0, 20783.0, 20791.0, 20795.0, 20789.0, 20782.0, 20757.0, 20769.0, 20766.0, 20754.0, 20763.0, 20767.0, 20769.0, 20751.0, 20747.0, 20747.0, 20764.0, 20777.0, 20761.0, 20765.0, 20746.0, 20741.0, 20745.0, 20777.0, 20796.0, 20795.0, 20760.0, 20724.0, 20707.0, 20751.0, 20776.0, 20788.0, 20770.0, 20740.0, 20727.0, 20737.0, 20760.0, 20785.0, 20778.0, 20749.0, 20746.0, 20777.0, 20792.0, 20781.0, 20740.0, 20712.0, 20754.0, 20785.0, 20802.0, 20786.0, 20768.0, 20738.0, 20736.0, 20727.0, 20760.0, 20798.0, 20807.0, 20767.0, 20747.0, 20713.0, 20729.0, 20753.0, 20752.0, 20752.0, 20743.0, 20720.0, 20729.0, 20740.0, 20722.0, 20724.0, 20708.0, 20723.0, 20757.0, 20747.0, 20753.0, 20777.0, 20762.0, 20761.0, 20751.0, 20734.0, 20739.0, 20719.0, 20746.0, 20768.0, 20786.0, 20769.0, 20731.0, 20726.0, 20713.0, 20741.0, 20767.0, 20771.0, 20751.0, 20743.0, 20735.0, 20716.0, 20728.0, 20749.0, 20755.0, 20755.0, 20738.0, 20727.0, 20726.0, 20727.0, 20729.0, 20709.0, 20702.0, 20712.0, 20700.0, 20706.0, 20720.0, 20728.0, 20731.0, 20711.0, 20713.0, 20730.0, 20750.0, 20771.0, 20775.0, 20756.0, 20711.0, 20698.0, 20697.0, 20738.0, 20783.0, 20788.0, 20756.0, 20714.0, 20690.0, 20698.0, 20720.0, 20745.0, 20769.0, 20755.0, 20739.0, 20721.0, 20732.0, 20736.0, 20734.0, 20737.0, 20766.0, 20785.0, 20778.0, 20771.0, 20767.0, 20751.0]
    },
    "slices": {}
  }
}