{
  "AcquisitionMatrixPE": 104,
  "AcquisitionNumber": 1,
  "AcquisitionTime": "16:40:37.830000",
  "BandwidthPerPixelPhaseEncode": 17.17,
  "BaseResolution": 104,
  "BodyPartExamined": "BRAIN",
  "CoilString": "HC1-7;NC1_2",
  "ConsistencyInfo": "N4_VE11C_LATEST_20160120",
  "ConversionSoftware": "dcm2niix",
  "ConversionSoftwareVersion": "v1.0.20190720  (JP2:OpenJPEG) GCC7.3.0",
  "DerivedVendorReportedEchoSpacing": 0.000560011,
  "DeviceSerialNumber": "167006",
  "DwellTime": 2.1e-06,
  "EchoTime": 0.037,
  "EchoTrainLength": 104,
  "EffectiveEchoSpacing": 0.000560011,
  "FlipAngle": 52,
  "ImageComments": "Unaliased_MB4_PE3_LB",
  "ImageOrientationPatientDICOM": [0.999722, -0.0234785, -0.0022033, 0.0211158, 0.932864, -0.359609],
  "ImageType": [
    "ORIGINAL",
    "PRIMARY",
    "M",
    "MB",
    "ND",
    "MOSAIC"
],
  "ImagingFrequency": 123.26,
  "InPlanePhaseEncodingDirectionDICOM": "COL",
  "InstitutionAddress": "Chemin_Queen-Mary_4565_Montreal_District_CA_H3W_1W5",
  "InstitutionName": "IUGM",
  "InstitutionalDepartmentName": "Department",
  "MRAcquisitionType": "2D",
  "MagneticFieldStrength": 3,
  "Manufacturer": "Siemens",
  "ManufacturersModelName": "Prisma_fit",
  "Modality": "MR",
  "MultibandAccelerationFactor": 4,
  "PartialFourier": 1,
  "PatientPosition": "HFS",
  "PercentPhaseFOV": 100,
  "PhaseEncodingDirection": "j",
  "PhaseEncodingSteps": 104,
  "PhaseResolution": 1,
  "PixelBandwidth": 2290,
  "ProcedureStepDescription": "hcptrt_generic",
  "ProtocolName": "func_task-motor_run-1",
  "PulseSequenceDetails": "%CustomerSeq%_cmrr_mbep2d_bold",
  "ReceiveCoilActiveElements": "HC1-7;NC1,2",
  "ReceiveCoilName": "HeadNeck_64",
  "ReconMatrixPE": 104,
  "RepetitionTime": 1.49,
  "SAR": 0.029953,
  "ScanOptions": "FS",
  "ScanningSequence": "EP",
  "SequenceName": "epfid2d1_104",
  "SequenceVariant": "SK_SS",
  "SeriesDescription": "func_task-motor_run-1",
  "SeriesNumber": 13,
  "ShimSetting": [620, -7151, -8817, 647, 11, 169, 3, -4],
  "SliceThickness": 2,
  "SliceTiming": [0, 0.785, 0.1, 0.8825, 0.1975, 0.98, 0.295, 1.0775, 0.3925, 1.1775, 0.49, 1.275, 0.59, 1.3725, 0.6875, 0, 0.785, 0.1, 0.8825, 0.1975, 0.98, 0.295, 1.0775, 0.3925, 1.1775, 0.49, 1.275, 0.59, 1.3725, 0.6875, 0, 0.785, 0.1, 0.8825, 0.1975, 0.98, 0.295, 1.0775, 0.3925, 1.1775, 0.49, 1.275, 0.59, 1.3725, 0.6875, 0, 0.785, 0.1, 0.8825, 0.1975, 0.98, 0.295, 1.0775, 0.3925, 1.1775, 0.49, 1.275, 0.59, 1.3725, 0.6875],
  "SoftwareVersions": "syngo_MR_E11",
  "SpacingBetweenSlices": 2,
  "StationName": "MRC35049",
  "TaskName": "motor",
  "TotalReadoutTime": 0.0576811,
  "TxRefAmp": 210.481,
  "WipMemBlock": "54edb784-0647-45b7-b15b-39ebfbeeceed||Sequence: R016 ve11c/master r/e634e98; Dec 19 2017 11:00:25 by eja",
  "dcmmeta_affine": [
    [-1.9994438886642456, 0.04223150759935379, -0.02099691331386566, 104.8130111694336],
    [0.04695691913366318, 1.8657280206680298, -0.7189256548881531, -68.64818572998047],
    [-0.004406606778502464, 0.7192186713218689, 1.8662008047103882, -68.59354400634766],
    [0.0, 0.0, 0.0, 1.0]
],
  "dcmmeta_reorient_transform": [
    [0.0, -1.0, 0.0, 103.0],
    [1.0, 0.0, 0.0, 0.0],
    [0.0, 0.0, 1.0, 0.0],
    [0.0, 0.0, 0.0, 1.0]
],
  "dcmmeta_shape": [104, 104, 60, 144],
  "dcmmeta_slice_dim": 2,
  "dcmmeta_version": 0.6,
  "global": {
    "const": {
      "AcquisitionMatrix": [104, 0, 0, 104],
      "AngioFlag": "N",
      "BitsAllocated": 16,
      "BitsStored": 16,
      "BodyPartExamined": "BRAIN",
      "Columns": 832,
      "EchoNumbers": 1,
      "EchoTime": 37.0,
      "EchoTrainLength": 104,
      "FlipAngle": 52.0,
      "HighBit": 15,
      "ImageOrientationPatient": [0.99972191500936, -0.0234784604201, -0.002203303501, 0.02111575400093, 0.9328640020047, -0.3596093417818],
      "ImagePositionPatient": [-852.33267888446, -785.55447219749, 268.88558471198],
      "ImageType": [
        "ORIGINAL",
        "PRIMARY",
        "M",
        "MB",
        "ND",
        "MOSAIC"
],
      "ImagedNucleus": "1H",
      "ImagingFrequency": 123.259595,
      "InPlanePhaseEncodingDirection": "COL",
      "MRAcquisitionType": "2D",
      "MagneticFieldStrength": 3.0,
      "Manufacturer": "SIEMENS",
      "ManufacturerModelName": "Prisma_fit",
      "Modality": "MR",
      "NumberOfAverages": 1.0,
      "NumberOfPhaseEncodingSteps": 104,
      "PercentPhaseFieldOfView": 100.0,
      "PercentSampling": 100.0,
      "PerformedProcedureStepStartTime": "161017.594000",
      "PhotometricInterpretation": "MONOCHROME2",
      "PixelBandwidth": 2290.0,
      "PixelRepresentation": 0,
      "PixelSpacing": [2.0, 2.0],
      "ProtocolName": "func_task-motor_run-1",
      "RepetitionTime": 1490.0,
      "Rows": 832,
      "SAR": 0.02995303233913,
      "SamplesPerPixel": 1,
      "ScanOptions": "FS",
      "ScanningSequence": "EP",
      "SequenceName": "epfid2d1_104",
      "SequenceVariant": [
        "SK",
        "SS"
],
      "SeriesDescription": "func_task-motor_run-1",
      "SeriesNumber": 13,
      "SeriesTime": "164152.735000",
      "SliceLocation": -40.428565823459,
      "SliceThickness": 2.0,
      "SmallestImagePixelValue": 0,
      "SoftwareVersions": "syngo MR E11",
      "SpacingBetweenSlices": 2.0000000797543,
      "SpecificCharacterSet": "ISO_IR 100",
      "StudyID": "2",
      "StudyTime": "161017.527000",
      "TransmitCoilName": "Body",
      "VariableFlipAngleFlag": "N",
      "WindowCenterWidthExplanation": "Algo1",
      "dBdt": 0.0},
    "slices": {}
  },
  "time": {
    "samples": {
      "AcquisitionNumber": [1, 2, 3, 4, 5, 6, 7, 8, 9, 10, 11, 12, 13, 14, 15, 16, 17, 18, 19, 20, 21, 22, 23, 24, 25, 26, 27, 28, 29, 30, 31, 32, 33, 34, 35, 36, 37, 38, 39, 40, 41, 42, 43, 44, 45, 46, 47, 48, 49, 50, 51, 52, 53, 54, 55, 56, 57, 58, 59, 60, 61, 62, 63, 64, 65, 66, 67, 68, 69, 70, 71, 72, 73, 74, 75, 76, 77, 78, 79, 80, 81, 82, 83, 84, 85, 86, 87, 88, 89, 90, 91, 92, 93, 94, 95, 96, 97, 98, 99, 100, 101, 102, 103, 104, 105, 106, 107, 108, 109, 110, 111, 112, 113, 114, 115, 116, 117, 118, 119, 120, 121, 122, 123, 124, 125, 126, 127, 128, 129, 130, 131, 132, 133, 134, 135, 136, 137, 138, 139, 140, 141, 142, 143, 144],
      "AcquisitionTime": ["164037.830000", "164039.320000", "164040.810000", "164042.300000", "164043.790000", "164045.280000", "164046.770000", "164048.260000", "164049.750000", "164051.240000", "164052.730000", "164054.220000", "164055.710000", "164057.200000", "164058.690000", "164100.180000", "164101.670000", "164103.160000", "164104.650000", "164106.140000", "164107.630000", "164109.120000", "164110.610000", "164112.100000", "164113.590000", "164115.080000", "164116.570000", "164118.060000", "164119.550000", "164121.040000", "164122.530000", "164124.020000", "164125.510000", "164127.000000", "164128.490000", "164129.980000", "164131.470000", "164132.960000", "164134.450000", "164135.940000", "164137.430000", "164138.920000", "164140.410000", "164141.900000", "164143.390000", "164144.880000", "164146.370000", "164147.860000", "164149.350000", "164150.840000", "164152.330000", "164153.820000", "164155.310000", "164156.800000", "164158.290000", "164159.780000", "164201.270000", "164202.760000", "164204.250000", "164205.740000", "164207.230000", "164208.720000", "164210.210000", "164211.700000", "164213.190000", "164214.680000", "164216.170000", "164217.660000", "164219.150000", "164220.640000", "164222.130000", "164223.620000", "164225.110000", "164226.600000", "164228.090000", "164229.580000", "164231.070000", "164232.560000", "164234.050000", "164235.540000", "164237.030000", "164238.520000", "164240.010000", "164241.500000", "164242.990000", "164244.480000", "164245.970000", "164247.460000", "164248.950000", "164250.440000", "164251.930000", "164253.420000", "164254.910000", "164256.400000", "164257.890000", "164259.380000", "164300.870000", "164302.360000", "164303.850000", "164305.340000", "164306.830000", "164308.320000", "164309.810000", "164311.300000", "164312.790000", "164314.280000", "164315.770000", "164317.260000", "164318.750000", "164320.240000", "164321.730000", "164323.220000", "164324.710000", "164326.200000", "164327.690000", "164329.180000", "164330.670000", "164332.160000", "164333.650000", "164335.140000", "164336.630000", "164338.120000", "164339.610000", "164341.100000", "164342.590000", "164344.080000", "164345.570000", "164347.060000", "164348.550000", "164350.040000", "164351.530000", "164353.020000", "164354.510000", "164356.000000", "164357.490000", "164358.980000", "164400.470000", "164401.960000", "164403.450000", "164404.940000", "164406.430000", "164407.920000", "164409.410000", "164410.900000"],
      "ContentTime": ["164152.738000", "164152.748000", "164152.751000", "164152.754000", "164152.757000", "164152.760000", "164152.763000", "164152.766000", "164152.769000", "164152.772000", "164152.775000", "164152.778000", "164152.781000", "164152.783000", "164152.786000", "164152.789000", "164152.798000", "164152.801000", "164152.803000", "164152.806000", "164152.809000", "164212.700000", "164212.703000", "164212.706000", "164212.709000", "164212.712000", "164212.715000", "164212.718000", "164212.721000", "164212.723000", "164212.736000", "164212.738000", "164212.741000", "164212.744000", "164212.747000", "164212.750000", "164212.753000", "164212.756000", "164212.759000", "164212.762000", "164212.765000", "164212.768000", "164232.700000", "164232.703000", "164232.706000", "164232.709000", "164232.712000", "164232.715000", "164232.717000", "164232.720000", "164232.723000", "164232.726000", "164232.729000", "164232.732000", "164232.735000", "164232.738000", "164232.741000", "164232.744000", "164232.747000", "164232.750000", "164232.755000", "164232.758000", "164252.699000", "164252.702000", "164252.705000", "164252.708000", "164252.711000", "164252.714000", "164252.717000", "164252.720000", "164252.723000", "164252.725000", "164252.728000", "164252.731000", "164252.734000", "164252.737000", "164252.740000", "164252.743000", "164252.746000", "164252.749000", "164252.752000", "164252.755000", "164312.699000", "164312.702000", "164312.705000", "164312.708000", "164312.711000", "164312.714000", "164312.717000", "164312.720000", "164312.722000", "164312.725000", "164312.728000", "164312.731000", "164312.734000", "164312.737000", "164312.740000", "164312.743000", "164312.746000", "164312.749000", "164312.752000", "164312.754000", "164312.757000", "164352.700000", "164352.703000", "164352.706000", "164352.709000", "164352.712000", "164352.715000", "164352.718000", "164352.721000", "164352.724000", "164352.727000", "164352.730000", "164352.750000", "164352.752000", "164352.755000", "164352.758000", "164352.761000", "164352.764000", "164352.767000", "164352.770000", "164352.773000", "164352.776000", "164352.779000", "164352.781000", "164352.784000", "164352.787000", "164352.790000", "164352.793000", "164413.103000", "164413.106000", "164413.109000", "164413.112000", "164413.115000", "164413.118000", "164413.121000", "164413.124000", "164413.127000", "164413.130000", "164413.133000", "164413.136000", "164413.139000", "164413.142000"],
      "InstanceCreationTime": ["164152.738000", "164152.748000", "164152.751000", "164152.754000", "164152.757000", "164152.760000", "164152.763000", "164152.766000", "164152.769000", "164152.772000", "164152.775000", "164152.778000", "164152.781000", "164152.783000", "164152.786000", "164152.789000", "164152.798000", "164152.801000", "164152.803000", "164152.806000", "164152.809000", "164212.700000", "164212.703000", "164212.706000", "164212.709000", "164212.712000", "164212.715000", "164212.718000", "164212.721000", "164212.723000", "164212.736000", "164212.738000", "164212.741000", "164212.744000", "164212.747000", "164212.750000", "164212.753000", "164212.756000", "164212.759000", "164212.762000", "164212.765000", "164212.768000", "164232.700000", "164232.703000", "164232.706000", "164232.709000", "164232.712000", "164232.715000", "164232.717000", "164232.720000", "164232.723000", "164232.726000", "164232.729000", "164232.732000", "164232.735000", "164232.738000", "164232.741000", "164232.744000", "164232.747000", "164232.750000", "164232.755000", "164232.758000", "164252.699000", "164252.702000", "164252.705000", "164252.708000", "164252.711000", "164252.714000", "164252.717000", "164252.720000", "164252.723000", "164252.725000", "164252.728000", "164252.731000", "164252.734000", "164252.737000", "164252.740000", "164252.743000", "164252.746000", "164252.749000", "164252.752000", "164252.755000", "164312.699000", "164312.702000", "164312.705000", "164312.708000", "164312.711000", "164312.714000", "164312.717000", "164312.720000", "164312.722000", "164312.725000", "164312.728000", "164312.731000", "164312.734000", "164312.737000", "164312.740000", "164312.743000", "164312.746000", "164312.749000", "164312.752000", "164312.754000", "164312.757000", "164352.700000", "164352.703000", "164352.706000", "164352.709000", "164352.712000", "164352.715000", "164352.718000", "164352.721000", "164352.724000", "164352.727000", "164352.730000", "164352.750000", "164352.752000", "164352.755000", "164352.758000", "164352.761000", "164352.764000", "164352.767000", "164352.770000", "164352.773000", "164352.776000", "164352.779000", "164352.781000", "164352.784000", "164352.787000", "164352.790000", "164352.793000", "164413.103000", "164413.106000", "164413.109000", "164413.112000", "164413.115000", "164413.118000", "164413.121000", "164413.124000", "164413.127000", "164413.130000", "164413.133000", "164413.136000", "164413.139000", "164413.142000"],
      "InstanceNumber": [1, 2, 3, 4, 5, 6, 7, 8, 9, 10, 11, 12, 13, 14, 15, 16, 17, 18, 19, 20, 21, 22, 23, 24, 25, 26, 27, 28, 29, 30, 31, 32, 33, 34, 35, 36, 37, 38, 39, 40, 41, 42, 43, 44, 45, 46, 47, 48, 49, 50, 51, 52, 53, 54, 55, 56, 57, 58, 59, 60, 61, 62, 63, 64, 65, 66, 67, 68, 69, 70, 71, 72, 73, 74, 75, 76, 77, 78, 79, 80, 81, 82, 83, 84, 85, 86, 87, 88, 89, 90, 91, 92, 93, 94, 95, 96, 97, 98, 99, 100, 101, 102, 103, 104, 105, 106, 107, 108, 109, 110, 111, 112, 113, 114, 115, 116, 117, 118, 119, 120, 121, 122, 123, 124, 125, 126, 127, 128, 129, 130, 131, 132, 133, 134, 135, 136, 137, 138, 139, 140, 141, 142, 143, 144],
      "LargestImagePixelValue": [40481, 40169, 39611, 39257, 39375, 38893, 39261, 39224, 38858, 38913, 39132, 39031, 38821, 38965, 38963, 39262, 39117, 39177, 39273, 39239, 39241, 38950, 39173, 38855, 38982, 38689, 39058, 38807, 39240, 39415, 38790, 38174, 37960, 38355, 38163, 38940, 38758, 38907, 39046, 38614, 38419, 38564, 38946, 38424, 38726, 38334, 38733, 38970, 38635, 38600, 38864, 38823, 38911, 38809, 38524, 38856, 38731, 38732, 38820, 38823, 38562, 38771, 38839, 39514, 39348, 39175, 38349, 38733, 38547, 38427, 38010, 38426, 38602, 38448, 38801, 38422, 38568, 38154, 38333, 38573, 38419, 38437, 38446, 38484, 38234, 38233, 37941, 38676, 38499, 38371, 38201, 38289, 38327, 37780, 38217, 38221, 38033, 38508, 37951, 38615, 38276, 38060, 38136, 38040, 38377, 38371, 38786, 38172, 37499, 38197, 38260, 38254, 38444, 38415, 38763, 38444, 38460, 38247, 38353, 38348, 38373, 38492, 38641, 37958, 37864, 38214, 38397, 38408, 39074, 38682, 38651, 38242, 38540, 38511, 37906, 38259, 38183, 38591, 38555, 38887, 39072, 38364, 38297, 38671],
      "WindowCenter": [9944.0, 9903.0, 9879.0, 9870.0, 9860.0, 9845.0, 9833.0, 9830.0, 9818.0, 9829.0, 9830.0, 9833.0, 9826.0, 9831.0, 9817.0, 9813.0, 9819.0, 9823.0, 9837.0, 9831.0, 9838.0, 9848.0, 9850.0, 9852.0, 9849.0, 9832.0, 9821.0, 9816.0, 9830.0, 9845.0, 9856.0, 9854.0, 9846.0, 9827.0, 9817.0, 9822.0, 9829.0, 9839.0, 9848.0, 9852.0, 9846.0, 9852.0, 9842.0, 9820.0, 9818.0, 9826.0, 9841.0, 9842.0, 9835.0, 9830.0, 9824.0, 9834.0, 9849.0, 9841.0, 9826.0, 9809.0, 9812.0, 9822.0, 9842.0, 9852.0, 9844.0, 9833.0, 9833.0, 9833.0, 9840.0, 9833.0, 9828.0, 9832.0, 9835.0, 9847.0, 9859.0, 9842.0, 9826.0, 9802.0, 9806.0, 9815.0, 9827.0, 9828.0, 9821.0, 9809.0, 9807.0, 9815.0, 9824.0, 9835.0, 9830.0, 9822.0, 9821.0, 9825.0, 9818.0, 9809.0, 9807.0, 9817.0, 9834.0, 9829.0, 9828.0, 9820.0, 9824.0, 9819.0, 9814.0, 9835.0, 9835.0, 9828.0, 9804.0, 9799.0, 9808.0, 9825.0, 9842.0, 9831.0, 9817.0, 9821.0, 9818.0, 9816.0, 9818.0, 9824.0, 9826.0, 9824.0, 9821.0, 9827.0, 9818.0, 9826.0, 9825.0, 9833.0, 9853.0, 9855.0, 9831.0, 9818.0, 9816.0, 9817.0, 9831.0, 9833.0, 9826.0, 9825.0, 9828.0, 9827.0, 9814.0, 9811.0, 9809.0, 9815.0, 9817.0, 9817.0, 9829.0, 9825.0, 9833.0, 9826.0],
      "WindowWidth": [21085.0, 20967.0, 20905.0, 20878.0, 20849.0, 20817.0, 20790.0, 20778.0, 20757.0, 20775.0, 20780.0, 20786.0, 20774.0, 20780.0, 20753.0, 20739.0, 20752.0, 20765.0, 20794.0, 20779.0, 20793.0, 20819.0, 20825.0, 20829.0, 20820.0, 20783.0, 20758.0, 20750.0, 20779.0, 20811.0, 20837.0, 20835.0, 20819.0, 20774.0, 20752.0, 20760.0, 20777.0, 20801.0, 20821.0, 20831.0, 20820.0, 20830.0, 20805.0, 20762.0, 20756.0, 20775.0, 20807.0, 20810.0, 20793.0, 20778.0, 20764.0, 20789.0, 20823.0, 20806.0, 20773.0, 20734.0, 20738.0, 20762.0, 20809.0, 20831.0, 20810.0, 20782.0, 20783.0, 20784.0, 20798.0, 20789.0, 20780.0, 20785.0, 20795.0, 20824.0, 20852.0, 20809.0, 20767.0, 20717.0, 20723.0, 20746.0, 20777.0, 20780.0, 20766.0, 20737.0, 20730.0, 20750.0, 20768.0, 20795.0, 20784.0, 20766.0, 20762.0, 20769.0, 20756.0, 20735.0, 20730.0, 20753.0, 20789.0, 20782.0, 20777.0, 20760.0, 20768.0, 20759.0, 20752.0, 20796.0, 20793.0, 20778.0, 20725.0, 20713.0, 20734.0, 20772.0, 20808.0, 20791.0, 20763.0, 20768.0, 20755.0, 20751.0, 20755.0, 20767.0, 20772.0, 20768.0, 20763.0, 20775.0, 20757.0, 20771.0, 20771.0, 20789.0, 20834.0, 20840.0, 20785.0, 20752.0, 20747.0, 20753.0, 20784.0, 20788.0, 20773.0, 20770.0, 20777.0, 20777.0, 20750.0, 20740.0, 20734.0, 20743.0, 20753.0, 20755.0, 20777.0, 20771.0, 20785.0, 20772.0]
    },
    "slices": {}
  }
}