{
  "AcquisitionMatrixPE": 104,
  "AcquisitionNumber": 1,
  "AcquisitionTime": "16:30:38.885000",
  "BandwidthPerPixelPhaseEncode": 17.17,
  "BaseResolution": 104,
  "BodyPartExamined": "BRAIN",
  "CoilString": "HC1-7;NC1_2",
  "ConsistencyInfo": "N4_VE11C_LATEST_20160120",
  "ConversionSoftware": "dcm2niix",
  "ConversionSoftwareVersion": "v1.0.20190720  (JP2:OpenJPEG) GCC7.3.0",
  "DerivedVendorReportedEchoSpacing": 0.000560011,
  "DeviceSerialNumber": "167006",
  "DwellTime": 2.1e-06,
  "EchoTime": 0.037,
  "EchoTrainLength": 104,
  "EffectiveEchoSpacing": 0.000560011,
  "FlipAngle": 52,
  "ImageComments": "Unaliased_MB4_PE3_LB",
  "ImageOrientationPatientDICOM": [0.999722, -0.0234785, -0.0022033, 0.0211158, 0.932864, -0.359609],
  "ImageType": [
    "ORIGINAL",
    "PRIMARY",
    "M",
    "MB",
    "ND",
    "MOSAIC"
],
  "ImagingFrequency": 123.26,
  "InPlanePhaseEncodingDirectionDICOM": "COL",
  "InstitutionAddress": "Chemin_Queen-Mary_4565_Montreal_District_CA_H3W_1W5",
  "InstitutionName": "IUGM",
  "InstitutionalDepartmentName": "Department",
  "MRAcquisitionType": "2D",
  "MagneticFieldStrength": 3,
  "Manufacturer": "Siemens",
  "ManufacturersModelName": "Prisma_fit",
  "Modality": "MR",
  "MultibandAccelerationFactor": 4,
  "PartialFourier": 1,
  "PatientPosition": "HFS",
  "PercentPhaseFOV": 100,
  "PhaseEncodingDirection": "j",
  "PhaseEncodingSteps": 104,
  "PhaseResolution": 1,
  "PixelBandwidth": 2290,
  "ProcedureStepDescription": "hcptrt_generic",
  "ProtocolName": "func_task-gambling_run-1",
  "PulseSequenceDetails": "%CustomerSeq%_cmrr_mbep2d_bold",
  "ReceiveCoilActiveElements": "HC1-7;NC1,2",
  "ReceiveCoilName": "HeadNeck_64",
  "ReconMatrixPE": 104,
  "RepetitionTime": 1.49,
  "SAR": 0.0299081,
  "ScanOptions": "FS",
  "ScanningSequence": "EP",
  "SequenceName": "epfid2d1_104",
  "SequenceVariant": "SK_SS",
  "SeriesDescription": "func_task-gambling_run-1",
  "SeriesNumber": 9,
  "ShimSetting": [620, -7151, -8817, 647, 11, 169, 3, -4],
  "SliceThickness": 2,
  "SliceTiming": [0, 0.7825, 0.0975, 0.88, 0.195, 0.98, 0.2925, 1.0775, 0.39, 1.175, 0.49, 1.2725, 0.5875, 1.37, 0.685, 0, 0.7825, 0.0975, 0.88, 0.195, 0.98, 0.2925, 1.0775, 0.39, 1.175, 0.49, 1.2725, 0.5875, 1.37, 0.685, 0, 0.7825, 0.0975, 0.88, 0.195, 0.98, 0.2925, 1.0775, 0.39, 1.175, 0.49, 1.2725, 0.5875, 1.37, 0.685, 0, 0.7825, 0.0975, 0.88, 0.195, 0.98, 0.2925, 1.0775, 0.39, 1.175, 0.49, 1.2725, 0.5875, 1.37, 0.685],
  "SoftwareVersions": "syngo_MR_E11",
  "SpacingBetweenSlices": 2,
  "StationName": "MRC35049",
  "TaskName": "gambling",
  "TotalReadoutTime": 0.0576811,
  "TxRefAmp": 210.481,
  "WipMemBlock": "77db0511-efec-4a6d-8791-79a48c369843||Sequence: R016 ve11c/master r/e634e98; Dec 19 2017 11:00:25 by eja",
  "dcmmeta_affine": [
    [-1.9994438886642456, 0.04223150759935379, -0.02099691331386566, 104.8130111694336],
    [0.04695691913366318, 1.8657280206680298, -0.7189256548881531, -68.64818572998047],
    [-0.004406606778502464, 0.7192186713218689, 1.8662008047103882, -68.59354400634766],
    [0.0, 0.0, 0.0, 1.0]
],
  "dcmmeta_reorient_transform": [
    [0.0, -1.0, 0.0, 103.0],
    [1.0, 0.0, 0.0, 0.0],
    [0.0, 0.0, 1.0, 0.0],
    [0.0, 0.0, 0.0, 1.0]
],
  "dcmmeta_shape": [104, 104, 60, 129],
  "dcmmeta_slice_dim": 2,
  "dcmmeta_version": 0.6,
  "global": {
    "const": {
      "AcquisitionMatrix": [104, 0, 0, 104],
      "AngioFlag": "N",
      "BitsAllocated": 16,
      "BitsStored": 16,
      "BodyPartExamined": "BRAIN",
      "Columns": 832,
      "EchoNumbers": 1,
      "EchoTime": 37.0,
      "EchoTrainLength": 104,
      "FlipAngle": 52.0,
      "HighBit": 15,
      "ImageOrientationPatient": [0.99972191500936, -0.0234784604201, -0.002203303501, 0.02111575400093, 0.9328640020047, -0.3596093417818],
      "ImagePositionPatient": [-852.33267888446, -785.55447219749, 268.88558471198],
      "ImageType": [
        "ORIGINAL",
        "PRIMARY",
        "M",
        "MB",
        "ND",
        "MOSAIC"
],
      "ImagedNucleus": "1H",
      "ImagingFrequency": 123.259593,
      "InPlanePhaseEncodingDirection": "COL",
      "MRAcquisitionType": "2D",
      "MagneticFieldStrength": 3.0,
      "Manufacturer": "SIEMENS",
      "ManufacturerModelName": "Prisma_fit",
      "Modality": "MR",
      "NumberOfAverages": 1.0,
      "NumberOfPhaseEncodingSteps": 104,
      "PercentPhaseFieldOfView": 100.0,
      "PercentSampling": 100.0,
      "PerformedProcedureStepStartTime": "161017.594000",
      "PhotometricInterpretation": "MONOCHROME2",
      "PixelBandwidth": 2290.0,
      "PixelRepresentation": 0,
      "PixelSpacing": [2.0, 2.0],
      "ProtocolName": "func_task-gambling_run-1",
      "RepetitionTime": 1490.0,
      "Rows": 832,
      "SAR": 0.0299080983816,
      "SamplesPerPixel": 1,
      "ScanOptions": "FS",
      "ScanningSequence": "EP",
      "SequenceName": "epfid2d1_104",
      "SequenceVariant": [
        "SK",
        "SS"
],
      "SeriesDescription": "func_task-gambling_run-1",
      "SeriesNumber": 9,
      "SeriesTime": "163206.513000",
      "SliceLocation": -40.428565823459,
      "SliceThickness": 2.0,
      "SmallestImagePixelValue": 0,
      "SoftwareVersions": "syngo MR E11",
      "SpacingBetweenSlices": 2.0000000797543,
      "SpecificCharacterSet": "ISO_IR 100",
      "StudyID": "2",
      "StudyTime": "161017.527000",
      "TransmitCoilName": "Body",
      "VariableFlipAngleFlag": "N",
      "WindowCenterWidthExplanation": "Algo1",
      "dBdt": 0.0},
    "slices": {}
  },
  "time": {
    "samples": {
      "AcquisitionNumber": [1, 2, 3, 4, 5, 6, 7, 8, 9, 10, 11, 12, 13, 14, 15, 16, 17, 18, 19, 20, 21, 22, 23, 24, 25, 26, 27, 28, 29, 30, 31, 32, 33, 34, 35, 36, 37, 38, 39, 40, 41, 42, 43, 44, 45, 46, 47, 48, 49, 50, 51, 52, 53, 54, 55, 56, 57, 58, 59, 60, 61, 62, 63, 64, 65, 66, 67, 68, 69, 70, 71, 72, 73, 74, 75, 76, 77, 78, 79, 80, 81, 82, 83, 84, 85, 86, 87, 88, 89, 90, 91, 92, 93, 94, 95, 96, 97, 98, 99, 100, 101, 102, 103, 104, 105, 106, 107, 108, 109, 110, 111, 112, 113, 114, 115, 116, 117, 118, 119, 120, 121, 122, 123, 124, 125, 126, 127, 128, 129],
      "AcquisitionTime": ["163038.885000", "163040.375000", "163041.865000", "163043.355000", "163044.845000", "163046.335000", "163047.825000", "163049.315000", "163050.805000", "163052.295000", "163053.785000", "163055.275000", "163056.765000", "163058.255000", "163059.745000", "163101.235000", "163102.725000", "163104.215000", "163105.705000", "163107.195000", "163108.685000", "163110.175000", "163111.665000", "163113.155000", "163114.645000", "163116.135000", "163117.625000", "163119.115000", "163120.605000", "163122.095000", "163123.585000", "163125.075000", "163126.565000", "163128.055000", "163129.545000", "163131.035000", "163132.525000", "163134.015000", "163135.505000", "163136.995000", "163138.485000", "163139.975000", "163141.465000", "163142.955000", "163144.445000", "163145.935000", "163147.425000", "163148.915000", "163150.405000", "163151.895000", "163153.385000", "163154.875000", "163156.365000", "163157.855000", "163159.345000", "163200.835000", "163202.325000", "163203.815000", "163205.305000", "163206.795000", "163208.285000", "163209.775000", "163211.265000", "163212.755000", "163214.245000", "163215.735000", "163217.225000", "163218.715000", "163220.205000", "163221.695000", "163223.185000", "163224.675000", "163226.165000", "163227.655000", "163229.145000", "163230.635000", "163232.125000", "163233.615000", "163235.105000", "163236.595000", "163238.085000", "163239.575000", "163241.065000", "163242.555000", "163244.045000", "163245.535000", "163247.025000", "163248.515000", "163250.005000", "163251.495000", "163252.985000", "163254.475000", "163255.965000", "163257.455000", "163258.945000", "163300.435000", "163301.925000", "163303.415000", "163304.905000", "163306.395000", "163307.885000", "163309.375000", "163310.865000", "163312.355000", "163313.845000", "163315.335000", "163316.825000", "163318.315000", "163319.805000", "163321.295000", "163322.785000", "163324.275000", "163325.765000", "163327.255000", "163328.745000", "163330.235000", "163331.725000", "163333.215000", "163334.705000", "163336.195000", "163337.685000", "163339.175000", "163340.665000", "163342.155000", "163343.645000", "163345.135000", "163346.625000", "163348.115000", "163349.605000"],
      "ContentTime": ["163206.516000", "163206.520000", "163206.523000", "163206.526000", "163206.529000", "163206.532000", "163206.541000", "163206.543000", "163206.546000", "163206.549000", "163206.552000", "163206.555000", "163206.558000", "163206.561000", "163206.564000", "163206.567000", "163206.570000", "163206.573000", "163206.576000", "163206.579000", "163206.582000", "163206.584000", "163206.587000", "163206.590000", "163206.593000", "163206.596000", "163206.599000", "163206.602000", "163206.605000", "163206.608000", "163206.611000", "163206.614000", "163206.621000", "163206.624000", "163226.481000", "163226.488000", "163226.491000", "163226.494000", "163226.497000", "163226.500000", "163226.503000", "163226.506000", "163226.509000", "163226.512000", "163226.515000", "163226.518000", "163226.521000", "163226.523000", "163226.526000", "163226.529000", "163226.532000", "163226.535000", "163226.538000", "163226.541000", "163246.482000", "163246.485000", "163246.488000", "163246.491000", "163246.494000", "163246.497000", "163246.500000", "163246.503000", "163246.506000", "163246.509000", "163246.511000", "163246.514000", "163246.517000", "163246.520000", "163246.523000", "163246.526000", "163246.529000", "163246.532000", "163246.535000", "163246.538000", "163306.482000", "163306.485000", "163306.488000", "163306.491000", "163306.494000", "163306.497000", "163306.500000", "163306.502000", "163306.505000", "163306.508000", "163306.511000", "163306.514000", "163306.517000", "163306.520000", "163306.523000", "163306.526000", "163306.529000", "163306.532000", "163306.549000", "163306.552000", "163346.482000", "163346.485000", "163346.488000", "163346.491000", "163346.494000", "163346.497000", "163346.500000", "163346.503000", "163346.506000", "163346.508000", "163346.511000", "163346.514000", "163346.517000", "163346.520000", "163346.523000", "163346.526000", "163346.529000", "163346.532000", "163346.535000", "163346.538000", "163346.541000", "163346.544000", "163346.551000", "163346.554000", "163346.557000", "163346.560000", "163346.563000", "163346.566000", "163346.568000", "163346.571000", "163346.574000", "163352.159000", "163352.162000", "163352.165000", "163352.168000"],
      "InstanceCreationTime": ["163206.516000", "163206.520000", "163206.523000", "163206.526000", "163206.529000", "163206.532000", "163206.541000", "163206.543000", "163206.546000", "163206.549000", "163206.552000", "163206.555000", "163206.558000", "163206.561000", "163206.564000", "163206.567000", "163206.570000", "163206.573000", "163206.576000", "163206.579000", "163206.582000", "163206.584000", "163206.587000", "163206.590000", "163206.593000", "163206.596000", "163206.599000", "163206.602000", "163206.605000", "163206.608000", "163206.611000", "163206.614000", "163206.621000", "163206.624000", "163226.481000", "163226.488000", "163226.491000", "163226.494000", "163226.497000", "163226.500000", "163226.503000", "163226.506000", "163226.509000", "163226.512000", "163226.515000", "163226.518000", "163226.521000", "163226.523000", "163226.526000", "163226.529000", "163226.532000", "163226.535000", "163226.538000", "163226.541000", "163246.482000", "163246.485000", "163246.488000", "163246.491000", "163246.494000", "163246.497000", "163246.500000", "163246.503000", "163246.506000", "163246.509000", "163246.511000", "163246.514000", "163246.517000", "163246.520000", "163246.523000", "163246.526000", "163246.529000", "163246.532000", "163246.535000", "163246.538000", "163306.482000", "163306.485000", "163306.488000", "163306.491000", "163306.494000", "163306.497000", "163306.500000", "163306.502000", "163306.505000", "163306.508000", "163306.511000", "163306.514000", "163306.517000", "163306.520000", "163306.523000", "163306.526000", "163306.529000", "163306.532000", "163306.549000", "163306.552000", "163346.482000", "163346.485000", "163346.488000", "163346.491000", "163346.494000", "163346.497000", "163346.500000", "163346.503000", "163346.506000", "163346.508000", "163346.511000", "163346.514000", "163346.517000", "163346.520000", "163346.523000", "163346.526000", "163346.529000", "163346.532000", "163346.535000", "163346.538000", "163346.541000", "163346.544000", "163346.551000", "163346.554000", "163346.557000", "163346.560000", "163346.563000", "163346.566000", "163346.568000", "163346.571000", "163346.574000", "163352.159000", "163352.162000", "163352.165000", "163352.168000"],
      "InstanceNumber": [1, 2, 3, 4, 5, 6, 7, 8, 9, 10, 11, 12, 13, 14, 15, 16, 17, 18, 19, 20, 21, 22, 23, 24, 25, 26, 27, 28, 29, 30, 31, 32, 33, 34, 35, 36, 37, 38, 39, 40, 41, 42, 43, 44, 45, 46, 47, 48, 49, 50, 51, 52, 53, 54, 55, 56, 57, 58, 59, 60, 61, 62, 63, 64, 65, 66, 67, 68, 69, 70, 71, 72, 73, 74, 75, 76, 77, 78, 79, 80, 81, 82, 83, 84, 85, 86, 87, 88, 89, 90, 91, 92, 93, 94, 95, 96, 97, 98, 99, 100, 101, 102, 103, 104, 105, 106, 107, 108, 109, 110, 111, 112, 113, 114, 115, 116, 117, 118, 119, 120, 121, 122, 123, 124, 125, 126, 127, 128, 129],
      "LargestImagePixelValue": [42065, 40791, 40145, 40351, 39919, 40169, 39662, 39636, 39372, 39617, 39711, 39745, 39262, 39400, 39713, 39389, 39303, 38869, 39330, 38970, 39560, 39049, 39474, 39179, 39127, 39480, 39268, 39648, 39130, 39054, 39338, 39436, 39262, 38811, 39126, 39184, 39736, 39610, 39544, 39003, 39331, 39261, 39076, 38936, 38804, 39307, 39653, 39398, 39215, 39327, 39011, 39000, 39580, 38858, 39160, 39813, 39490, 39317, 39255, 39257, 38921, 39195, 39637, 39198, 39164, 39099, 38894, 39297, 39298, 38924, 39219, 39376, 39235, 39441, 39483, 39105, 39241, 39103, 39485, 39373, 39328, 39579, 39436, 39174, 39286, 39314, 39278, 39148, 39012, 39132, 39248, 39204, 39338, 39061, 39230, 39047, 39014, 39258, 38880, 39541, 39483, 39092, 39239, 39039, 38982, 39662, 39154, 38856, 39224, 39011, 38652, 39142, 39218, 39356, 39145, 39262, 39405, 39338, 38943, 38937, 39082, 38778, 39268, 39226, 39000, 39070, 39113, 38703, 38469],
      "WindowCenter": [9913.0, 9875.0, 9840.0, 9824.0, 9815.0, 9830.0, 9842.0, 9850.0, 9844.0, 9842.0, 9842.0, 9849.0, 9844.0, 9845.0, 9858.0, 9862.0, 9872.0, 9864.0, 9855.0, 9846.0, 9857.0, 9855.0, 9863.0, 9861.0, 9862.0, 9861.0, 9862.0, 9863.0, 9855.0, 9857.0, 9861.0, 9855.0, 9870.0, 9864.0, 9855.0, 9829.0, 9833.0, 9841.0, 9858.0, 9853.0, 9860.0, 9862.0, 9871.0, 9865.0, 9840.0, 9829.0, 9833.0, 9835.0, 9843.0, 9851.0, 9838.0, 9839.0, 9852.0, 9846.0, 9838.0, 9842.0, 9836.0, 9843.0, 9854.0, 9853.0, 9839.0, 9838.0, 9849.0, 9855.0, 9850.0, 9840.0, 9836.0, 9844.0, 9851.0, 9848.0, 9852.0, 9845.0, 9839.0, 9845.0, 9860.0, 9861.0, 9863.0, 9855.0, 9846.0, 9855.0, 9870.0, 9873.0, 9872.0, 9857.0, 9848.0, 9853.0, 9869.0, 9874.0, 9869.0, 9849.0, 9838.0, 9828.0, 9835.0, 9853.0, 9863.0, 9866.0, 9857.0, 9847.0, 9832.0, 9844.0, 9843.0, 9853.0, 9855.0, 9853.0, 9849.0, 9860.0, 9857.0, 9850.0, 9857.0, 9864.0, 9858.0, 9851.0, 9854.0, 9851.0, 9847.0, 9853.0, 9855.0, 9841.0, 9831.0, 9838.0, 9848.0, 9844.0, 9856.0, 9864.0, 9861.0, 9859.0, 9852.0, 9850.0, 9843.0],
      "WindowWidth": [21014.0, 20908.0, 20821.0, 20774.0, 20752.0, 20784.0, 20813.0, 20829.0, 20815.0, 20810.0, 20810.0, 20827.0, 20818.0, 20823.0, 20847.0, 20860.0, 20881.0, 20866.0, 20844.0, 20822.0, 20843.0, 20845.0, 20860.0, 20855.0, 20859.0, 20855.0, 20856.0, 20858.0, 20840.0, 20846.0, 20854.0, 20843.0, 20876.0, 20864.0, 20840.0, 20783.0, 20787.0, 20806.0, 20842.0, 20837.0, 20851.0, 20857.0, 20878.0, 20863.0, 20806.0, 20782.0, 20791.0, 20795.0, 20815.0, 20830.0, 20805.0, 20806.0, 20832.0, 20819.0, 20801.0, 20806.0, 20796.0, 20811.0, 20837.0, 20835.0, 20804.0, 20800.0, 20820.0, 20840.0, 20831.0, 20807.0, 20797.0, 20815.0, 20829.0, 20828.0, 20832.0, 20818.0, 20807.0, 20819.0, 20853.0, 20855.0, 20859.0, 20840.0, 20822.0, 20843.0, 20874.0, 20882.0, 20878.0, 20845.0, 20825.0, 20834.0, 20869.0, 20884.0, 20873.0, 20827.0, 20799.0, 20778.0, 20791.0, 20836.0, 20860.0, 20865.0, 20845.0, 20821.0, 20788.0, 20811.0, 20811.0, 20834.0, 20839.0, 20833.0, 20828.0, 20850.0, 20845.0, 20832.0, 20847.0, 20862.0, 20850.0, 20833.0, 20837.0, 20828.0, 20822.0, 20833.0, 20836.0, 20807.0, 20783.0, 20801.0, 20823.0, 20817.0, 20841.0, 20860.0, 20859.0, 20853.0, 20839.0, 20835.0, 20819.0]
    },
    "slices": {}
  }
}