{
  "AcquisitionMatrixPE": 104,
  "AcquisitionNumber": 1,
  "AcquisitionTime": "16:14:36.372500",
  "BandwidthPerPixelPhaseEncode": 17.17,
  "BaseResolution": 104,
  "BodyPartExamined": "BRAIN",
  "CoilString": "HC1-7;NC1_2",
  "ConsistencyInfo": "N4_VE11C_LATEST_20160120",
  "ConversionSoftware": "dcm2niix",
  "ConversionSoftwareVersion": "v1.0.20190720  (JP2:OpenJPEG) GCC7.3.0",
  "DerivedVendorReportedEchoSpacing": 0.000560011,
  "DeviceSerialNumber": "167006",
  "DwellTime": 2.1e-06,
  "EchoTime": 0.037,
  "EchoTrainLength": 104,
  "EffectiveEchoSpacing": 0.000560011,
  "FlipAngle": 52,
  "ImageComments": "Unaliased_MB4_PE3_LB",
  "ImageOrientationPatientDICOM": [0.999722, -0.0234785, -0.0022033, 0.0211158, 0.932864, -0.359609],
  "ImageType": [
    "ORIGINAL",
    "PRIMARY",
    "M",
    "MB",
    "ND",
    "MOSAIC"
],
  "ImagingFrequency": 123.26,
  "InPlanePhaseEncodingDirectionDICOM": "COL",
  "InstitutionAddress": "Chemin_Queen-Mary_4565_Montreal_District_CA_H3W_1W5",
  "InstitutionName": "IUGM",
  "InstitutionalDepartmentName": "Department",
  "MRAcquisitionType": "2D",
  "MagneticFieldStrength": 3,
  "Manufacturer": "Siemens",
  "ManufacturersModelName": "Prisma_fit",
  "Modality": "MR",
  "MultibandAccelerationFactor": 4,
  "PartialFourier": 1,
  "PatientPosition": "HFS",
  "PercentPhaseFOV": 100,
  "PhaseEncodingDirection": "j",
  "PhaseEncodingSteps": 104,
  "PhaseResolution": 1,
  "PixelBandwidth": 2290,
  "ProcedureStepDescription": "hcptrt_generic",
  "ProtocolName": "func_task-restingstate_run-1",
  "PulseSequenceDetails": "%CustomerSeq%_cmrr_mbep2d_bold",
  "ReceiveCoilActiveElements": "HC1-7;NC1,2",
  "ReceiveCoilName": "HeadNeck_64",
  "ReconMatrixPE": 104,
  "RepetitionTime": 1.49,
  "SAR": 0.0302591,
  "ScanOptions": "FS",
  "ScanningSequence": "EP",
  "SequenceName": "epfid2d1_104",
  "SequenceVariant": "SK_SS",
  "SeriesDescription": "func_task-restingstate_run-1",
  "SeriesNumber": 7,
  "ShimSetting": [619, -7152, -8816, 656, 3, 161, 4, -7],
  "SliceThickness": 2,
  "SliceTiming": [0, 0.7825, 0.0975, 0.88, 0.195, 0.98, 0.2925, 1.0775, 0.39, 1.175, 0.49, 1.2725, 0.5875, 1.37, 0.685, 0, 0.7825, 0.0975, 0.88, 0.195, 0.98, 0.2925, 1.0775, 0.39, 1.175, 0.49, 1.2725, 0.5875, 1.37, 0.685, 0, 0.7825, 0.0975, 0.88, 0.195, 0.98, 0.2925, 1.0775, 0.39, 1.175, 0.49, 1.2725, 0.5875, 1.37, 0.685, 0, 0.7825, 0.0975, 0.88, 0.195, 0.98, 0.2925, 1.0775, 0.39, 1.175, 0.49, 1.2725, 0.5875, 1.37, 0.685],
  "SoftwareVersions": "syngo_MR_E11",
  "SpacingBetweenSlices": 2,
  "StationName": "MRC35049",
  "TaskName": "restingstate",
  "TotalReadoutTime": 0.0576811,
  "TxRefAmp": 210.481,
  "WipMemBlock": "c5ead338-12e8-482c-bce8-0750c30640be||Sequence: R016 ve11c/master r/e634e98; Dec 19 2017 11:00:25 by eja",
  "dcmmeta_affine": [
    [-1.9994438886642456, 0.04223150759935379, -0.02099691331386566, 104.8130111694336],
    [0.04695691913366318, 1.8657280206680298, -0.7189256548881531, -68.64818572998047],
    [-0.004406606778502464, 0.7192186713218689, 1.8662008047103882, -68.59354400634766],
    [0.0, 0.0, 0.0, 1.0]
],
  "dcmmeta_reorient_transform": [
    [0.0, -1.0, 0.0, 103.0],
    [1.0, 0.0, 0.0, 0.0],
    [0.0, 0.0, 1.0, 0.0],
    [0.0, 0.0, 0.0, 1.0]
],
  "dcmmeta_shape": [104, 104, 60, 600],
  "dcmmeta_slice_dim": 2,
  "dcmmeta_version": 0.6,
  "global": {
    "const": {
      "AcquisitionMatrix": [104, 0, 0, 104],
      "AngioFlag": "N",
      "BitsAllocated": 16,
      "BitsStored": 16,
      "BodyPartExamined": "BRAIN",
      "Columns": 832,
      "EchoNumbers": 1,
      "EchoTime": 37.0,
      "EchoTrainLength": 104,
      "FlipAngle": 52.0,
      "HighBit": 15,
      "ImageOrientationPatient": [0.99972191500936, -0.0234784604201, -0.002203303501, 0.02111575400093, 0.9328640020047, -0.3596093417818],
      "ImagePositionPatient": [-852.33267888446, -785.55447219749, 268.88558471198],
      "ImageType": [
        "ORIGINAL",
        "PRIMARY",
        "M",
        "MB",
        "ND",
        "MOSAIC"
],
      "ImagedNucleus": "1H",
      "ImagingFrequency": 123.259589,
      "InPlanePhaseEncodingDirection": "COL",
      "MRAcquisitionType": "2D",
      "MagneticFieldStrength": 3.0,
      "Manufacturer": "SIEMENS",
      "ManufacturerModelName": "Prisma_fit",
      "Modality": "MR",
      "NumberOfAverages": 1.0,
      "NumberOfPhaseEncodingSteps": 104,
      "PercentPhaseFieldOfView": 100.0,
      "PercentSampling": 100.0,
      "PerformedProcedureStepStartTime": "161017.594000",
      "PhotometricInterpretation": "MONOCHROME2",
      "PixelBandwidth": 2290.0,
      "PixelRepresentation": 0,
      "PixelSpacing": [2.0, 2.0],
      "ProtocolName": "func_task-restingstate_run-1",
      "RepetitionTime": 1490.0,
      "Rows": 832,
      "SAR": 0.03025907968733,
      "SamplesPerPixel": 1,
      "ScanOptions": "FS",
      "ScanningSequence": "EP",
      "SequenceName": "epfid2d1_104",
      "SequenceVariant": [
        "SK",
        "SS"
],
      "SeriesDescription": "func_task-restingstate_run-1",
      "SeriesNumber": 7,
      "SeriesTime": "161552.725000",
      "SliceLocation": -40.428565823459,
      "SliceThickness": 2.0,
      "SmallestImagePixelValue": 0,
      "SoftwareVersions": "syngo MR E11",
      "SpacingBetweenSlices": 2.0000000797543,
      "SpecificCharacterSet": "ISO_IR 100",
      "StudyID": "2",
      "StudyTime": "161017.527000",
      "TransmitCoilName": "Body",
      "VariableFlipAngleFlag": "N",
      "WindowCenterWidthExplanation": "Algo1",
      "dBdt": 0.0},
    "slices": {}
  },
  "time": {
    "samples": {
      "AcquisitionNumber": [1, 2, 3, 4, 5, 6, 7, 8, 9, 10, 11, 12, 13, 14, 15, 16, 17, 18, 19, 20, 21, 22, 23, 24, 25, 26, 27, 28, 29, 30, 31, 32, 33, 34, 35, 36, 37, 38, 39, 40, 41, 42, 43, 44, 45, 46, 47, 48, 49, 50, 51, 52, 53, 54, 55, 56, 57, 58, 59, 60, 61, 62, 63, 64, 65, 66, 67, 68, 69, 70, 71, 72, 73, 74, 75, 76, 77, 78, 79, 80, 81, 82, 83, 84, 85, 86, 87, 88, 89, 90, 91, 92, 93, 94, 95, 96, 97, 98, 99, 100, 101, 102, 103, 104, 105, 106, 107, 108, 109, 110, 111, 112, 113, 114, 115, 116, 117, 118, 119, 120, 121, 122, 123, 124, 125, 126, 127, 128, 129, 130, 131, 132, 133, 134, 135, 136, 137, 138, 139, 140, 141, 142, 143, 144, 145, 146, 147, 148, 149, 150, 151, 152, 153, 154, 155, 156, 157, 158, 159, 160, 161, 162, 163, 164, 165, 166, 167, 168, 169, 170, 171, 172, 173, 174, 175, 176, 177, 178, 179, 180, 181, 182, 183, 184, 185, 186, 187, 188, 189, 190, 191, 192, 193, 194, 195, 196, 197, 198, 199, 200, 201, 202, 203, 204, 205, 206, 207, 208, 209, 210, 211, 212, 213, 214, 215, 216, 217, 218, 219, 220, 221, 222, 223, 224, 225, 226, 227, 228, 229, 230, 231, 232, 233, 234, 235, 236, 237, 238, 239, 240, 241, 242, 243, 244, 245, 246, 247, 248, 249, 250, 251, 252, 253, 254, 255, 256, 257, 258, 259, 260, 261, 262, 263, 264, 265, 266, 267, 268, 269, 270, 271, 272, 273, 274, 275, 276, 277, 278, 279, 280, 281, 282, 283, 284, 285, 286, 287, 288, 289, 290, 291, 292, 293, 294, 295, 296, 297, 298, 299, 300, 301, 302, 303, 304, 305, 306, 307, 308, 309, 310, 311, 312, 313, 314, 315, 316, 317, 318, 319, 320, 321, 322, 323, 324, 325, 326, 327, 328, 329, 330, 331, 332, 333, 334, 335, 336, 337, 338, 339, 340, 341, 342, 343, 344, 345, 346, 347, 348, 349, 350, 351, 352, 353, 354, 355, 356, 357, 358, 359, 360, 361, 362, 363, 364, 365, 366, 367, 368, 369, 370, 371, 372, 373, 374, 375, 376, 377, 378, 379, 380, 381, 382, 383, 384, 385, 386, 387, 388, 389, 390, 391, 392, 393, 394, 395, 396, 397, 398, 399, 400, 401, 402, 403, 404, 405, 406, 407, 408, 409, 410, 411, 412, 413, 414, 415, 416, 417, 418, 419, 420, 421, 422, 423, 424, 425, 426, 427, 428, 429, 430, 431, 432, 433, 434, 435, 436, 437, 438, 439, 440, 441, 442, 443, 444, 445, 446, 447, 448, 449, 450, 451, 452, 453, 454, 455, 456, 457, 458, 459, 460, 461, 462, 463, 464, 465, 466, 467, 468, 469, 470, 471, 472, 473, 474, 475, 476, 477, 478, 479, 480, 481, 482, 483, 484, 485, 486, 487, 488, 489, 490, 491, 492, 493, 494, 495, 496, 497, 498, 499, 500, 501, 502, 503, 504, 505, 506, 507, 508, 509, 510, 511, 512, 513, 514, 515, 516, 517, 518, 519, 520, 521, 522, 523, 524, 525, 526, 527, 528, 529, 530, 531, 532, 533, 534, 535, 536, 537, 538, 539, 540, 541, 542, 543, 544, 545, 546, 547, 548, 549, 550, 551, 552, 553, 554, 555, 556, 557, 558, 559, 560, 561, 562, 563, 564, 565, 566, 567, 568, 569, 570, 571, 572, 573, 574, 575, 576, 577, 578, 579, 580, 581, 582, 583, 584, 585, 586, 587, 588, 589, 590, 591, 592, 593, 594, 595, 596, 597, 598, 599, 600],
      "AcquisitionTime": ["161436.372500", "161437.862500", "161439.352500", "161440.842500", "161442.332500", "161443.822500", "161445.312500", "161446.802500", "161448.292500", "161449.782500", "161451.272500", "161452.762500", "161454.252500", "161455.742500", "161457.232500", "161458.722500", "161500.212500", "161501.702500", "161503.192500", "161504.682500", "161506.172500", "161507.662500", "161509.152500", "161510.642500", "161512.132500", "161513.622500", "161515.112500", "161516.602500", "161518.092500", "161519.582500", "161521.072500", "161522.562500", "161524.052500", "161525.542500", "161527.032500", "161528.522500", "161530.012500", "161531.502500", "161532.992500", "161534.482500", "161535.972500", "161537.462500", "161538.952500", "161540.442500", "161541.932500", "161543.422500", "161544.912500", "161546.402500", "161547.892500", "161549.382500", "161550.872500", "161552.362500", "161553.852500", "161555.342500", "161556.832500", "161558.322500", "161559.812500", "161601.302500", "161602.792500", "161604.282500", "161605.772500", "161607.262500", "161608.752500", "161610.242500", "161611.732500", "161613.222500", "161614.712500", "161616.202500", "161617.692500", "161619.182500", "161620.672500", "161622.162500", "161623.652500", "161625.142500", "161626.632500", "161628.122500", "161629.612500", "161631.102500", "161632.592500", "161634.082500", "161635.572500", "161637.062500", "161638.552500", "161640.042500", "161641.532500", "161643.022500", "161644.512500", "161646.002500", "161647.492500", "161648.982500", "161650.472500", "161651.962500", "161653.452500", "161654.942500", "161656.432500", "161657.922500", "161659.412500", "161700.902500", "161702.392500", "161703.882500", "161705.372500", "161706.862500", "161708.352500", "161709.842500", "161711.332500", "161712.822500", "161714.312500", "161715.802500", "161717.292500", "161718.782500", "161720.272500", "161721.762500", "161723.252500", "161724.742500", "161726.232500", "161727.722500", "161729.212500", "161730.702500", "161732.192500", "161733.682500", "161735.172500", "161736.662500", "161738.152500", "161739.642500", "161741.132500", "161742.622500", "161744.112500", "161745.602500", "161747.092500", "161748.582500", "161750.072500", "161751.562500", "161753.052500", "161754.542500", "161756.032500", "161757.522500", "161759.012500", "161800.502500", "161801.992500", "161803.482500", "161804.972500", "161806.462500", "161807.952500", "161809.442500", "161810.932500", "161812.422500", "161813.912500", "161815.402500", "161816.892500", "161818.382500", "161819.872500", "161821.362500", "161822.852500", "161824.342500", "161825.832500", "161827.322500", "161828.812500", "161830.302500", "161831.792500", "161833.282500", "161834.772500", "161836.262500", "161837.752500", "161839.242500", "161840.732500", "161842.222500", "161843.712500", "161845.202500", "161846.692500", "161848.182500", "161849.672500", "161851.162500", "161852.652500", "161854.142500", "161855.632500", "161857.122500", "161858.612500", "161900.102500", "161901.592500", "161903.082500", "161904.572500", "161906.062500", "161907.552500", "161909.042500", "161910.532500", "161912.022500", "161913.512500", "161915.002500", "161916.492500", "161917.982500", "161919.472500", "161920.962500", "161922.452500", "161923.942500", "161925.432500", "161926.922500", "161928.412500", "161929.902500", "161931.392500", "161932.882500", "161934.372500", "161935.862500", "161937.352500", "161938.842500", "161940.332500", "161941.822500", "161943.312500", "161944.802500", "161946.292500", "161947.782500", "161949.272500", "161950.762500", "161952.252500", "161953.742500", "161955.232500", "161956.722500", "161958.212500", "161959.702500", "162001.192500", "162002.682500", "162004.172500", "162005.662500", "162007.152500", "162008.642500", "162010.132500", "162011.622500", "162013.112500", "162014.602500", "162016.092500", "162017.582500", "162019.072500", "162020.562500", "162022.052500", "162023.542500", "162025.032500", "162026.522500", "162028.012500", "162029.502500", "162030.992500", "162032.482500", "162033.972500", "162035.462500", "162036.952500", "162038.442500", "162039.932500", "162041.422500", "162042.912500", "162044.402500", "162045.892500", "162047.382500", "162048.872500", "162050.362500", "162051.852500", "162053.342500", "162054.832500", "162056.322500", "162057.812500", "162059.302500", "162100.792500", "162102.282500", "162103.772500", "162105.262500", "162106.752500", "162108.242500", "162109.732500", "162111.222500", "162112.712500", "162114.202500", "162115.692500", "162117.182500", "162118.672500", "162120.162500", "162121.652500", "162123.142500", "162124.632500", "162126.122500", "162127.612500", "162129.102500", "162130.592500", "162132.082500", "162133.572500", "162135.062500", "162136.552500", "162138.042500", "162139.532500", "162141.022500", "162142.512500", "162144.002500", "162145.492500", "162146.982500", "162148.472500", "162149.962500", "162151.452500", "162152.942500", "162154.432500", "162155.922500", "162157.412500", "162158.902500", "162200.392500", "162201.882500", "162203.372500", "162204.862500", "162206.352500", "162207.842500", "162209.332500", "162210.822500", "162212.312500", "162213.802500", "162215.292500", "162216.782500", "162218.272500", "162219.762500", "162221.252500", "162222.742500", "162224.232500", "162225.722500", "162227.212500", "162228.702500", "162230.192500", "162231.682500", "162233.172500", "162234.662500", "162236.152500", "162237.642500", "162239.132500", "162240.622500", "162242.112500", "162243.602500", "162245.092500", "162246.582500", "162248.072500", "162249.562500", "162251.052500", "162252.542500", "162254.032500", "162255.522500", "162257.012500", "162258.502500", "162259.992500", "162301.482500", "162302.972500", "162304.462500", "162305.952500", "162307.442500", "162308.932500", "162310.422500", "162311.912500", "162313.402500", "162314.892500", "162316.382500", "162317.872500", "162319.362500", "162320.852500", "162322.342500", "162323.832500", "162325.322500", "162326.812500", "162328.302500", "162329.792500", "162331.282500", "162332.772500", "162334.262500", "162335.752500", "162337.242500", "162338.732500", "162340.222500", "162341.712500", "162343.202500", "162344.692500", "162346.182500", "162347.672500", "162349.162500", "162350.652500", "162352.142500", "162353.632500", "162355.122500", "162356.612500", "162358.102500", "162359.592500", "162401.082500", "162402.572500", "162404.062500", "162405.552500", "162407.042500", "162408.532500", "162410.022500", "162411.512500", "162413.002500", "162414.492500", "162415.982500", "162417.472500", "162418.962500", "162420.452500", "162421.942500", "162423.432500", "162424.922500", "162426.412500", "162427.902500", "162429.392500", "162430.882500", "162432.372500", "162433.862500", "162435.352500", "162436.842500", "162438.332500", "162439.822500", "162441.312500", "162442.802500", "162444.292500", "162445.782500", "162447.272500", "162448.762500", "162450.252500", "162451.742500", "162453.232500", "162454.722500", "162456.212500", "162457.702500", "162459.192500", "162500.682500", "162502.172500", "162503.662500", "162505.152500", "162506.642500", "162508.132500", "162509.622500", "162511.112500", "162512.602500", "162514.092500", "162515.582500", "162517.072500", "162518.562500", "162520.052500", "162521.542500", "162523.032500", "162524.522500", "162526.012500", "162527.502500", "162528.992500", "162530.482500", "162531.972500", "162533.462500", "162534.952500", "162536.442500", "162537.932500", "162539.422500", "162540.912500", "162542.402500", "162543.892500", "162545.382500", "162546.872500", "162548.362500", "162549.852500", "162551.342500", "162552.832500", "162554.322500", "162555.812500", "162557.302500", "162558.792500", "162600.282500", "162601.772500", "162603.262500", "162604.752500", "162606.242500", "162607.732500", "162609.222500", "162610.712500", "162612.202500", "162613.692500", "162615.182500", "162616.672500", "162618.162500", "162619.652500", "162621.142500", "162622.632500", "162624.122500", "162625.612500", "162627.102500", "162628.592500", "162630.082500", "162631.572500", "162633.062500", "162634.552500", "162636.042500", "162637.532500", "162639.022500", "162640.512500", "162642.002500", "162643.492500", "162644.982500", "162646.472500", "162647.962500", "162649.452500", "162650.942500", "162652.432500", "162653.922500", "162655.412500", "162656.902500", "162658.392500", "162659.882500", "162701.372500", "162702.862500", "162704.352500", "162705.842500", "162707.332500", "162708.822500", "162710.312500", "162711.802500", "162713.292500", "162714.782500", "162716.272500", "162717.762500", "162719.252500", "162720.742500", "162722.232500", "162723.722500", "162725.212500", "162726.702500", "162728.192500", "162729.682500", "162731.172500", "162732.662500", "162734.152500", "162735.642500", "162737.132500", "162738.622500", "162740.112500", "162741.602500", "162743.092500", "162744.582500", "162746.072500", "162747.562500", "162749.052500", "162750.542500", "162752.032500", "162753.522500", "162755.012500", "162756.502500", "162757.992500", "162759.482500", "162800.972500", "162802.462500", "162803.952500", "162805.442500", "162806.932500", "162808.422500", "162809.912500", "162811.402500", "162812.892500", "162814.382500", "162815.872500", "162817.362500", "162818.852500", "162820.342500", "162821.832500", "162823.322500", "162824.812500", "162826.302500", "162827.792500", "162829.282500", "162830.772500", "162832.262500", "162833.752500", "162835.242500", "162836.732500", "162838.222500", "162839.712500", "162841.202500", "162842.692500", "162844.182500", "162845.672500", "162847.162500", "162848.652500", "162850.142500", "162851.632500", "162853.122500", "162854.612500", "162856.102500", "162857.592500", "162859.082500", "162900.572500", "162902.062500", "162903.552500", "162905.042500", "162906.532500", "162908.022500", "162909.512500", "162911.002500", "162912.492500", "162913.982500", "162915.472500", "162916.962500", "162918.452500", "162919.942500", "162921.432500", "162922.922500", "162924.412500", "162925.902500", "162927.392500", "162928.882500"],
      "ContentTime": ["161552.728000", "161552.732000", "161552.735000", "161552.738000", "161552.741000", "161552.744000", "161552.747000", "161552.749000", "161552.752000", "161552.755000", "161552.766000", "161552.769000", "161552.775000", "161552.778000", "161552.781000", "161552.784000", "161552.790000", "161552.793000", "161552.796000", "161552.798000", "161552.801000", "161552.804000", "161552.807000", "161612.700000", "161612.703000", "161612.706000", "161612.709000", "161612.712000", "161612.715000", "161612.718000", "161612.720000", "161612.723000", "161612.726000", "161612.729000", "161612.732000", "161612.735000", "161612.738000", "161612.741000", "161612.744000", "161612.747000", "161612.750000", "161612.752000", "161612.755000", "161632.700000", "161632.703000", "161632.706000", "161632.726000", "161632.729000", "161632.732000", "161632.734000", "161632.737000", "161632.740000", "161632.743000", "161632.746000", "161632.749000", "161632.752000", "161632.755000", "161632.758000", "161632.761000", "161632.764000", "161632.767000", "161632.770000", "161632.772000", "161652.700000", "161652.703000", "161652.706000", "161652.709000", "161652.712000", "161652.715000", "161652.718000", "161652.720000", "161652.723000", "161652.726000", "161652.729000", "161652.732000", "161652.735000", "161652.738000", "161652.741000", "161652.744000", "161652.747000", "161652.761000", "161652.764000", "161652.767000", "161652.769000", "161712.700000", "161712.703000", "161712.706000", "161712.709000", "161712.712000", "161712.715000", "161712.717000", "161712.720000", "161712.723000", "161712.726000", "161712.729000", "161712.732000", "161712.735000", "161712.738000", "161712.741000", "161712.744000", "161712.747000", "161712.750000", "161712.753000", "161712.760000", "161752.699000", "161752.702000", "161752.705000", "161752.708000", "161752.711000", "161752.714000", "161752.717000", "161752.720000", "161752.723000", "161752.726000", "161752.729000", "161752.732000", "161752.735000", "161752.738000", "161752.741000", "161752.744000", "161752.747000", "161752.750000", "161752.752000", "161752.755000", "161752.758000", "161752.761000", "161752.764000", "161752.767000", "161752.770000", "161752.773000", "161752.776000", "161832.700000", "161832.703000", "161832.706000", "161832.709000", "161832.712000", "161832.715000", "161832.718000", "161832.721000", "161832.724000", "161832.727000", "161832.730000", "161832.733000", "161832.735000", "161832.738000", "161832.741000", "161832.744000", "161832.747000", "161832.750000", "161832.753000", "161832.756000", "161832.759000", "161832.762000", "161832.765000", "161832.768000", "161832.771000", "161832.774000", "161832.777000", "161912.700000", "161912.710000", "161912.728000", "161912.731000", "161912.734000", "161912.737000", "161912.740000", "161912.743000", "161912.746000", "161912.749000", "161912.752000", "161912.755000", "161912.758000", "161912.761000", "161912.764000", "161912.767000", "161912.770000", "161912.773000", "161912.776000", "161912.779000", "161912.782000", "161912.784000", "161912.787000", "161912.790000", "161912.793000", "161912.796000", "161912.799000", "161952.699000", "161952.702000", "161952.705000", "161952.708000", "161952.711000", "161952.714000", "161952.717000", "161952.720000", "161952.723000", "161952.726000", "161952.729000", "161952.732000", "161952.735000", "161952.737000", "161952.740000", "161952.743000", "161952.746000", "161952.749000", "161952.752000", "161952.755000", "161952.758000", "161952.761000", "161952.764000", "161952.767000", "161952.770000", "161952.773000", "161952.776000", "162032.700000", "162032.703000", "162032.706000", "162032.722000", "162032.725000", "162032.728000", "162032.731000", "162032.734000", "162032.737000", "162032.740000", "162032.743000", "162032.746000", "162032.749000", "162032.752000", "162032.755000", "162032.758000", "162032.761000", "162032.764000", "162032.767000", "162032.770000", "162032.773000", "162032.776000", "162032.779000", "162032.782000", "162032.785000", "162032.788000", "162112.700000", "162112.703000", "162112.706000", "162112.709000", "162112.712000", "162112.715000", "162112.718000", "162112.721000", "162112.724000", "162112.727000", "162112.730000", "162112.733000", "162112.743000", "162112.746000", "162112.749000", "162112.752000", "162112.755000", "162112.758000", "162112.761000", "162112.764000", "162112.767000", "162112.770000", "162112.773000", "162112.776000", "162112.778000", "162112.781000", "162112.784000", "162152.699000", "162152.702000", "162152.705000", "162152.708000", "162152.711000", "162152.714000", "162152.717000", "162152.720000", "162152.723000", "162152.726000", "162152.729000", "162152.732000", "162152.735000", "162152.738000", "162152.741000", "162152.744000", "162152.747000", "162152.750000", "162152.753000", "162152.756000", "162152.759000", "162152.762000", "162152.765000", "162152.768000", "162152.770000", "162152.773000", "162152.776000", "162232.699000", "162232.702000", "162232.705000", "162232.708000", "162232.711000", "162232.714000", "162232.717000", "162232.720000", "162232.723000", "162232.726000", "162232.729000", "162232.732000", "162232.734000", "162232.737000", "162232.740000", "162232.743000", "162232.746000", "162232.749000", "162232.752000", "162232.755000", "162232.758000", "162232.761000", "162232.764000", "162232.767000", "162232.770000", "162232.773000", "162232.776000", "162252.700000", "162252.703000", "162252.706000", "162252.709000", "162252.712000", "162252.715000", "162252.718000", "162252.721000", "162252.724000", "162252.727000", "162252.730000", "162252.733000", "162252.735000", "162332.700000", "162332.703000", "162332.706000", "162332.709000", "162332.712000", "162332.715000", "162332.718000", "162332.721000", "162332.724000", "162332.727000", "162332.730000", "162332.733000", "162332.736000", "162332.739000", "162332.742000", "162332.745000", "162332.758000", "162332.761000", "162332.764000", "162332.767000", "162332.770000", "162332.772000", "162332.775000", "162332.778000", "162332.781000", "162332.784000", "162332.787000", "162412.699000", "162412.702000", "162412.705000", "162412.708000", "162412.711000", "162412.714000", "162412.717000", "162412.720000", "162412.723000", "162412.726000", "162412.729000", "162412.732000", "162412.735000", "162412.737000", "162412.740000", "162412.743000", "162412.746000", "162412.749000", "162412.752000", "162412.755000", "162412.758000", "162412.761000", "162412.764000", "162412.767000", "162412.770000", "162412.773000", "162412.776000", "162452.699000", "162452.702000", "162452.705000", "162452.708000", "162452.711000", "162452.714000", "162452.717000", "162452.720000", "162452.723000", "162452.726000", "162452.729000", "162452.732000", "162452.735000", "162452.738000", "162452.741000", "162452.744000", "162452.747000", "162452.749000", "162452.752000", "162452.755000", "162452.758000", "162452.761000", "162452.764000", "162452.767000", "162452.770000", "162452.773000", "162452.776000", "162532.700000", "162532.703000", "162532.706000", "162532.709000", "162532.712000", "162532.715000", "162532.718000", "162532.721000", "162532.724000", "162532.727000", "162532.730000", "162532.733000", "162532.736000", "162532.739000", "162532.742000", "162532.745000", "162532.748000", "162532.751000", "162532.754000", "162532.757000", "162532.760000", "162532.763000", "162532.765000", "162532.768000", "162532.771000", "162532.774000", "162532.777000", "162612.700000", "162612.703000", "162612.706000", "162612.709000", "162612.712000", "162612.715000", "162612.718000", "162612.721000", "162612.724000", "162612.727000", "162612.730000", "162612.733000", "162612.736000", "162612.739000", "162612.742000", "162612.745000", "162612.748000", "162612.751000", "162612.754000", "162612.757000", "162612.760000", "162612.762000", "162612.765000", "162612.768000", "162612.771000", "162612.774000", "162612.777000", "162652.699000", "162652.702000", "162652.705000", "162652.708000", "162652.711000", "162652.714000", "162652.717000", "162652.720000", "162652.723000", "162652.726000", "162652.729000", "162652.732000", "162652.735000", "162652.738000", "162652.741000", "162652.744000", "162652.747000", "162652.750000", "162652.753000", "162652.756000", "162652.759000", "162652.761000", "162652.764000", "162652.767000", "162652.770000", "162652.773000", "162732.700000", "162732.703000", "162732.706000", "162732.709000", "162732.712000", "162732.715000", "162732.718000", "162732.721000", "162732.724000", "162732.727000", "162732.730000", "162732.733000", "162732.736000", "162732.746000", "162732.749000", "162732.752000", "162732.755000", "162732.758000", "162732.761000", "162732.764000", "162732.767000", "162732.770000", "162732.773000", "162732.776000", "162732.779000", "162732.782000", "162732.785000", "162812.700000", "162812.703000", "162812.706000", "162812.719000", "162812.722000", "162812.725000", "162812.728000", "162812.731000", "162812.734000", "162812.737000", "162812.740000", "162812.743000", "162812.746000", "162812.749000", "162812.752000", "162812.755000", "162812.758000", "162812.761000", "162812.764000", "162812.767000", "162812.770000", "162812.773000", "162812.775000", "162812.778000", "162812.781000", "162812.784000", "162812.787000", "162852.699000", "162852.702000", "162852.705000", "162852.708000", "162852.711000", "162852.714000", "162852.717000", "162852.720000", "162852.723000", "162852.726000", "162852.729000", "162852.732000", "162852.735000", "162852.738000", "162852.741000", "162852.744000", "162852.747000", "162852.749000", "162852.752000", "162852.755000", "162852.758000", "162852.761000", "162852.764000", "162852.767000", "162852.770000", "162852.773000", "162852.776000", "162930.795000", "162930.798000", "162930.801000", "162930.804000", "162930.807000", "162930.810000", "162930.813000", "162930.816000", "162930.820000", "162930.823000", "162930.826000", "162930.829000", "162930.833000", "162930.836000", "162930.839000", "162930.842000", "162930.845000", "162930.849000", "162930.852000", "162930.855000", "162930.858000", "162930.862000", "162930.865000", "162930.868000", "162930.871000", "162930.875000"],
