{
  "AcquisitionMatrixPE": 104,
  "AcquisitionNumber": 1,
  "AcquisitionTime": "18:45:15.987500",
  "BandwidthPerPixelPhaseEncode": 17.17,
  "BaseResolution": 104,
  "BodyPartExamined": "BRAIN",
  "CoilString": "HC1-7;NC1_2",
  "ConsistencyInfo": "N4_VE11C_LATEST_20160120",
  "ConversionSoftware": "dcm2niix",
  "ConversionSoftwareVersion": "v1.0.20190720  (JP2:OpenJPEG) GCC7.3.0",
  "DerivedVendorReportedEchoSpacing": 0.000560011,
  "DeviceSerialNumber": "167006",
  "DwellTime": 2.1e-06,
  "EchoTime": 0.037,
  "EchoTrainLength": 104,
  "EffectiveEchoSpacing": 0.000560011,
  "FlipAngle": 52,
  "ImageComments": "Unaliased_MB4_PE3_LB",
  "ImageOrientationPatientDICOM": [0.999246, -0.0362422, -0.01393, 0.0273879, 0.912231, -0.408761],
  "ImageType": [
    "ORIGINAL",
    "PRIMARY",
    "M",
    "MB",
    "ND",
    "MOSAIC"
],
  "ImagingFrequency": 123.259,
  "InPlanePhaseEncodingDirectionDICOM": "COL",
  "InstitutionAddress": "Chemin_Queen-Mary_4565_Montreal_District_CA_H3W_1W5",
  "InstitutionName": "IUGM",
  "InstitutionalDepartmentName": "Department",
  "MRAcquisitionType": "2D",
  "MagneticFieldStrength": 3,
  "Manufacturer": "Siemens",
  "ManufacturersModelName": "Prisma_fit",
  "Modality": "MR",
  "MultibandAccelerationFactor": 4,
  "PartialFourier": 1,
  "PatientPosition": "HFS",
  "PercentPhaseFOV": 100,
  "PhaseEncodingDirection": "j",
  "PhaseEncodingSteps": 104,
  "PhaseResolution": 1,
  "PixelBandwidth": 2290,
  "ProcedureStepDescription": "hcptrt_generic",
  "ProtocolName": "func_task-restingstate_run-1",
  "PulseSequenceDetails": "%CustomerSeq%_cmrr_mbep2d_bold",
  "ReceiveCoilActiveElements": "HC1-7;NC1,2",
  "ReceiveCoilName": "HeadNeck_64",
  "ReconMatrixPE": 104,
  "RepetitionTime": 1.49,
  "SAR": 0.0381224,
  "ScanOptions": "FS",
  "ScanningSequence": "EP",
  "SequenceName": "epfid2d1_104",
  "SequenceVariant": "SK_SS",
  "SeriesDescription": "func_task-restingstate_run-1",
  "SeriesNumber": 7,
  "ShimSetting": [613, -7257, -8857, 384, 20, -345, 30, 30],
  "SliceThickness": 2,
  "SliceTiming": [0, 0.785, 0.1, 0.8825, 0.1975, 0.98, 0.295, 1.08, 0.3925, 1.1775, 0.49, 1.275, 0.59, 1.3725, 0.6875, 0, 0.785, 0.1, 0.8825, 0.1975, 0.98, 0.295, 1.08, 0.3925, 1.1775, 0.49, 1.275, 0.59, 1.3725, 0.6875, 0, 0.785, 0.1, 0.8825, 0.1975, 0.98, 0.295, 1.08, 0.3925, 1.1775, 0.49, 1.275, 0.59, 1.3725, 0.6875, 0, 0.785, 0.1, 0.8825, 0.1975, 0.98, 0.295, 1.08, 0.3925, 1.1775, 0.49, 1.275, 0.59, 1.3725, 0.6875],
  "SoftwareVersions": "syngo_MR_E11",
  "SpacingBetweenSlices": 2,
  "StationName": "MRC35049",
  "TaskName": "restingstate",
  "TotalReadoutTime": 0.0576811,
  "TxRefAmp": 243.642,
  "WipMemBlock": "36387a25-08c0-4287-9f68-d662d4814a3b||Sequence: R016 ve11c/master r/e634e98; Dec 19 2017 11:00:25 by eja",
  "dcmmeta_affine": [
    [-1.998491883277893, 0.05477571859955788, -0.055043481290340424, 103.14376831054688],
    [0.07248438149690628, 1.8244612216949463, -0.816141664981842, -62.037147521972656],
    [-0.027859974652528763, 0.8175211548805237, 1.8250707387924194, -67.50308990478516],
    [0.0, 0.0, 0.0, 1.0]
],
  "dcmmeta_reorient_transform": [
    [0.0, -1.0, 0.0, 103.0],
    [1.0, 0.0, 0.0, 0.0],
    [0.0, 0.0, 1.0, 0.0],
    [0.0, 0.0, 0.0, 1.0]
],
  "dcmmeta_shape": [104, 104, 60, 600],
  "dcmmeta_slice_dim": 2,
  "dcmmeta_version": 0.6,
  "global": {
    "const": {
      "AcquisitionMatrix": [104, 0, 0, 104],
      "AngioFlag": "N",
      "BitsAllocated": 16,
      "BitsStored": 16,
      "BodyPartExamined": "BRAIN",
      "Columns": 832,
      "EchoNumbers": 1,
      "EchoTime": 37.0,
      "EchoTrainLength": 104,
      "FlipAngle": 52.0,
      "HighBit": 15,
      "ImageOrientationPatient": [0.99924594517002, -0.0362421925407, -0.0139299871186, 0.02738785992052, 0.91223061454278, -0.4087605790923],
      "ImagePositionPatient": [-856.17508101187, -763.60193100953, 324.4203208781],
      "ImageType": [
        "ORIGINAL",
        "PRIMARY",
        "M",
        "MB",
        "ND",
        "MOSAIC"
],
      "ImagedNucleus": "1H",
      "ImagingFrequency": 123.259238,
      "InPlanePhaseEncodingDirection": "COL",
      "MRAcquisitionType": "2D",
      "MagneticFieldStrength": 3.0,
      "Manufacturer": "SIEMENS",
      "ManufacturerModelName": "Prisma_fit",
      "Modality": "MR",
      "NumberOfAverages": 1.0,
      "NumberOfPhaseEncodingSteps": 104,
      "PercentPhaseFieldOfView": 100.0,
      "PercentSampling": 100.0,
      "PerformedProcedureStepStartTime": "184119.776000",
      "PhotometricInterpretation": "MONOCHROME2",
      "PixelBandwidth": 2290.0,
      "PixelRepresentation": 0,
      "PixelSpacing": [2.0, 2.0],
      "ProtocolName": "func_task-restingstate_run-1",
      "RepetitionTime": 1490.0,
      "Rows": 832,
      "SAR": 0.03812239408617,
      "SamplesPerPixel": 1,
      "ScanOptions": "FS",
      "ScanningSequence": "EP",
      "SequenceName": "epfid2d1_104",
      "SequenceVariant": [
        "SK",
        "SS"
],
      "SeriesDescription": "func_task-restingstate_run-1",
      "SeriesNumber": 7,
      "SeriesTime": "184611.365000",
      "SliceLocation": -39.122101238621,
      "SliceThickness": 2.0,
      "SmallestImagePixelValue": 0,
      "SoftwareVersions": "syngo MR E11",
      "SpacingBetweenSlices": 2.0000000427595,
      "SpecificCharacterSet": "ISO_IR 100",
      "StudyID": "1",
      "StudyTime": "184119.699000",
      "TransmitCoilName": "Body",
      "VariableFlipAngleFlag": "N",
      "WindowCenterWidthExplanation": "Algo1",
      "dBdt": 0.0},
    "slices": {}
  },
  "time": {
    "samples": {
      "AcquisitionNumber": [1, 2, 3, 4, 5, 6, 7, 8, 9, 10, 11, 12, 13, 14, 15, 16, 17, 18, 19, 20, 21, 22, 23, 24, 25, 26, 27, 28, 29, 30, 31, 32, 33, 34, 35, 36, 37, 38, 39, 40, 41, 42, 43, 44, 45, 46, 47, 48, 49, 50, 51, 52, 53, 54, 55, 56, 57, 58, 59, 60, 61, 62, 63, 64, 65, 66, 67, 68, 69, 70, 71, 72, 73, 74, 75, 76, 77, 78, 79, 80, 81, 82, 83, 84, 85, 86, 87, 88, 89, 90, 91, 92, 93, 94, 95, 96, 97, 98, 99, 100, 101, 102, 103, 104, 105, 106, 107, 108, 109, 110, 111, 112, 113, 114, 115, 116, 117, 118, 119, 120, 121, 122, 123, 124, 125, 126, 127, 128, 129, 130, 131, 132, 133, 134, 135, 136, 137, 138, 139, 140, 141, 142, 143, 144, 145, 146, 147, 148, 149, 150, 151, 152, 153, 154, 155, 156, 157, 158, 159, 160, 161, 162, 163, 164, 165, 166, 167, 168, 169, 170, 171, 172, 173, 174, 175, 176, 177, 178, 179, 180, 181, 182, 183, 184, 185, 186, 187, 188, 189, 190, 191, 192, 193, 194, 195, 196, 197, 198, 199, 200, 201, 202, 203, 204, 205, 206, 207, 208, 209, 210, 211, 212, 213, 214, 215, 216, 217, 218, 219, 220, 221, 222, 223, 224, 225, 226, 227, 228, 229, 230, 231, 232, 233, 234, 235, 236, 237, 238, 239, 240, 241, 242, 243, 244, 245, 246, 247, 248, 249, 250, 251, 252, 253, 254, 255, 256, 257, 258, 259, 260, 261, 262, 263, 264, 265, 266, 267, 268, 269, 270, 271, 272, 273, 274, 275, 276, 277, 278, 279, 280, 281, 282, 283, 284, 285, 286, 287, 288, 289, 290, 291, 292, 293, 294, 295, 296, 297, 298, 299, 300, 301, 302, 303, 304, 305, 306, 307, 308, 309, 310, 311, 312, 313, 314, 315, 316, 317, 318, 319, 320, 321, 322, 323, 324, 325, 326, 327, 328, 329, 330, 331, 332, 333, 334, 335, 336, 337, 338, 339, 340, 341, 342, 343, 344, 345, 346, 347, 348, 349, 350, 351, 352, 353, 354, 355, 356, 357, 358, 359, 360, 361, 362, 363, 364, 365, 366, 367, 368, 369, 370, 371, 372, 373, 374, 375, 376, 377, 378, 379, 380, 381, 382, 383, 384, 385, 386, 387, 388, 389, 390, 391, 392, 393, 394, 395, 396, 397, 398, 399, 400, 401, 402, 403, 404, 405, 406, 407, 408, 409, 410, 411, 412, 413, 414, 415, 416, 417, 418, 419, 420, 421, 422, 423, 424, 425, 426, 427, 428, 429, 430, 431, 432, 433, 434, 435, 436, 437, 438, 439, 440, 441, 442, 443, 444, 445, 446, 447, 448, 449, 450, 451, 452, 453, 454, 455, 456, 457, 458, 459, 460, 461, 462, 463, 464, 465, 466, 467, 468, 469, 470, 471, 472, 473, 474, 475, 476, 477, 478, 479, 480, 481, 482, 483, 484, 485, 486, 487, 488, 489, 490, 491, 492, 493, 494, 495, 496, 497, 498, 499, 500, 501, 502, 503, 504, 505, 506, 507, 508, 509, 510, 511, 512, 513, 514, 515, 516, 517, 518, 519, 520, 521, 522, 523, 524, 525, 526, 527, 528, 529, 530, 531, 532, 533, 534, 535, 536, 537, 538, 539, 540, 541, 542, 543, 544, 545, 546, 547, 548, 549, 550, 551, 552, 553, 554, 555, 556, 557, 558, 559, 560, 561, 562, 563, 564, 565, 566, 567, 568, 569, 570, 571, 572, 573, 574, 575, 576, 577, 578, 579, 580, 581, 582, 583, 584, 585, 586, 587, 588, 589, 590, 591, 592, 593, 594, 595, 596, 597, 598, 599, 600],
      "AcquisitionTime": ["184515.987500", "184517.477500", "184518.967500", "184520.457500", "184521.947500", "184523.437500", "184524.927500", "184526.417500", "184527.907500", "184529.397500", "184530.887500", "184532.377500", "184533.867500", "184535.357500", "184536.847500", "184538.337500", "184539.827500", "184541.317500", "184542.807500", "184544.297500", "184545.787500", "184547.277500", "184548.767500", "184550.257500", "184551.747500", "184553.237500", "184554.727500", "184556.217500", "184557.707500", "184559.197500", "184600.687500", "184602.177500", "184603.667500", "184605.157500", "184606.647500", "184608.137500", "184609.627500", "184611.117500", "184612.607500", "184614.097500", "184615.587500", "184617.077500", "184618.567500", "184620.057500", "184621.547500", "184623.037500", "184624.527500", "184626.017500", "184627.507500", "184628.997500", "184630.487500", "184631.977500", "184633.467500", "184634.957500", "184636.447500", "184637.937500", "184639.427500", "184640.917500", "184642.407500", "184643.897500", "184645.387500", "184646.877500", "184648.367500", "184649.857500", "184651.347500", "184652.837500", "184654.327500", "184655.817500", "184657.307500", "184658.797500", "184700.287500", "184701.777500", "184703.267500", "184704.757500", "184706.247500", "184707.737500", "184709.227500", "184710.717500", "184712.207500", "184713.697500", "184715.187500", "184716.677500", "184718.167500", "184719.657500", "184721.147500", "184722.637500", "184724.127500", "184725.617500", "184727.107500", "184728.597500", "184730.087500", "184731.577500", "184733.067500", "184734.557500", "184736.047500", "184737.537500", "184739.027500", "184740.517500", "184742.007500", "184743.497500", "184744.987500", "184746.477500", "184747.967500", "184749.457500", "184750.947500", "184752.437500", "184753.927500", "184755.417500", "184756.907500", "184758.397500", "184759.887500", "184801.377500", "184802.867500", "184804.357500", "184805.847500", "184807.337500", "184808.827500", "184810.317500", "184811.807500", "184813.297500", "184814.787500", "184816.277500", "184817.767500", "184819.257500", "184820.747500", "184822.237500", "184823.727500", "184825.217500", "184826.707500", "184828.197500", "184829.687500", "184831.177500", "184832.667500", "184834.157500", "184835.647500", "184837.137500", "184838.627500", "184840.117500", "184841.607500", "184843.097500", "184844.587500", "184846.077500", "184847.567500", "184849.057500", "184850.547500", "184852.037500", "184853.527500", "184855.017500", "184856.507500", "184857.997500", "184859.487500", "184900.977500", "184902.467500", "184903.957500", "184905.447500", "184906.937500", "184908.427500", "184909.917500", "184911.407500", "184912.897500", "184914.387500", "184915.877500", "184917.367500", "184918.857500", "184920.347500", "184921.837500", "184923.327500", "184924.817500", "184926.307500", "184927.797500", "184929.287500", "184930.777500", "184932.267500", "184933.757500", "184935.247500", "184936.737500", "184938.227500", "184939.717500", "184941.207500", "184942.697500", "184944.187500", "184945.677500", "184947.167500", "184948.657500", "184950.147500", "184951.637500", "184953.127500", "184954.617500", "184956.107500", "184957.597500", "184959.087500", "185000.577500", "185002.067500", "185003.557500", "185005.047500", "185006.537500", "185008.027500", "185009.517500", "185011.007500", "185012.497500", "185013.987500", "185015.477500", "185016.967500", "185018.457500", "185019.947500", "185021.437500", "185022.927500", "185024.417500", "185025.907500", "185027.397500", "185028.887500", "185030.377500", "185031.867500", "185033.357500", "185034.847500", "185036.337500", "185037.827500", "185039.317500", "185040.807500", "185042.297500", "185043.787500", "185045.277500", "185046.767500", "185048.257500", "185049.747500", "185051.237500", "185052.727500", "185054.217500", "185055.707500", "185057.197500", "185058.687500", "185100.177500", "185101.667500", "185103.157500", "185104.647500", "185106.137500", "185107.627500", "185109.117500", "185110.607500", "185112.097500", "185113.587500", "185115.077500", "185116.567500", "185118.057500", "185119.547500", "185121.037500", "185122.527500", "185124.017500", "185125.507500", "185126.997500", "185128.487500", "185129.977500", "185131.467500", "185132.957500", "185134.447500", "185135.937500", "185137.427500", "185138.917500", "185140.407500", "185141.897500", "185143.387500", "185144.877500", "185146.367500", "185147.857500", "185149.347500", "185150.837500", "185152.327500", "185153.817500", "185155.307500", "185156.797500", "185158.287500", "185159.777500", "185201.267500", "185202.757500", "185204.247500", "185205.737500", "185207.227500", "185208.717500", "185210.207500", "185211.697500", "185213.187500", "185214.677500", "185216.167500", "185217.657500", "185219.147500", "185220.637500", "185222.127500", "185223.617500", "185225.107500", "185226.597500", "185228.087500", "185229.577500", "185231.067500", "185232.557500", "185234.047500", "185235.537500", "185237.027500", "185238.517500", "185240.007500", "185241.497500", "185242.987500", "185244.477500", "185245.967500", "185247.457500", "185248.947500", "185250.437500", "185251.927500", "185253.417500", "185254.907500", "185256.397500", "185257.887500", "185259.377500", "185300.867500", "185302.357500", "185303.847500", "185305.337500", "185306.827500", "185308.317500", "185309.807500", "185311.297500", "185312.787500", "185314.277500", "185315.767500", "185317.257500", "185318.747500", "185320.237500", "185321.727500", "185323.217500", "185324.707500", "185326.197500", "185327.687500", "185329.177500", "185330.667500", "185332.157500", "185333.647500", "185335.137500", "185336.627500", "185338.117500", "185339.607500", "185341.097500", "185342.587500", "185344.077500", "185345.567500", "185347.057500", "185348.547500", "185350.037500", "185351.527500", "185353.017500", "185354.507500", "185355.997500", "185357.487500", "185358.977500", "185400.467500", "185401.957500", "185403.447500", "185404.937500", "185406.427500", "185407.917500", "185409.407500", "185410.897500", "185412.387500", "185413.877500", "185415.367500", "185416.857500", "185418.347500", "185419.837500", "185421.327500", "185422.817500", "185424.307500", "185425.797500", "185427.287500", "185428.777500", "185430.267500", "185431.757500", "185433.247500", "185434.737500", "185436.227500", "185437.717500", "185439.207500", "185440.697500", "185442.187500", "185443.677500", "185445.167500", "185446.657500", "185448.147500", "185449.637500", "185451.127500", "185452.617500", "185454.107500", "185455.597500", "185457.087500", "185458.577500", "185500.067500", "185501.557500", "185503.047500", "185504.537500", "185506.027500", "185507.517500", "185509.007500", "185510.497500", "185511.987500", "185513.477500", "185514.967500", "185516.457500", "185517.947500", "185519.437500", "185520.927500", "185522.417500", "185523.907500", "185525.397500", "185526.887500", "185528.377500", "185529.867500", "185531.357500", "185532.847500", "185534.337500", "185535.827500", "185537.317500", "185538.807500", "185540.297500", "185541.787500", "185543.277500", "185544.767500", "185546.257500", "185547.747500", "185549.237500", "185550.727500", "185552.217500", "185553.707500", "185555.197500", "185556.687500", "185558.177500", "185559.667500", "185601.157500", "185602.647500", "185604.137500", "185605.627500", "185607.117500", "185608.607500", "185610.097500", "185611.587500", "185613.077500", "185614.567500", "185616.057500", "185617.547500", "185619.037500", "185620.527500", "185622.017500", "185623.507500", "185624.997500", "185626.487500", "185627.977500", "185629.467500", "185630.957500", "185632.447500", "185633.937500", "185635.427500", "185636.917500", "185638.407500", "185639.897500", "185641.387500", "185642.877500", "185644.367500", "185645.857500", "185647.347500", "185648.837500", "185650.327500", "185651.817500", "185653.307500", "185654.797500", "185656.287500", "185657.777500", "185659.267500", "185700.757500", "185702.247500", "185703.737500", "185705.227500", "185706.717500", "185708.207500", "185709.697500", "185711.187500", "185712.677500", "185714.167500", "185715.657500", "185717.147500", "185718.637500", "185720.127500", "185721.617500", "185723.107500", "185724.597500", "185726.087500", "185727.577500", "185729.067500", "185730.557500", "185732.047500", "185733.537500", "185735.027500", "185736.517500", "185738.007500", "185739.497500", "185740.987500", "185742.477500", "185743.967500", "185745.457500", "185746.947500", "185748.437500", "185749.927500", "185751.417500", "185752.907500", "185754.397500", "185755.887500", "185757.377500", "185758.867500", "185800.357500", "185801.847500", "185803.337500", "185804.827500", "185806.317500", "185807.807500", "185809.297500", "185810.787500", "185812.277500", "185813.767500", "185815.257500", "185816.747500", "185818.237500", "185819.727500", "185821.217500", "185822.707500", "185824.197500", "185825.687500", "185827.177500", "185828.667500", "185830.157500", "185831.647500", "185833.137500", "185834.627500", "185836.117500", "185837.607500", "185839.097500", "185840.587500", "185842.077500", "185843.567500", "185845.057500", "185846.547500", "185848.037500", "185849.527500", "185851.017500", "185852.507500", "185853.997500", "185855.487500", "185856.977500", "185858.467500", "185859.957500", "185901.447500", "185902.937500", "185904.427500", "185905.917500", "185907.407500", "185908.897500", "185910.387500", "185911.877500", "185913.367500", "185914.857500", "185916.347500", "185917.837500", "185919.327500", "185920.817500", "185922.307500", "185923.797500", "185925.287500", "185926.777500", "185928.267500", "185929.757500", "185931.247500", "185932.737500", "185934.227500", "185935.717500", "185937.207500", "185938.697500", "185940.187500", "185941.677500", "185943.167500", "185944.657500", "185946.147500", "185947.637500", "185949.127500", "185950.617500", "185952.107500", "185953.597500", "185955.087500", "185956.577500", "185958.067500", "185959.557500", "190001.047500", "190002.537500", "190004.027500", "190005.517500", "190007.007500", "190008.497500"],
      "ContentTime": ["184611.367000", "184612.366000", "184613.366000", "184614.366000", "184615.366000", "184616.366000", "184617.366000", "184618.366000", "184619.366000", "184620.366000", "184621.366000", "184622.366000", "184623.366000", "184624.367000", "184625.367000", "184626.367000", "184627.366000", "184628.366000", "184629.366000", "184630.366000", "184631.366000", "184632.366000", "184633.366000", "184634.366000", "184635.366000", "184636.366000", "184637.366000", "184638.366000", "184639.366000", "184640.366000", "184641.367000", "184642.367000", "184643.367000", "184644.366000", "184645.366000", "184646.366000", "184647.366000", "184648.366000", "184649.366000", "184649.866000", "184651.366000", "184651.866000", "184653.366000", "184653.866000", "184654.866000", "184655.866000", "184656.866000", "184657.866000", "184658.867000", "184659.867000", "184700.867000", "184701.866000", "184702.866000", "184703.866000", "184704.866000", "184705.866000", "184706.866000", "184707.866000", "184708.866000", "184709.866000", "184710.866000", "184711.866000", "184712.866000", "184713.866000", "184714.866000", "184715.866000", "184716.867000", "184717.915000", "184718.867000", "184719.866000", "184720.866000", "184721.866000", "184722.866000", "184723.866000", "184724.866000", "184725.866000", "184726.866000", "184727.866000", "184728.866000", "184729.866000", "184730.866000", "184731.866000", "184732.866000", "184733.867000", "184734.867000", "184735.867000", "184736.866000", "184737.866000", "184738.866000", "184739.866000", "184740.866000", "184741.366000", "184742.866000", "184743.366000", "184744.866000", "184745.366000", "184746.866000", "184747.366000", "184748.366000", "184749.366000", "184750.366000", "184751.367000", "184752.367000", "184753.367000", "184754.366000", "184755.366000", "184756.866000", "184758.366000", "184759.866000", "184801.366000", "184802.866000", "184804.366000", "184805.866000", "184807.366000", "184808.867000", "184810.367000", "184811.866000", "184813.366000", "184814.866000", "184816.366000", "184817.866000", "184819.366000", "184820.366000", "184821.866000", "184823.366000", "184824.866000", "184826.367000", "184827.867000", "184829.366000", "184830.866000", "184832.366000", "184833.866000", "184835.366000", "184836.866000", "184838.366000", "184839.866000", "184841.366000", "184842.866000", "184844.367000", "184845.867000", "184847.366000", "184848.866000", "184850.366000", "184851.866000", "184853.366000", "184854.866000", "184856.366000", "184857.866000", "184859.366000", "184900.866000", "184902.367000", "184903.867000", "184905.366000", "184906.866000", "184908.366000", "184909.866000", "184911.366000", "184912.866000", "184914.366000", "184915.866000", "184917.366000", "184918.867000", "184920.367000", "184921.866000", "184923.366000", "184924.866000", "184926.366000", "184927.866000", "184929.366000", "184930.866000", "184932.366000", "184933.866000", "184935.366000", "184936.367000", "184937.867000", "184939.366000", "184940.866000", "184942.366000", "184943.866000", "184945.366000", "184946.866000", "184948.366000", "184949.866000", "184951.366000", "184952.866000", "184954.367000", "184955.867000", "184957.366000", "184958.866000", "185000.366000", "185001.866000", "185003.366000", "185004.866000", "185006.366000", "185007.866000", "185009.366000", "185010.866000", "185012.367000", "185013.867000", "185015.366000", "185016.866000", "185018.366000", "185019.866000", "185021.366000", "185022.866000", "185024.366000", "185025.866000", "185027.366000", "185028.867000", "185030.367000", "185031.866000", "185033.366000", "185034.866000", "185036.366000", "185037.866000", "185039.366000", "185040.866000", "185042.366000", "185043.866000", "185045.366000", "185046.867000", "185048.367000", "185049.866000", "185050.866000", "185052.366000", "185053.866000", "185055.366000", "185056.866000", "185058.366000", "185059.866000", "185101.366000", "185102.866000", "185104.367000", "185105.867000", "185107.366000", "185108.866000", "185110.366000", "185111.866000", "185113.366000", "185114.866000", "185116.366000", "185117.866000", "185119.366000", "185120.867000", "185122.367000", "185123.867000", "185125.366000", "185126.866000", "185128.366000", "185129.866000", "185131.366000", "185132.866000", "185134.366000", "185135.866000", "185137.366000", "185138.867000", "185140.367000", "185141.866000", "185143.366000", "185144.866000", "185146.366000", "185147.866000", "185149.366000", "185150.866000", "185152.366000", "185153.866000", "185155.366000", "185156.867000", "185158.367000", "185159.866000", "185201.366000", "185202.866000", "185203.866000", "185205.366000", "185206.866000", "185208.366000", "185209.866000", "185211.366000", "185212.866000", "185214.367000", "185215.867000", "185217.366000", "185218.866000", "185220.366000", "185221.866000", "185223.366000", "185224.866000", "185226.366000", "185227.866000", "185229.366000", "185230.867000", "185232.367000", "185233.867000", "185235.366000", "185236.866000", "185238.366000", "185239.866000", "185241.366000", "185242.866000", "185244.366000", "185245.866000", "185247.366000", "185248.867000", "185250.367000", "185251.866000", "185253.386000", "185254.866000", "185256.366000", "185257.866000", "185259.366000", "185300.866000", "185302.366000", "185303.866000", "185305.366000", "185306.867000", "185308.367000", "185309.866000", "185311.366000", "185312.866000", "185314.366000", "185315.866000", "185317.366000", "185318.366000", "185319.866000", "185321.366000", "185322.866000", "185324.367000", "185325.867000", "185327.366000", "185328.866000", "185330.366000", "185331.866000", "185333.366000", "185334.866000", "185336.366000", "185337.866000", "185339.366000", "185340.867000", "185342.367000", "185343.867000", "185345.366000", "185346.866000", "185348.366000", "185349.866000", "185351.366000", "185352.866000", "185354.366000", "185355.866000", "185357.366000", "185358.867000", "185400.367000", "185401.866000", "185403.366000", "185404.866000", "185406.366000", "185407.866000", "185409.366000", "185410.866000", "185412.366000", "185413.866000", "185415.366000", "185416.867000", "185418.367000", "185419.866000", "185421.366000", "185422.866000", "185424.366000", "185425.866000", "185427.366000", "185428.866000", "185430.366000", "185431.866000", "185432.866000", "185434.367000", "185435.867000", "185437.366000", "185438.866000", "185440.366000", "185441.866000", "185443.366000", "185444.866000", "185446.386000", "185447.866000", "185449.366000", "185450.867000", "185452.367000", "185453.866000", "185455.366000", "185456.866000", "185458.366000", "185459.880000", "185501.366000", "185502.866000", "185504.366000", "185505.866000", "185507.366000", "185508.867000", "185510.367000", "185511.866000", "185513.366000", "185514.866000", "185516.366000", "185517.866000", "185519.366000", "185520.866000", "185522.366000", "185523.866000", "185525.366000", "185526.867000", "185528.367000", "185529.866000", "185531.366000", "185532.866000", "185534.366000", "185535.866000", "185537.366000", "185538.866000", "185540.366000", "185541.866000", "185543.367000", "185544.867000", "185546.366000", "185547.366000", "185548.866000", "185550.366000", "185551.866000", "185553.366000", "185554.866000", "185556.366000", "185557.866000", "185559.366000", "185600.867000", "185602.367000", "185603.866000", "185605.366000", "185606.866000", "185608.366000", "185609.866000", "185611.366000", "185612.866000", "185614.366000", "185615.866000", "185617.366000", "185618.867000", "185620.367000", "185621.866000", "185623.366000", "185624.866000", "185626.366000", "185627.866000", "185629.366000", "185630.866000", "185632.366000", "185633.866000", "185635.366000", "185636.867000", "185638.387000", "185639.866000", "185641.366000", "185642.866000", "185644.366000", "185645.866000", "185647.366000", "185648.866000", "185650.366000", "185651.866000", "185653.367000", "185654.867000", "185656.366000", "185657.866000", "185659.366000", "185700.866000", "185701.866000", "185703.366000", "185704.866000", "185706.366000", "185707.866000", "185709.366000", "185710.867000", "185712.367000", "185713.866000", "185715.366000", "185716.866000", "185718.386000", "185719.866000", "185721.366000", "185722.867000", "185724.366000", "185725.866000", "185727.366000", "185728.867000", "185730.367000", "185731.866000", "185733.366000", "185734.866000", "185736.366000", "185737.866000", "185739.366000", "185740.866000", "185742.366000", "185743.866000", "185745.366000", "185746.867000", "185748.367000", "185749.866000", "185751.366000", "185752.866000", "185754.366000", "185755.866000", "185757.366000", "185758.866000", "185800.366000", "185801.866000", "185803.367000", "185804.867000", "185806.366000", "185807.866000", "185809.366000", "185810.866000", "185812.366000", "185813.866000", "185815.366000", "185816.366000", "185817.866000", "185819.366000", "185820.867000", "185822.367000", "185823.866000", "185825.366000", "185826.866000", "185828.366000", "185829.866000", "185831.366000", "185832.866000", "185834.366000", "185835.866000", "185837.366000", "185838.867000", "185840.367000", "185841.866000", "185843.366000", "185844.866000", "185846.366000", "185847.866000", "185849.366000", "185850.866000", "185852.366000", "185853.866000", "185855.366000", "185856.867000", "185858.367000", "185859.866000", "185901.366000", "185902.866000", "185904.366000", "185905.866000", "185907.366000", "185908.866000", "185910.366000", "185911.866000", "185913.367000", "185914.867000", "185916.366000", "185917.866000", "185919.366000", "185920.866000", "185922.366000", "185923.866000", "185925.366000", "185926.866000", "185928.366000", "185929.866000", "185930.867000", "185932.367000", "185933.866000", "185935.366000", "185936.866000", "185938.366000", "185939.866000", "185941.366000", "185942.866000", "185944.366000", "185945.866000", "185947.366000", "185948.867000", "185950.367000", "185951.866000", "185953.366000", "185954.866000", "185956.366000", "185957.866000", "185959.366000", "190000.881000", "190002.366000", "190003.866000", "190005.367000", "190006.867000", "190008.367000", "190009.866000", "190011.136000"],
