{
  "AcquisitionMatrixPE": 104,
  "AcquisitionNumber": 1,
  "AcquisitionTime": "19:02:2.315000",
  "BandwidthPerPixelPhaseEncode": 17.17,
  "BaseResolution": 104,
  "BodyPartExamined": "BRAIN",
  "CoilString": "HC1-7;NC1_2",
  "ConsistencyInfo": "N4_VE11C_LATEST_20160120",
  "ConversionSoftware": "dcm2niix",
  "ConversionSoftwareVersion": "v1.0.20190720  (JP2:OpenJPEG) GCC7.3.0",
  "DerivedVendorReportedEchoSpacing": 0.000560011,
  "DeviceSerialNumber": "167006",
  "DwellTime": 2.1e-06,
  "EchoTime": 0.037,
  "EchoTrainLength": 104,
  "EffectiveEchoSpacing": 0.000560011,
  "FlipAngle": 52,
  "ImageComments": "Unaliased_MB4_PE3_LB",
  "ImageOrientationPatientDICOM": [0.999246, -0.0362422, -0.01393, 0.0273879, 0.912231, -0.408761],
  "ImageType": [
    "ORIGINAL",
    "PRIMARY",
    "M",
    "MB",
    "ND",
    "MOSAIC"
],
  "ImagingFrequency": 123.259,
  "InPlanePhaseEncodingDirectionDICOM": "COL",
  "InstitutionAddress": "Chemin_Queen-Mary_4565_Montreal_District_CA_H3W_1W5",
  "InstitutionName": "IUGM",
  "InstitutionalDepartmentName": "Department",
  "MRAcquisitionType": "2D",
  "MagneticFieldStrength": 3,
  "Manufacturer": "Siemens",
  "ManufacturersModelName": "Prisma_fit",
  "Modality": "MR",
  "MultibandAccelerationFactor": 4,
  "PartialFourier": 1,
  "PatientPosition": "HFS",
  "PercentPhaseFOV": 100,
  "PhaseEncodingDirection": "j",
  "PhaseEncodingSteps": 104,
  "PhaseResolution": 1,
  "PixelBandwidth": 2290,
  "ProcedureStepDescription": "hcptrt_generic",
  "ProtocolName": "func_task-wm_run-1",
  "PulseSequenceDetails": "%CustomerSeq%_cmrr_mbep2d_bold",
  "ReceiveCoilActiveElements": "HC1-7;NC1,2",
  "ReceiveCoilName": "HeadNeck_64",
  "ReconMatrixPE": 104,
  "RepetitionTime": 1.49,
  "SAR": 0.0378792,
  "ScanOptions": "FS",
  "ScanningSequence": "EP",
  "SequenceName": "epfid2d1_104",
  "SequenceVariant": "SK_SS",
  "SeriesDescription": "func_task-wm_run-1",
  "SeriesNumber": 9,
  "ShimSetting": [614, -7259, -8856, 380, 24, -362, 32, 27],
  "SliceThickness": 2,
  "SliceTiming": [0, 0.785, 0.0975, 0.8825, 0.195, 0.98, 0.295, 1.0775, 0.3925, 1.175, 0.49, 1.275, 0.5875, 1.3725, 0.685, 0, 0.785, 0.0975, 0.8825, 0.195, 0.98, 0.295, 1.0775, 0.3925, 1.175, 0.49, 1.275, 0.5875, 1.3725, 0.685, 0, 0.785, 0.0975, 0.8825, 0.195, 0.98, 0.295, 1.0775, 0.3925, 1.175, 0.49, 1.275, 0.5875, 1.3725, 0.685, 0, 0.785, 0.0975, 0.8825, 0.195, 0.98, 0.295, 1.0775, 0.3925, 1.175, 0.49, 1.275, 0.5875, 1.3725, 0.685],
  "SoftwareVersions": "syngo_MR_E11",
  "SpacingBetweenSlices": 2,
  "StationName": "MRC35049",
  "TaskName": "wm",
  "TotalReadoutTime": 0.0576811,
  "TxRefAmp": 243.642,
  "WipMemBlock": "ac76b079-d088-4f59-8c7b-fa0a887da818||Sequence: R016 ve11c/master r/e634e98; Dec 19 2017 11:00:25 by eja",
  "dcmmeta_affine": [
    [-1.998491883277893, 0.05477571859955788, -0.055043481290340424, 103.14376831054688],
    [0.07248438149690628, 1.8244612216949463, -0.816141664981842, -62.037147521972656],
    [-0.027859974652528763, 0.8175211548805237, 1.8250707387924194, -67.50308990478516],
    [0.0, 0.0, 0.0, 1.0]
],
  "dcmmeta_reorient_transform": [
    [0.0, -1.0, 0.0, 103.0],
    [1.0, 0.0, 0.0, 0.0],
    [0.0, 0.0, 1.0, 0.0],
    [0.0, 0.0, 0.0, 1.0]
],
  "dcmmeta_shape": [104, 104, 60, 202],
  "dcmmeta_slice_dim": 2,
  "dcmmeta_version": 0.6,
  "global": {
    "const": {
      "AcquisitionMatrix": [104, 0, 0, 104],
      "AngioFlag": "N",
      "BitsAllocated": 16,
      "BitsStored": 16,
      "BodyPartExamined": "BRAIN",
      "Columns": 832,
      "EchoNumbers": 1,
      "EchoTime": 37.0,
      "EchoTrainLength": 104,
      "FlipAngle": 52.0,
      "HighBit": 15,
      "ImageOrientationPatient": [0.99924594517002, -0.0362421925407, -0.0139299871186, 0.02738785992052, 0.91223061454278, -0.4087605790923],
      "ImagePositionPatient": [-856.17508101187, -763.60193100953, 324.4203208781],
      "ImageType": [
        "ORIGINAL",
        "PRIMARY",
        "M",
        "MB",
        "ND",
        "MOSAIC"
],
      "ImagedNucleus": "1H",
      "ImagingFrequency": 123.25925,
      "InPlanePhaseEncodingDirection": "COL",
      "MRAcquisitionType": "2D",
      "MagneticFieldStrength": 3.0,
      "Manufacturer": "SIEMENS",
      "ManufacturerModelName": "Prisma_fit",
      "Modality": "MR",
      "NumberOfAverages": 1.0,
      "NumberOfPhaseEncodingSteps": 104,
      "PercentPhaseFieldOfView": 100.0,
      "PercentSampling": 100.0,
      "PerformedProcedureStepStartTime": "184119.776000",
      "PhotometricInterpretation": "MONOCHROME2",
      "PixelBandwidth": 2290.0,
      "PixelRepresentation": 0,
      "PixelSpacing": [2.0, 2.0],
      "ProtocolName": "func_task-wm_run-1",
      "RepetitionTime": 1490.0,
      "Rows": 832,
      "SAR": 0.03787924753879,
      "SamplesPerPixel": 1,
      "ScanOptions": "FS",
      "ScanningSequence": "EP",
      "SequenceName": "epfid2d1_104",
      "SequenceVariant": [
        "SK",
        "SS"
],
      "SeriesDescription": "func_task-wm_run-1",
      "SeriesNumber": 9,
      "SeriesTime": "190255.406000",
      "SliceLocation": -39.122101238621,
      "SliceThickness": 2.0,
      "SmallestImagePixelValue": 0,
      "SoftwareVersions": "syngo MR E11",
      "SpacingBetweenSlices": 2.0000000427595,
      "SpecificCharacterSet": "ISO_IR 100",
      "StudyID": "1",
      "StudyTime": "184119.699000",
      "TransmitCoilName": "Body",
      "VariableFlipAngleFlag": "N",
      "WindowCenterWidthExplanation": "Algo1",
      "dBdt": 0.0},
    "slices": {}
  },
  "time": {
    "samples": {
      "AcquisitionNumber": [1, 2, 3, 4, 5, 6, 7, 8, 9, 10, 11, 12, 13, 14, 15, 16, 17, 18, 19, 20, 21, 22, 23, 24, 25, 26, 27, 28, 29, 30, 31, 32, 33, 34, 35, 36, 37, 38, 39, 40, 41, 42, 43, 44, 45, 46, 47, 48, 49, 50, 51, 52, 53, 54, 55, 56, 57, 58, 59, 60, 61, 62, 63, 64, 65, 66, 67, 68, 69, 70, 71, 72, 73, 74, 75, 76, 77, 78, 79, 80, 81, 82, 83, 84, 85, 86, 87, 88, 89, 90, 91, 92, 93, 94, 95, 96, 97, 98, 99, 100, 101, 102, 103, 104, 105, 106, 107, 108, 109, 110, 111, 112, 113, 114, 115, 116, 117, 118, 119, 120, 121, 122, 123, 124, 125, 126, 127, 128, 129, 130, 131, 132, 133, 134, 135, 136, 137, 138, 139, 140, 141, 142, 143, 144, 145, 146, 147, 148, 149, 150, 151, 152, 153, 154, 155, 156, 157, 158, 159, 160, 161, 162, 163, 164, 165, 166, 167, 168, 169, 170, 171, 172, 173, 174, 175, 176, 177, 178, 179, 180, 181, 182, 183, 184, 185, 186, 187, 188, 189, 190, 191, 192, 193, 194, 195, 196, 197, 198, 199, 200, 201, 202],
      "AcquisitionTime": ["190202.315000", "190203.805000", "190205.295000", "190206.785000", "190208.275000", "190209.765000", "190211.255000", "190212.745000", "190214.235000", "190215.725000", "190217.215000", "190218.705000", "190220.195000", "190221.685000", "190223.175000", "190224.665000", "190226.155000", "190227.645000", "190229.135000", "190230.625000", "190232.115000", "190233.605000", "190235.095000", "190236.585000", "190238.075000", "190239.565000", "190241.055000", "190242.545000", "190244.035000", "190245.525000", "190247.015000", "190248.505000", "190249.995000", "190251.485000", "190252.975000", "190254.465000", "190255.955000", "190257.445000", "190258.935000", "190300.425000", "190301.915000", "190303.405000", "190304.895000", "190306.385000", "190307.875000", "190309.365000", "190310.855000", "190312.345000", "190313.835000", "190315.325000", "190316.815000", "190318.305000", "190319.795000", "190321.285000", "190322.775000", "190324.265000", "190325.755000", "190327.245000", "190328.735000", "190330.225000", "190331.715000", "190333.205000", "190334.695000", "190336.185000", "190337.675000", "190339.165000", "190340.655000", "190342.145000", "190343.635000", "190345.125000", "190346.615000", "190348.105000", "190349.595000", "190351.085000", "190352.575000", "190354.065000", "190355.555000", "190357.045000", "190358.535000", "190400.025000", "190401.515000", "190403.005000", "190404.495000", "190405.985000", "190407.475000", "190408.965000", "190410.455000", "190411.945000", "190413.435000", "190414.925000", "190416.415000", "190417.905000", "190419.395000", "190420.885000", "190422.375000", "190423.865000", "190425.355000", "190426.845000", "190428.335000", "190429.825000", "190431.315000", "190432.805000", "190434.295000", "190435.785000", "190437.275000", "190438.765000", "190440.255000", "190441.745000", "190443.235000", "190444.725000", "190446.215000", "190447.705000", "190449.195000", "190450.685000", "190452.175000", "190453.665000", "190455.155000", "190456.645000", "190458.135000", "190459.625000", "190501.115000", "190502.605000", "190504.095000", "190505.585000", "190507.075000", "190508.565000", "190510.055000", "190511.545000", "190513.035000", "190514.525000", "190516.015000", "190517.505000", "190518.995000", "190520.485000", "190521.975000", "190523.465000", "190524.955000", "190526.445000", "190527.935000", "190529.425000", "190530.915000", "190532.405000", "190533.895000", "190535.385000", "190536.875000", "190538.365000", "190539.855000", "190541.345000", "190542.835000", "190544.325000", "190545.815000", "190547.305000", "190548.795000", "190550.285000", "190551.775000", "190553.265000", "190554.755000", "190556.245000", "190557.735000", "190559.225000", "190600.715000", "190602.205000", "190603.695000", "190605.185000", "190606.675000", "190608.165000", "190609.655000", "190611.145000", "190612.635000", "190614.125000", "190615.615000", "190617.105000", "190618.595000", "190620.085000", "190621.575000", "190623.065000", "190624.555000", "190626.045000", "190627.535000", "190629.025000", "190630.515000", "190632.005000", "190633.495000", "190634.985000", "190636.475000", "190637.965000", "190639.455000", "190640.945000", "190642.435000", "190643.925000", "190645.415000", "190646.905000", "190648.395000", "190649.885000", "190651.375000", "190652.865000", "190654.355000", "190655.845000", "190657.335000", "190658.825000", "190700.315000", "190701.805000"],
      "ContentTime": ["190255.408000", "190256.407000", "190257.407000", "190258.407000", "190259.907000", "190300.408000", "190301.908000", "190302.408000", "190303.408000", "190304.408000", "190305.408000", "190306.408000", "190307.408000", "190308.408000", "190309.408000", "190310.408000", "190311.407000", "190312.407000", "190313.407000", "190314.407000", "190315.407000", "190316.407000", "190317.407000", "190318.408000", "190319.421000", "190320.408000", "190321.408000", "190322.408000", "190323.408000", "190324.408000", "190325.408000", "190326.408000", "190327.408000", "190328.408000", "190329.407000", "190330.407000", "190331.407000", "190331.907000", "190332.907000", "190333.907000", "190334.907000", "190335.908000", "190336.908000", "190337.908000", "190338.908000", "190339.908000", "190340.908000", "190341.908000", "190342.908000", "190343.908000", "190344.908000", "190345.908000", "190346.907000", "190347.907000", "190348.907000", "190349.907000", "190350.907000", "190351.907000", "190352.908000", "190353.908000", "190354.908000", "190355.908000", "190356.908000", "190357.908000", "190358.908000", "190359.908000", "190400.908000", "190401.908000", "190402.908000", "190403.907000", "190404.907000", "190405.907000", "190406.907000", "190407.907000", "190408.907000", "190409.907000", "190410.908000", "190411.908000", "190412.908000", "190413.408000", "190414.908000", "190415.408000", "190416.408000", "190417.408000", "190418.408000", "190419.409000", "190420.408000", "190421.407000", "190422.407000", "190423.407000", "190424.407000", "190425.407000", "190426.407000", "190427.407000", "190428.408000", "190429.408000", "190430.408000", "190431.408000", "190432.408000", "190433.408000", "190434.408000", "190435.408000", "190436.408000", "190437.908000", "190439.407000", "190440.907000", "190441.907000", "190443.407000", "190444.907000", "190446.408000", "190447.908000", "190449.408000", "190450.908000", "190452.408000", "190453.908000", "190455.408000", "190456.907000", "190458.407000", "190459.907000", "190501.407000", "190502.908000", "190504.408000", "190505.908000", "190507.408000", "190508.908000", "190510.408000", "190511.908000", "190513.408000", "190514.907000", "190516.407000", "190517.907000", "190519.407000", "190520.908000", "190522.408000", "190523.908000", "190525.408000", "190526.908000", "190528.408000", "190529.908000", "190531.407000", "190532.907000", "190534.407000", "190535.907000", "190537.407000", "190538.908000", "190540.408000", "190541.908000", "190543.408000", "190544.908000", "190546.408000", "190547.908000", "190549.407000", "190550.907000", "190552.407000", "190553.907000", "190554.907000", "190556.408000", "190557.908000", "190559.408000", "190600.908000", "190602.408000", "190603.908000", "190605.408000", "190606.907000", "190608.407000", "190609.907000", "190611.407000", "190612.908000", "190614.408000", "190615.908000", "190617.408000", "190618.908000", "190620.408000", "190621.908000", "190623.408000", "190624.907000", "190626.407000", "190627.907000", "190629.407000", "190630.908000", "190632.408000", "190633.908000", "190635.408000", "190636.908000", "190638.408000", "190639.908000", "190641.407000", "190642.907000", "190644.407000", "190645.907000", "190647.407000", "190648.908000", "190650.408000", "190651.908000", "190653.408000", "190654.908000", "190656.408000", "190657.908000", "190659.407000", "190700.907000", "190702.407000", "190703.497000"],
      "InstanceCreationTime": ["190255.408000", "190256.407000", "190257.407000", "190258.407000", "190259.907000", "190300.408000", "190301.908000", "190302.408000", "190303.408000", "190304.408000", "190305.408000", "190306.408000", "190307.408000", "190308.408000", "190309.408000", "190310.408000", "190311.407000", "190312.407000", "190313.407000", "190314.407000", "190315.407000", "190316.407000", "190317.407000", "190318.408000", "190319.421000", "190320.408000", "190321.408000", "190322.408000", "190323.408000", "190324.408000", "190325.408000", "190326.408000", "190327.408000", "190328.408000", "190329.407000", "190330.407000", "190331.407000", "190331.907000", "190332.907000", "190333.907000", "190334.907000", "190335.908000", "190336.908000", "190337.908000", "190338.908000", "190339.908000", "190340.908000", "190341.908000", "190342.908000", "190343.908000", "190344.908000", "190345.908000", "190346.907000", "190347.907000", "190348.907000", "190349.907000", "190350.907000", "190351.907000", "190352.908000", "190353.908000", "190354.908000", "190355.908000", "190356.908000", "190357.908000", "190358.908000", "190359.908000", "190400.908000", "190401.908000", "190402.908000", "190403.907000", "190404.907000", "190405.907000", "190406.907000", "190407.907000", "190408.907000", "190409.907000", "190410.908000", "190411.908000", "190412.908000", "190413.408000", "190414.908000", "190415.408000", "190416.408000", "190417.408000", "190418.408000", "190419.409000", "190420.408000", "190421.407000", "190422.407000", "190423.407000", "190424.407000", "190425.407000", "190426.407000", "190427.407000", "190428.408000", "190429.408000", "190430.408000", "190431.408000", "190432.408000", "190433.408000", "190434.408000", "190435.408000", "190436.408000", "190437.908000", "190439.407000", "190440.907000", "190441.907000", "190443.407000", "190444.907000", "190446.408000", "190447.908000", "190449.408000", "190450.908000", "190452.408000", "190453.908000", "190455.408000", "190456.907000", "190458.407000", "190459.907000", "190501.407000", "190502.908000", "190504.408000", "190505.908000", "190507.408000", "190508.908000", "190510.408000", "190511.908000", "190513.408000", "190514.907000", "190516.407000", "190517.907000", "190519.407000", "190520.908000", "190522.408000", "190523.908000", "190525.408000", "190526.908000", "190528.408000", "190529.908000", "190531.407000", "190532.907000", "190534.407000", "190535.907000", "190537.407000", "190538.908000", "190540.408000", "190541.908000", "190543.408000", "190544.908000", "190546.408000", "190547.908000", "190549.407000", "190550.907000", "190552.407000", "190553.907000", "190554.907000", "190556.408000", "190557.908000", "190559.408000", "190600.908000", "190602.408000", "190603.908000", "190605.408000", "190606.907000", "190608.407000", "190609.907000", "190611.407000", "190612.908000", "190614.408000", "190615.908000", "190617.408000", "190618.908000", "190620.408000", "190621.908000", "190623.408000", "190624.907000", "190626.407000", "190627.907000", "190629.407000", "190630.908000", "190632.408000", "190633.908000", "190635.408000", "190636.908000", "190638.408000", "190639.908000", "190641.407000", "190642.907000", "190644.407000", "190645.907000", "190647.407000", "190648.908000", "190650.408000", "190651.908000", "190653.408000", "190654.908000", "190656.408000", "190657.908000", "190659.407000", "190700.907000", "190702.407000", "190703.497000"],
      "InstanceNumber": [1, 2, 3, 4, 5, 6, 7, 8, 9, 10, 11, 12, 13, 14, 15, 16, 17, 18, 19, 20, 21, 22, 23, 24, 25, 26, 27, 28, 29, 30, 31, 32, 33, 34, 35, 36, 37, 38, 39, 40, 41, 42, 43, 44, 45, 46, 47, 48, 49, 50, 51, 52, 53, 54, 55, 56, 57, 58, 59, 60, 61, 62, 63, 64, 65, 66, 67, 68, 69, 70, 71, 72, 73, 74, 75, 76, 77, 78, 79, 80, 81, 82, 83, 84, 85, 86, 87, 88, 89, 90, 91, 92, 93, 94, 95, 96, 97, 98, 99, 100, 101, 102, 103, 104, 105, 106, 107, 108, 109, 110, 111, 112, 113, 114, 115, 116, 117, 118, 119, 120, 121, 122, 123, 124, 125, 126, 127, 128, 129, 130, 131, 132, 133, 134, 135, 136, 137, 138, 139, 140, 141, 142, 143, 144, 145, 146, 147, 148, 149, 150, 151, 152, 153, 154, 155, 156, 157, 158, 159, 160, 161, 162, 163, 164, 165, 166, 167, 168, 169, 170, 171, 172, 173, 174, 175, 176, 177, 178, 179, 180, 181, 182, 183, 184, 185, 186, 187, 188, 189, 190, 191, 192, 193, 194, 195, 196, 197, 198, 199, 200, 201, 202],
      "LargestImagePixelValue": [56510, 54860, 53196, 52618, 51889, 51686, 52182, 51815, 52809, 51193, 52594, 51870, 52003, 51664, 52366, 51953, 52529, 51583, 53164, 51959, 52470, 52668, 49564, 54289, 53943, 52445, 49764, 49501, 49874, 50054, 50997, 51922, 51595, 51469, 51715, 51526, 51457, 51219, 50799, 49728, 50735, 51561, 52057, 51284, 51926, 52141, 51756, 51735, 52204, 52370, 51277, 51477, 52136, 52224, 52712, 51017, 51311, 51745, 50346, 49945, 51667, 50575, 51328, 50705, 51490, 51589, 50852, 50388, 50860, 51978, 51342, 51058, 51391, 52239, 51793, 51291, 51813, 51837, 50946, 51411, 51343, 52714, 51891, 50809, 50677, 50510, 51376, 51325, 51372, 51660, 51670, 51123, 50664, 50933, 51365, 48941, 50033, 50075, 50191, 54860, 52069, 50865, 51653, 49285, 49357, 50131, 50034, 51130, 52109, 52345, 52457, 50787, 50206, 49356, 49084, 49964, 48500, 49132, 48495, 49346, 49887, 50307, 50658, 50511, 49733, 48969, 49032, 49837, 48646, 48259, 48783, 49042, 49187, 49083, 49590, 50243, 49757, 48356, 48562, 48748, 48593, 48867, 49261, 49629, 49586, 49467, 49895, 50883, 49840, 48331, 49820, 48895, 49936, 50790, 50925, 49428, 50390, 50805, 51097, 52326, 49520, 48686, 49284, 49144, 49256, 49557, 49619, 50216, 50313, 48450, 48347, 48243, 48552, 49594, 48723, 49216, 50604, 50124, 49119, 49355, 49254, 49491, 50134, 50210, 49827, 49018, 48983, 50988, 50565, 50774, 49815, 49668, 49151, 48895, 49312, 49793, 49999, 50605, 49227, 49242, 49376, 49352],
      "WindowCenter": [10410.0, 10354.0, 10332.0, 10325.0, 10318.0, 10331.0, 10322.0, 10293.0, 10276.0, 10239.0, 10230.0, 10222.0, 10235.0, 10238.0, 10247.0, 10247.0, 10254.0, 10258.0, 10283.0, 10275.0, 10280.0, 10281.0, 10177.0, 10262.0, 10272.0, 10254.0, 10243.0, 10243.0, 10223.0, 10217.0, 10213.0, 10225.0, 10221.0, 10199.0, 10177.0, 10157.0, 10154.0, 10150.0, 10159.0, 10180.0, 10207.0, 10214.0, 10224.0, 10221.0, 10226.0, 10228.0, 10236.0, 10248.0, 10255.0, 10234.0, 10217.0, 10207.0, 10223.0, 10219.0, 10244.0, 10260.0, 10265.0, 10260.0, 10248.0, 10241.0, 10266.0, 10261.0, 10251.0, 10234.0, 10221.0, 10211.0, 10220.0, 10223.0, 10221.0, 10225.0, 10225.0, 10237.0, 10243.0, 10228.0, 10227.0, 10237.0, 10243.0, 10241.0, 10229.0, 10235.0, 10223.0, 10231.0, 10223.0, 10243.0, 10244.0, 10239.0, 10237.0, 10223.0, 10221.0, 10217.0, 10201.0, 10203.0, 10205.0, 10220.0, 10217.0, 10202.0, 10220.0, 10228.0, 10208.0, 10068.0, 10228.0, 10195.0, 10202.0, 10203.0, 10223.0, 10214.0, 10204.0, 10205.0, 10210.0, 10208.0, 10187.0, 10156.0, 10140.0, 10129.0, 10137.0, 10158.0, 10172.0, 10206.0, 10221.0, 10211.0, 10208.0, 10211.0, 10212.0, 10221.0, 10235.0, 10233.0, 10225.0, 10224.0, 10205.0, 10206.0, 10197.0, 10187.0, 10181.0, 10173.0, 10171.0, 10168.0, 10167.0, 10169.0, 10186.0, 10185.0, 10174.0, 10175.0, 10189.0, 10199.0, 10199.0, 10196.0, 10279.0, 10295.0, 10242.0, 10178.0, 10211.0, 10204.0, 10207.0, 10204.0, 10210.0, 10218.0, 10235.0, 10236.0, 10239.0, 10239.0, 10211.0, 10205.0, 10193.0, 10182.0, 10175.0, 10181.0, 10190.0, 10198.0, 10193.0, 10179.0, 10180.0, 10178.0, 10176.0, 10194.0, 10202.0, 10212.0, 10212.0, 10205.0, 10194.0, 10192.0, 10168.0, 10155.0, 10158.0, 10164.0, 10174.0, 10179.0, 10184.0, 10274.0, 10256.0, 10235.0, 10235.0, 10236.0, 10223.0, 10208.0, 10201.0, 10197.0, 10189.0, 10211.0, 10216.0, 10238.0, 10236.0, 10224.0],
      "WindowWidth": [22471.0, 22305.0, 22235.0, 22211.0, 22188.0, 22213.0, 22187.0, 22117.0, 22072.0, 21994.0, 21964.0, 21949.0, 21975.0, 21986.0, 22007.0, 22008.0, 22019.0, 22033.0, 22080.0, 22070.0, 22079.0, 22081.0, 21845.0, 22041.0, 22048.0, 22008.0, 21999.0, 21999.0, 21960.0, 21940.0, 21931.0, 21950.0, 21945.0, 21895.0, 21842.0, 21794.0, 21787.0, 21784.0, 21805.0, 21858.0, 21917.0, 21930.0, 21944.0, 21945.0, 21954.0, 21959.0, 21975.0, 22005.0, 22022.0, 21973.0, 21939.0, 21919.0, 21964.0, 21939.0, 21991.0, 22037.0, 22050.0, 22034.0, 22013.0, 22003.0, 22049.0, 22042.0, 22017.0, 21981.0, 21950.0, 21926.0, 21947.0, 21958.0, 21949.0, 21960.0, 21956.0, 21985.0, 21997.0, 21962.0, 21960.0, 21986.0, 21996.0, 21990.0, 21969.0, 21980.0, 21957.0, 21964.0, 21948.0, 21994.0, 22006.0, 21997.0, 21985.0, 21954.0, 21948.0, 21939.0, 21905.0, 21915.0, 21917.0, 21974.0, 21937.0, 21914.0, 21952.0, 21968.0, 21920.0, 21584.0, 21970.0, 21893.0, 21903.0, 21914.0, 21961.0, 21942.0, 21919.0, 21911.0, 21919.0, 21914.0, 21867.0, 21802.0, 21767.0, 21751.0, 21770.0, 21814.0, 21853.0, 21922.0, 21961.0, 21936.0, 21923.0, 21925.0, 21927.0, 21949.0, 21984.0, 21984.0, 21966.0, 21956.0, 21926.0, 21929.0, 21905.0, 21879.0, 21860.0, 21844.0, 21840.0, 21829.0, 21826.0, 21844.0, 21879.0, 21877.0, 21852.0, 21856.0, 21882.0, 21906.0, 21904.0, 21893.0, 22101.0, 22133.0, 22010.0, 21849.0, 21913.0, 21910.0, 21915.0, 21905.0, 21916.0, 21942.0, 21983.0, 21983.0, 21986.0, 21977.0, 21932.0, 21919.0, 21893.0, 21864.0, 21850.0, 21861.0, 21879.0, 21895.0, 21878.0, 21857.0, 21861.0, 21856.0, 21853.0, 21886.0, 21913.0, 21932.0, 21923.0, 21909.0, 21887.0, 21883.0, 21831.0, 21801.0, 21804.0, 21812.0, 21844.0, 21853.0, 21870.0, 22085.0, 22089.0, 21996.0, 21991.0, 21986.0, 21960.0, 21925.0, 21910.0, 21896.0, 21880.0, 21933.0, 21946.0, 21999.0, 21996.0, 21966.0]
    },
    "slices": {}
  }
}