{
  "AcquisitionMatrixPE": 104,
  "AcquisitionNumber": 1,
  "AcquisitionTime": "19:08:6.512500",
  "BandwidthPerPixelPhaseEncode": 17.17,
  "BaseResolution": 104,
  "BodyPartExamined": "BRAIN",
  "CoilString": "HC1-7;NC1_2",
  "ConsistencyInfo": "N4_VE11C_LATEST_20160120",
  "ConversionSoftware": "dcm2niix",
  "ConversionSoftwareVersion": "v1.0.20190720  (JP2:OpenJPEG) GCC7.3.0",
  "DerivedVendorReportedEchoSpacing": 0.000560011,
  "DeviceSerialNumber": "167006",
  "DwellTime": 2.1e-06,
  "EchoTime": 0.037,
  "EchoTrainLength": 104,
  "EffectiveEchoSpacing": 0.000560011,
  "FlipAngle": 52,
  "ImageComments": "Unaliased_MB4_PE3_LB",
  "ImageOrientationPatientDICOM": [0.999246, -0.0362422, -0.01393, 0.0273879, 0.912231, -0.408761],
  "ImageType": [
    "ORIGINAL",
    "PRIMARY",
    "M",
    "MB",
    "ND",
    "MOSAIC"
],
  "ImagingFrequency": 123.259,
  "InPlanePhaseEncodingDirectionDICOM": "COL",
  "InstitutionAddress": "Chemin_Queen-Mary_4565_Montreal_District_CA_H3W_1W5",
  "InstitutionName": "IUGM",
  "InstitutionalDepartmentName": "Department",
  "MRAcquisitionType": "2D",
  "MagneticFieldStrength": 3,
  "Manufacturer": "Siemens",
  "ManufacturersModelName": "Prisma_fit",
  "Modality": "MR",
  "MultibandAccelerationFactor": 4,
  "PartialFourier": 1,
  "PatientPosition": "HFS",
  "PercentPhaseFOV": 100,
  "PhaseEncodingDirection": "j",
  "PhaseEncodingSteps": 104,
  "PhaseResolution": 1,
  "PixelBandwidth": 2290,
  "ProcedureStepDescription": "hcptrt_generic",
  "ProtocolName": "func_task-motor_run-1",
  "PulseSequenceDetails": "%CustomerSeq%_cmrr_mbep2d_bold",
  "ReceiveCoilActiveElements": "HC1-7;NC1,2",
  "ReceiveCoilName": "HeadNeck_64",
  "ReconMatrixPE": 104,
  "RepetitionTime": 1.49,
  "SAR": 0.0377368,
  "ScanOptions": "FS",
  "ScanningSequence": "EP",
  "SequenceName": "epfid2d1_104",
  "SequenceVariant": "SK_SS",
  "SeriesDescription": "func_task-motor_run-1",
  "SeriesNumber": 11,
  "ShimSetting": [614, -7259, -8856, 380, 24, -362, 32, 27],
  "SliceThickness": 2,
  "SliceTiming": [0, 0.7825, 0.0975, 0.8825, 0.195, 0.98, 0.2925, 1.0775, 0.3925, 1.175, 0.49, 1.2725, 0.5875, 1.3725, 0.685, 0, 0.7825, 0.0975, 0.8825, 0.195, 0.98, 0.2925, 1.0775, 0.3925, 1.175, 0.49, 1.2725, 0.5875, 1.3725, 0.685, 0, 0.7825, 0.0975, 0.8825, 0.195, 0.98, 0.2925, 1.0775, 0.3925, 1.175, 0.49, 1.2725, 0.5875, 1.3725, 0.685, 0, 0.7825, 0.0975, 0.8825, 0.195, 0.98, 0.2925, 1.0775, 0.3925, 1.175, 0.49, 1.2725, 0.5875, 1.3725, 0.685],
  "SoftwareVersions": "syngo_MR_E11",
  "SpacingBetweenSlices": 2,
  "StationName": "MRC35049",
  "TaskName": "motor",
  "TotalReadoutTime": 0.0576811,
  "TxRefAmp": 243.642,
  "WipMemBlock": "45bbd89c-8795-4b8b-b27f-f7137a0d2ced||Sequence: R016 ve11c/master r/e634e98; Dec 19 2017 11:00:25 by eja",
  "dcmmeta_affine": [
    [-1.998491883277893, 0.05477571859955788, -0.055043481290340424, 103.14376831054688],
    [0.07248438149690628, 1.8244612216949463, -0.816141664981842, -62.037147521972656],
    [-0.027859974652528763, 0.8175211548805237, 1.8250707387924194, -67.50308990478516],
    [0.0, 0.0, 0.0, 1.0]
],
  "dcmmeta_reorient_transform": [
    [0.0, -1.0, 0.0, 103.0],
    [1.0, 0.0, 0.0, 0.0],
    [0.0, 0.0, 1.0, 0.0],
    [0.0, 0.0, 0.0, 1.0]
],
  "dcmmeta_shape": [104, 104, 60, 144],
  "dcmmeta_slice_dim": 2,
  "dcmmeta_version": 0.6,
  "global": {
    "const": {
      "AcquisitionMatrix": [104, 0, 0, 104],
      "AngioFlag": "N",
      "BitsAllocated": 16,
      "BitsStored": 16,
      "BodyPartExamined": "BRAIN",
      "Columns": 832,
      "EchoNumbers": 1,
      "EchoTime": 37.0,
      "EchoTrainLength": 104,
      "FlipAngle": 52.0,
      "HighBit": 15,
      "ImageOrientationPatient": [0.99924594517002, -0.0362421925407, -0.0139299871186, 0.02738785992052, 0.91223061454278, -0.4087605790923],
      "ImagePositionPatient": [-856.17508101187, -763.60193100953, 324.4203208781],
      "ImageType": [
        "ORIGINAL",
        "PRIMARY",
        "M",
        "MB",
        "ND",
        "MOSAIC"
],
      "ImagedNucleus": "1H",
      "ImagingFrequency": 123.259248,
      "InPlanePhaseEncodingDirection": "COL",
      "MRAcquisitionType": "2D",
      "MagneticFieldStrength": 3.0,
      "Manufacturer": "SIEMENS",
      "ManufacturerModelName": "Prisma_fit",
      "Modality": "MR",
      "NumberOfAverages": 1.0,
      "NumberOfPhaseEncodingSteps": 104,
      "PercentPhaseFieldOfView": 100.0,
      "PercentSampling": 100.0,
      "PerformedProcedureStepStartTime": "184119.776000",
      "PhotometricInterpretation": "MONOCHROME2",
      "PixelBandwidth": 2290.0,
      "PixelRepresentation": 0,
      "PixelSpacing": [2.0, 2.0],
      "ProtocolName": "func_task-motor_run-1",
      "RepetitionTime": 1490.0,
      "Rows": 832,
      "SAR": 0.03773681581443,
      "SamplesPerPixel": 1,
      "ScanOptions": "FS",
      "ScanningSequence": "EP",
      "SequenceName": "epfid2d1_104",
      "SequenceVariant": [
        "SK",
        "SS"
],
      "SeriesDescription": "func_task-motor_run-1",
      "SeriesNumber": 11,
      "SeriesTime": "190903.063000",
      "SliceLocation": -39.122101238621,
      "SliceThickness": 2.0,
      "SmallestImagePixelValue": 0,
      "SoftwareVersions": "syngo MR E11",
      "SpacingBetweenSlices": 2.0000000427595,
      "SpecificCharacterSet": "ISO_IR 100",
      "StudyID": "1",
      "StudyTime": "184119.699000",
      "TransmitCoilName": "Body",
      "VariableFlipAngleFlag": "N",
      "WindowCenterWidthExplanation": "Algo1",
      "dBdt": 0.0},
    "slices": {}
  },
  "time": {
    "samples": {
      "AcquisitionNumber": [1, 2, 3, 4, 5, 6, 7, 8, 9, 10, 11, 12, 13, 14, 15, 16, 17, 18, 19, 20, 21, 22, 23, 24, 25, 26, 27, 28, 29, 30, 31, 32, 33, 34, 35, 36, 37, 38, 39, 40, 41, 42, 43, 44, 45, 46, 47, 48, 49, 50, 51, 52, 53, 54, 55, 56, 57, 58, 59, 60, 61, 62, 63, 64, 65, 66, 67, 68, 69, 70, 71, 72, 73, 74, 75, 76, 77, 78, 79, 80, 81, 82, 83, 84, 85, 86, 87, 88, 89, 90, 91, 92, 93, 94, 95, 96, 97, 98, 99, 100, 101, 102, 103, 104, 105, 106, 107, 108, 109, 110, 111, 112, 113, 114, 115, 116, 117, 118, 119, 120, 121, 122, 123, 124, 125, 126, 127, 128, 129, 130, 131, 132, 133, 134, 135, 136, 137, 138, 139, 140, 141, 142, 143, 144],
      "AcquisitionTime": ["190806.512500", "190808.002500", "190809.492500", "190810.982500", "190812.472500", "190813.962500", "190815.452500", "190816.942500", "190818.432500", "190819.922500", "190821.412500", "190822.902500", "190824.392500", "190825.882500", "190827.372500", "190828.862500", "190830.352500", "190831.842500", "190833.332500", "190834.822500", "190836.312500", "190837.802500", "190839.292500", "190840.782500", "190842.272500", "190843.762500", "190845.252500", "190846.742500", "190848.232500", "190849.722500", "190851.212500", "190852.702500", "190854.192500", "190855.682500", "190857.172500", "190858.662500", "190900.152500", "190901.642500", "190903.132500", "190904.622500", "190906.112500", "190907.602500", "190909.092500", "190910.582500", "190912.072500", "190913.562500", "190915.052500", "190916.542500", "190918.032500", "190919.522500", "190921.012500", "190922.502500", "190923.992500", "190925.482500", "190926.972500", "190928.462500", "190929.952500", "190931.442500", "190932.932500", "190934.422500", "190935.912500", "190937.402500", "190938.892500", "190940.382500", "190941.872500", "190943.362500", "190944.852500", "190946.342500", "190947.832500", "190949.322500", "190950.812500", "190952.302500", "190953.792500", "190955.282500", "190956.772500", "190958.262500", "190959.752500", "191001.242500", "191002.732500", "191004.222500", "191005.712500", "191007.202500", "191008.692500", "191010.182500", "191011.672500", "191013.162500", "191014.652500", "191016.142500", "191017.632500", "191019.122500", "191020.612500", "191022.102500", "191023.592500", "191025.082500", "191026.572500", "191028.062500", "191029.552500", "191031.042500", "191032.532500", "191034.022500", "191035.512500", "191037.002500", "191038.492500", "191039.982500", "191041.472500", "191042.962500", "191044.452500", "191045.942500", "191047.432500", "191048.922500", "191050.412500", "191051.902500", "191053.392500", "191054.882500", "191056.372500", "191057.862500", "191059.352500", "191100.842500", "191102.332500", "191103.822500", "191105.312500", "191106.802500", "191108.292500", "191109.782500", "191111.272500", "191112.762500", "191114.252500", "191115.742500", "191117.232500", "191118.722500", "191120.212500", "191121.702500", "191123.192500", "191124.682500", "191126.172500", "191127.662500", "191129.152500", "191130.642500", "191132.132500", "191133.622500", "191135.112500", "191136.602500", "191138.092500", "191139.582500"],
      "ContentTime": ["190903.065000", "190904.064000", "190905.064000", "190906.084000", "190907.064000", "190908.065000", "190909.064000", "190910.064000", "190911.064000", "190912.064000", "190913.064000", "190914.064000", "190915.064000", "190916.064000", "190917.064000", "190918.064000", "190919.064000", "190920.064000", "190921.064000", "190922.064000", "190923.064000", "190924.064000", "190925.065000", "190926.064000", "190927.064000", "190928.064000", "190929.064000", "190930.064000", "190931.064000", "190932.064000", "190933.064000", "190934.064000", "190935.064000", "190936.064000", "190937.064000", "190938.064000", "190939.064000", "190940.064000", "190941.064000", "190942.064000", "190943.065000", "190944.064000", "190945.064000", "190946.064000", "190947.064000", "190948.064000", "190949.064000", "190950.064000", "190951.064000", "190952.064000", "190953.064000", "190954.064000", "190955.064000", "190956.064000", "190957.084000", "190958.064000", "190959.064000", "191000.065000", "191001.064000", "191002.064000", "191003.064000", "191004.064000", "191005.064000", "191006.064000", "191007.064000", "191008.084000", "191009.064000", "191010.064000", "191011.064000", "191012.064000", "191013.064000", "191014.064000", "191015.064000", "191016.064000", "191016.564000", "191018.065000", "191018.564000", "191020.064000", "191021.064000", "191021.564000", "191023.084000", "191023.564000", "191024.564000", "191025.564000", "191026.564000", "191027.564000", "191028.564000", "191029.564000", "191030.564000", "191031.564000", "191032.564000", "191033.564000", "191034.564000", "191035.565000", "191036.564000", "191037.564000", "191038.564000", "191039.564000", "191040.564000", "191041.564000", "191042.564000", "191043.564000", "191044.564000", "191045.564000", "191046.564000", "191047.564000", "191048.564000", "191049.564000", "191050.564000", "191051.564000", "191053.065000", "191054.564000", "191056.064000", "191057.564000", "191059.064000", "191100.564000", "191102.064000", "191103.564000", "191105.064000", "191106.564000", "191108.064000", "191109.564000", "191111.064000", "191112.564000", "191114.064000", "191115.064000", "191116.564000", "191118.064000", "191119.564000", "191121.064000", "191122.564000", "191124.064000", "191125.564000", "191127.064000", "191128.564000", "191130.064000", "191131.564000", "191133.064000", "191134.564000", "191136.064000", "191137.564000", "191139.064000", "191140.564000", "191141.932000"],
      "InstanceCreationTime": ["190903.065000", "190904.064000", "190905.064000", "190906.084000", "190907.064000", "190908.065000", "190909.064000", "190910.064000", "190911.064000", "190912.064000", "190913.064000", "190914.064000", "190915.064000", "190916.064000", "190917.064000", "190918.064000", "190919.064000", "190920.064000", "190921.064000", "190922.064000", "190923.064000", "190924.064000", "190925.065000", "190926.064000", "190927.064000", "190928.064000", "190929.064000", "190930.064000", "190931.064000", "190932.064000", "190933.064000", "190934.064000", "190935.064000", "190936.064000", "190937.064000", "190938.064000", "190939.064000", "190940.064000", "190941.064000", "190942.064000", "190943.065000", "190944.064000", "190945.064000", "190946.064000", "190947.064000", "190948.064000", "190949.064000", "190950.064000", "190951.064000", "190952.064000", "190953.064000", "190954.064000", "190955.064000", "190956.064000", "190957.084000", "190958.064000", "190959.064000", "191000.065000", "191001.064000", "191002.064000", "191003.064000", "191004.064000", "191005.064000", "191006.064000", "191007.064000", "191008.084000", "191009.064000", "191010.064000", "191011.064000", "191012.064000", "191013.064000", "191014.064000", "191015.064000", "191016.064000", "191016.564000", "191018.065000", "191018.564000", "191020.064000", "191021.064000", "191021.564000", "191023.084000", "191023.564000", "191024.564000", "191025.564000", "191026.564000", "191027.564000", "191028.564000", "191029.564000", "191030.564000", "191031.564000", "191032.564000", "191033.564000", "191034.564000", "191035.565000", "191036.564000", "191037.564000", "191038.564000", "191039.564000", "191040.564000", "191041.564000", "191042.564000", "191043.564000", "191044.564000", "191045.564000", "191046.564000", "191047.564000", "191048.564000", "191049.564000", "191050.564000", "191051.564000", "191053.065000", "191054.564000", "191056.064000", "191057.564000", "191059.064000", "191100.564000", "191102.064000", "191103.564000", "191105.064000", "191106.564000", "191108.064000", "191109.564000", "191111.064000", "191112.564000", "191114.064000", "191115.064000", "191116.564000", "191118.064000", "191119.564000", "191121.064000", "191122.564000", "191124.064000", "191125.564000", "191127.064000", "191128.564000", "191130.064000", "191131.564000", "191133.064000", "191134.564000", "191136.064000", "191137.564000", "191139.064000", "191140.564000", "191141.932000"],
      "InstanceNumber": [1, 2, 3, 4, 5, 6, 7, 8, 9, 10, 11, 12, 13, 14, 15, 16, 17, 18, 19, 20, 21, 22, 23, 24, 25, 26, 27, 28, 29, 30, 31, 32, 33, 34, 35, 36, 37, 38, 39, 40, 41, 42, 43, 44, 45, 46, 47, 48, 49, 50, 51, 52, 53, 54, 55, 56, 57, 58, 59, 60, 61, 62, 63, 64, 65, 66, 67, 68, 69, 70, 71, 72, 73, 74, 75, 76, 77, 78, 79, 80, 81, 82, 83, 84, 85, 86, 87, 88, 89, 90, 91, 92, 93, 94, 95, 96, 97, 98, 99, 100, 101, 102, 103, 104, 105, 106, 107, 108, 109, 110, 111, 112, 113, 114, 115, 116, 117, 118, 119, 120, 121, 122, 123, 124, 125, 126, 127, 128, 129, 130, 131, 132, 133, 134, 135, 136, 137, 138, 139, 140, 141, 142, 143, 144],
      "LargestImagePixelValue": [55865, 54452, 55444, 53002, 52738, 52940, 52786, 56183, 55383, 54671, 54446, 54096, 54057, 54661, 54048, 53913, 53314, 55059, 56045, 54547, 53349, 52762, 51617, 51472, 52043, 51838, 51768, 52987, 52521, 52328, 52448, 53204, 52754, 53500, 53337, 53238, 53251, 53391, 55722, 55002, 54268, 54602, 54284, 53624, 53622, 53820, 53272, 53344, 53924, 53308, 53612, 53571, 53579, 53690, 53984, 53626, 53273, 53266, 53619, 53206, 53084, 53308, 53250, 53192, 52791, 53166, 53408, 53177, 53262, 52539, 52819, 53186, 51877, 52878, 52505, 53924, 53097, 53240, 52621, 52874, 52348, 51921, 52028, 51918, 51843, 52092, 51814, 52048, 51831, 52055, 52281, 52393, 52310, 52343, 52621, 52546, 52582, 52516, 51777, 52440, 52121, 52376, 52545, 52229, 52030, 52612, 52170, 52326, 52087, 52340, 52737, 53208, 52554, 52645, 53006, 53145, 53046, 53140, 52413, 52208, 52364, 52321, 51970, 52542, 52097, 52523, 52691, 52400, 52400, 56359, 54053, 52842, 53015, 52832, 53029, 53229, 54318, 54979, 57765, 56193, 60261, 59065, 54331, 51254],
      "WindowCenter": [10207.0, 10202.0, 10206.0, 10205.0, 10214.0, 10224.0, 10226.0, 10380.0, 10360.0, 10364.0, 10367.0, 10360.0, 10350.0, 10353.0, 10357.0, 10362.0, 10347.0, 10286.0, 10324.0, 10310.0, 10292.0, 10276.0, 10278.0, 10288.0, 10305.0, 10306.0, 10316.0, 10345.0, 10344.0, 10344.0, 10335.0, 10337.0, 10338.0, 10353.0, 10355.0, 10363.0, 10360.0, 10368.0, 10378.0, 10363.0, 10347.0, 10369.0, 10381.0, 10374.0, 10353.0, 10332.0, 10317.0, 10316.0, 10325.0, 10345.0, 10370.0, 10353.0, 10345.0, 10337.0, 10334.0, 10324.0, 10319.0, 10343.0, 10358.0, 10353.0, 10353.0, 10350.0, 10352.0, 10353.0, 10354.0, 10343.0, 10331.0, 10330.0, 10344.0, 10340.0, 10332.0, 10330.0, 10328.0, 10347.0, 10345.0, 10347.0, 10320.0, 10315.0, 10319.0, 10319.0, 10313.0, 10307.0, 10309.0, 10297.0, 10297.0, 10304.0, 10313.0, 10317.0, 10326.0, 10330.0, 10331.0, 10339.0, 10338.0, 10333.0, 10330.0, 10329.0, 10329.0, 10321.0, 10307.0, 10305.0, 10311.0, 10309.0, 10306.0, 10285.0, 10291.0, 10310.0, 10317.0, 10312.0, 10317.0, 10321.0, 10336.0, 10344.0, 10332.0, 10319.0, 10303.0, 10299.0, 10299.0, 10307.0, 10307.0, 10318.0, 10329.0, 10339.0, 10342.0, 10338.0, 10332.0, 10344.0, 10347.0, 10355.0, 10346.0, 10337.0, 10350.0, 10336.0, 10346.0, 10337.0, 10328.0, 10319.0, 10320.0, 10316.0, 10330.0, 10336.0, 10360.0, 10365.0, 10345.0, 10306.0],
      "WindowWidth": [21982.0, 21942.0, 21969.0, 21925.0, 21934.0, 21954.0, 21957.0, 22326.0, 22285.0, 22282.0, 22286.0, 22272.0, 22247.0, 22247.0, 22257.0, 22273.0, 22239.0, 22122.0, 22169.0, 22139.0, 22103.0, 22071.0, 22078.0, 22105.0, 22148.0, 22150.0, 22167.0, 22228.0, 22231.0, 22232.0, 22213.0, 22213.0, 22221.0, 22253.0, 22254.0, 22270.0, 22262.0, 22280.0, 22306.0, 22269.0, 22231.0, 22276.0, 22305.0, 22289.0, 22244.0, 22195.0, 22164.0, 22163.0, 22176.0, 22225.0, 22314.0, 22245.0, 22225.0, 22210.0, 22207.0, 22180.0, 22169.0, 22224.0, 22255.0, 22246.0, 22245.0, 22239.0, 22242.0, 22253.0, 22256.0, 22224.0, 22191.0, 22188.0, 22232.0, 22226.0, 22207.0, 22200.0, 22205.0, 22242.0, 22229.0, 22230.0, 22172.0, 22154.0, 22173.0, 22176.0, 22158.0, 22144.0, 22143.0, 22123.0, 22126.0, 22138.0, 22157.0, 22172.0, 22194.0, 22198.0, 22199.0, 22215.0, 22211.0, 22203.0, 22195.0, 22191.0, 22192.0, 22175.0, 22146.0, 22137.0, 22148.0, 22146.0, 22170.0, 22091.0, 22103.0, 22144.0, 22161.0, 22151.0, 22161.0, 22174.0, 22204.0, 22221.0, 22199.0, 22168.0, 22132.0, 22122.0, 22125.0, 22140.0, 22139.0, 22166.0, 22193.0, 22215.0, 22226.0, 22212.0, 22201.0, 22225.0, 22233.0, 22252.0, 22231.0, 22225.0, 22237.0, 22205.0, 22227.0, 22209.0, 22188.0, 22169.0, 22165.0, 22153.0, 22161.0, 22232.0, 22227.0, 22243.0, 22232.0, 22150.0]
    },
    "slices": {}
  }
}