{
  "AcquisitionMatrixPE": 104,
  "AcquisitionNumber": 1,
  "AcquisitionTime": "19:24:38.185000",
  "BandwidthPerPixelPhaseEncode": 17.17,
  "BaseResolution": 104,
  "BodyPartExamined": "BRAIN",
  "CoilString": "HC1-7;NC1_2",
  "ConsistencyInfo": "N4_VE11C_LATEST_20160120",
  "ConversionSoftware": "dcm2niix",
  "ConversionSoftwareVersion": "v1.0.20190720  (JP2:OpenJPEG) GCC7.3.0",
  "DerivedVendorReportedEchoSpacing": 0.000560011,
  "DeviceSerialNumber": "167006",
  "DwellTime": 2.1e-06,
  "EchoTime": 0.037,
  "EchoTrainLength": 104,
  "EffectiveEchoSpacing": 0.000560011,
  "FlipAngle": 52,
  "ImageComments": "Unaliased_MB4_PE3_LB",
  "ImageOrientationPatientDICOM": [0.999246, -0.0362422, -0.01393, 0.0273879, 0.912231, -0.408761],
  "ImageType": [
    "ORIGINAL",
    "PRIMARY",
    "M",
    "MB",
    "ND",
    "MOSAIC"
],
  "ImagingFrequency": 123.259,
  "InPlanePhaseEncodingDirectionDICOM": "COL",
  "InstitutionAddress": "Chemin_Queen-Mary_4565_Montreal_District_CA_H3W_1W5",
  "InstitutionName": "IUGM",
  "InstitutionalDepartmentName": "Department",
  "MRAcquisitionType": "2D",
  "MagneticFieldStrength": 3,
  "Manufacturer": "Siemens",
  "ManufacturersModelName": "Prisma_fit",
  "Modality": "MR",
  "MultibandAccelerationFactor": 4,
  "PartialFourier": 1,
  "PatientPosition": "HFS",
  "PercentPhaseFOV": 100,
  "PhaseEncodingDirection": "j",
  "PhaseEncodingSteps": 104,
  "PhaseResolution": 1,
  "PixelBandwidth": 2290,
  "ProcedureStepDescription": "hcptrt_generic",
  "ProtocolName": "func_task-relational_run-1",
  "PulseSequenceDetails": "%CustomerSeq%_cmrr_mbep2d_bold",
  "ReceiveCoilActiveElements": "HC1-7;NC1,2",
  "ReceiveCoilName": "HeadNeck_64",
  "ReconMatrixPE": 104,
  "RepetitionTime": 1.49,
  "SAR": 0.037635,
  "ScanOptions": "FS",
  "ScanningSequence": "EP",
  "SequenceName": "epfid2d1_104",
  "SequenceVariant": "SK_SS",
  "SeriesDescription": "func_task-relational_run-1",
  "SeriesNumber": 19,
  "ShimSetting": [614, -7259, -8856, 380, 24, -362, 32, 27],
  "SliceThickness": 2,
  "SliceTiming": [0, 0.7825, 0.0975, 0.88, 0.195, 0.98, 0.2925, 1.0775, 0.39, 1.175, 0.49, 1.2725, 0.5875, 1.37, 0.685, 0, 0.7825, 0.0975, 0.88, 0.195, 0.98, 0.2925, 1.0775, 0.39, 1.175, 0.49, 1.2725, 0.5875, 1.37, 0.685, 0, 0.7825, 0.0975, 0.88, 0.195, 0.98, 0.2925, 1.0775, 0.39, 1.175, 0.49, 1.2725, 0.5875, 1.37, 0.685, 0, 0.7825, 0.0975, 0.88, 0.195, 0.98, 0.2925, 1.0775, 0.39, 1.175, 0.49, 1.2725, 0.5875, 1.37, 0.685],
  "SoftwareVersions": "syngo_MR_E11",
  "SpacingBetweenSlices": 2,
  "StationName": "MRC35049",
  "TaskName": "relational",
  "TotalReadoutTime": 0.0576811,
  "TxRefAmp": 243.642,
  "WipMemBlock": "9691b706-41a8-483a-96a1-53f228078253||Sequence: R016 ve11c/master r/e634e98; Dec 19 2017 11:00:25 by eja",
  "dcmmeta_affine": [
    [-1.998491883277893, 0.05477571859955788, -0.055043481290340424, 103.14376831054688],
    [0.07248438149690628, 1.8244612216949463, -0.816141664981842, -62.037147521972656],
    [-0.027859974652528763, 0.8175211548805237, 1.8250707387924194, -67.50308990478516],
    [0.0, 0.0, 0.0, 1.0]
],
  "dcmmeta_reorient_transform": [
    [0.0, -1.0, 0.0, 103.0],
    [1.0, 0.0, 0.0, 0.0],
    [0.0, 0.0, 1.0, 0.0],
    [0.0, 0.0, 0.0, 1.0]
],
  "dcmmeta_shape": [104, 104, 60, 119],
  "dcmmeta_slice_dim": 2,
  "dcmmeta_version": 0.6,
  "global": {
    "const": {
      "AcquisitionMatrix": [104, 0, 0, 104],
      "AngioFlag": "N",
      "BitsAllocated": 16,
      "BitsStored": 16,
      "BodyPartExamined": "BRAIN",
      "Columns": 832,
      "EchoNumbers": 1,
      "EchoTime": 37.0,
      "EchoTrainLength": 104,
      "FlipAngle": 52.0,
      "HighBit": 15,
      "ImageOrientationPatient": [0.99924594517002, -0.0362421925407, -0.0139299871186, 0.02738785992052, 0.91223061454278, -0.4087605790923],
      "ImagePositionPatient": [-856.17508101187, -763.60193100953, 324.4203208781],
      "ImageType": [
        "ORIGINAL",
        "PRIMARY",
        "M",
        "MB",
        "ND",
        "MOSAIC"
],
      "ImagedNucleus": "1H",
      "ImagingFrequency": 123.259248,
      "InPlanePhaseEncodingDirection": "COL",
      "MRAcquisitionType": "2D",
      "MagneticFieldStrength": 3.0,
      "Manufacturer": "SIEMENS",
      "ManufacturerModelName": "Prisma_fit",
      "Modality": "MR",
      "NumberOfAverages": 1.0,
      "NumberOfPhaseEncodingSteps": 104,
      "PercentPhaseFieldOfView": 100.0,
      "PercentSampling": 100.0,
      "PerformedProcedureStepStartTime": "184119.776000",
      "PhotometricInterpretation": "MONOCHROME2",
      "PixelBandwidth": 2290.0,
      "PixelRepresentation": 0,
      "PixelSpacing": [2.0, 2.0],
      "ProtocolName": "func_task-relational_run-1",
      "RepetitionTime": 1490.0,
      "Rows": 832,
      "SAR": 0.03763497810968,
      "SamplesPerPixel": 1,
      "ScanOptions": "FS",
      "ScanningSequence": "EP",
      "SequenceName": "epfid2d1_104",
      "SequenceVariant": [
        "SK",
        "SS"
],
      "SeriesDescription": "func_task-relational_run-1",
      "SeriesNumber": 19,
      "SeriesTime": "192533.026000",
      "SliceLocation": -39.122101238621,
      "SliceThickness": 2.0,
      "SmallestImagePixelValue": 0,
      "SoftwareVersions": "syngo MR E11",
      "SpacingBetweenSlices": 2.0000000427595,
      "SpecificCharacterSet": "ISO_IR 100",
      "StudyID": "1",
      "StudyTime": "184119.699000",
      "TransmitCoilName": "Body",
      "VariableFlipAngleFlag": "N",
      "WindowCenterWidthExplanation": "Algo1",
      "dBdt": 0.0},
    "slices": {}
  },
  "time": {
    "samples": {
      "AcquisitionNumber": [1, 2, 3, 4, 5, 6, 7, 8, 9, 10, 11, 12, 13, 14, 15, 16, 17, 18, 19, 20, 21, 22, 23, 24, 25, 26, 27, 28, 29, 30, 31, 32, 33, 34, 35, 36, 37, 38, 39, 40, 41, 42, 43, 44, 45, 46, 47, 48, 49, 50, 51, 52, 53, 54, 55, 56, 57, 58, 59, 60, 61, 62, 63, 64, 65, 66, 67, 68, 69, 70, 71, 72, 73, 74, 75, 76, 77, 78, 79, 80, 81, 82, 83, 84, 85, 86, 87, 88, 89, 90, 91, 92, 93, 94, 95, 96, 97, 98, 99, 100, 101, 102, 103, 104, 105, 106, 107, 108, 109, 110, 111, 112, 113, 114, 115, 116, 117, 118, 119],
      "AcquisitionTime": ["192438.185000", "192439.675000", "192441.165000", "192442.655000", "192444.145000", "192445.635000", "192447.125000", "192448.615000", "192450.105000", "192451.595000", "192453.085000", "192454.575000", "192456.065000", "192457.555000", "192459.045000", "192500.535000", "192502.025000", "192503.515000", "192505.005000", "192506.495000", "192507.985000", "192509.475000", "192510.965000", "192512.455000", "192513.945000", "192515.435000", "192516.925000", "192518.415000", "192519.905000", "192521.395000", "192522.885000", "192524.375000", "192525.865000", "192527.355000", "192528.845000", "192530.335000", "192531.825000", "192533.315000", "192534.805000", "192536.295000", "192537.785000", "192539.275000", "192540.765000", "192542.255000", "192543.745000", "192545.235000", "192546.725000", "192548.215000", "192549.705000", "192551.195000", "192552.685000", "192554.175000", "192555.665000", "192557.155000", "192558.645000", "192600.135000", "192601.625000", "192603.115000", "192604.605000", "192606.095000", "192607.585000", "192609.075000", "192610.565000", "192612.055000", "192613.545000", "192615.035000", "192616.525000", "192618.015000", "192619.505000", "192620.995000", "192622.485000", "192623.975000", "192625.465000", "192626.955000", "192628.445000", "192629.935000", "192631.425000", "192632.915000", "192634.405000", "192635.895000", "192637.385000", "192638.875000", "192640.365000", "192641.855000", "192643.345000", "192644.835000", "192646.325000", "192647.815000", "192649.305000", "192650.795000", "192652.285000", "192653.775000", "192655.265000", "192656.755000", "192658.245000", "192659.735000", "192701.225000", "192702.715000", "192704.205000", "192705.695000", "192707.185000", "192708.675000", "192710.165000", "192711.655000", "192713.145000", "192714.635000", "192716.125000", "192717.615000", "192719.105000", "192720.595000", "192722.085000", "192723.575000", "192725.065000", "192726.555000", "192728.045000", "192729.535000", "192731.025000", "192732.515000", "192734.005000"],
      "ContentTime": ["192533.028000", "192534.027000", "192535.027000", "192536.026000", "192537.026000", "192538.026000", "192539.026000", "192540.026000", "192541.026000", "192542.026000", "192543.026000", "192544.027000", "192545.027000", "192546.027000", "192547.027000", "192548.027000", "192549.027000", "192550.027000", "192551.027000", "192552.027000", "192553.027000", "192554.026000", "192555.026000", "192556.026000", "192557.026000", "192558.026000", "192558.526000", "192600.026000", "192600.526000", "192602.027000", "192602.527000", "192604.027000", "192604.527000", "192605.527000", "192606.527000", "192607.527000", "192608.527000", "192609.527000", "192610.527000", "192611.526000", "192612.526000", "192613.526000", "192614.526000", "192615.526000", "192616.526000", "192617.526000", "192618.526000", "192619.527000", "192620.527000", "192621.527000", "192622.719000", "192623.527000", "192624.527000", "192625.527000", "192626.527000", "192627.527000", "192628.526000", "192629.526000", "192630.526000", "192631.526000", "192632.526000", "192633.026000", "192634.526000", "192635.526000", "192636.527000", "192637.027000", "192638.527000", "192639.027000", "192640.527000", "192641.027000", "192642.027000", "192643.027000", "192644.027000", "192645.027000", "192646.026000", "192647.026000", "192648.026000", "192649.026000", "192650.026000", "192651.026000", "192652.026000", "192653.026000", "192654.027000", "192655.027000", "192656.027000", "192657.027000", "192658.027000", "192659.027000", "192700.027000", "192701.027000", "192702.027000", "192703.027000", "192704.026000", "192705.026000", "192706.026000", "192707.026000", "192708.026000", "192709.026000", "192710.026000", "192711.026000", "192712.027000", "192713.027000", "192714.027000", "192715.027000", "192715.527000", "192717.027000", "192718.527000", "192720.027000", "192721.526000", "192723.026000", "192724.526000", "192726.026000", "192727.526000", "192729.027000", "192730.527000", "192732.027000", "192733.527000", "192735.027000", "192736.077000"],
      "InstanceCreationTime": ["192533.028000", "192534.027000", "192535.027000", "192536.026000", "192537.026000", "192538.026000", "192539.026000", "192540.026000", "192541.026000", "192542.026000", "192543.026000", "192544.027000", "192545.027000", "192546.027000", "192547.027000", "192548.027000", "192549.027000", "192550.027000", "192551.027000", "192552.027000", "192553.027000", "192554.026000", "192555.026000", "192556.026000", "192557.026000", "192558.026000", "192558.526000", "192600.026000", "192600.526000", "192602.027000", "192602.527000", "192604.027000", "192604.527000", "192605.527000", "192606.527000", "192607.527000", "192608.527000", "192609.527000", "192610.527000", "192611.526000", "192612.526000", "192613.526000", "192614.526000", "192615.526000", "192616.526000", "192617.526000", "192618.526000", "192619.527000", "192620.527000", "192621.527000", "192622.719000", "192623.527000", "192624.527000", "192625.527000", "192626.527000", "192627.527000", "192628.526000", "192629.526000", "192630.526000", "192631.526000", "192632.526000", "192633.026000", "192634.526000", "192635.526000", "192636.527000", "192637.027000", "192638.527000", "192639.027000", "192640.527000", "192641.027000", "192642.027000", "192643.027000", "192644.027000", "192645.027000", "192646.026000", "192647.026000", "192648.026000", "192649.026000", "192650.026000", "192651.026000", "192652.026000", "192653.026000", "192654.027000", "192655.027000", "192656.027000", "192657.027000", "192658.027000", "192659.027000", "192700.027000", "192701.027000", "192702.027000", "192703.027000", "192704.026000", "192705.026000", "192706.026000", "192707.026000", "192708.026000", "192709.026000", "192710.026000", "192711.026000", "192712.027000", "192713.027000", "192714.027000", "192715.027000", "192715.527000", "192717.027000", "192718.527000", "192720.027000", "192721.526000", "192723.026000", "192724.526000", "192726.026000", "192727.526000", "192729.027000", "192730.527000", "192732.027000", "192733.527000", "192735.027000", "192736.077000"],
      "InstanceNumber": [1, 2, 3, 4, 5, 6, 7, 8, 9, 10, 11, 12, 13, 14, 15, 16, 17, 18, 19, 20, 21, 22, 23, 24, 25, 26, 27, 28, 29, 30, 31, 32, 33, 34, 35, 36, 37, 38, 39, 40, 41, 42, 43, 44, 45, 46, 47, 48, 49, 50, 51, 52, 53, 54, 55, 56, 57, 58, 59, 60, 61, 62, 63, 64, 65, 66, 67, 68, 69, 70, 71, 72, 73, 74, 75, 76, 77, 78, 79, 80, 81, 82, 83, 84, 85, 86, 87, 88, 89, 90, 91, 92, 93, 94, 95, 96, 97, 98, 99, 100, 101, 102, 103, 104, 105, 106, 107, 108, 109, 110, 111, 112, 113, 114, 115, 116, 117, 118, 119],
      "LargestImagePixelValue": [57527, 55295, 53824, 52992, 52907, 52279, 52383, 52978, 52475, 52153, 52584, 52479, 52520, 51813, 52057, 52319, 51995, 52005, 52054, 52505, 52121, 52511, 52186, 51137, 50576, 50839, 51022, 52277, 51949, 51810, 53008, 52918, 52510, 51794, 52598, 52649, 52234, 51614, 51445, 51616, 51966, 54320, 53507, 53351, 53553, 52957, 53041, 52776, 52658, 52382, 53196, 53232, 52959, 53208, 53427, 53473, 53663, 53556, 53880, 53650, 53462, 53805, 53545, 53589, 53844, 54014, 53403, 53703, 53995, 53254, 54179, 54470, 53623, 53570, 54269, 54195, 54091, 54125, 54492, 54570, 54232, 53531, 52904, 52807, 53310, 53856, 54208, 54558, 55006, 54474, 55026, 54995, 54098, 53720, 52361, 53015, 53576, 54253, 54013, 54159, 54261, 54324, 54144, 54572, 54509, 54241, 54561, 54075, 54253, 54611, 54670, 55482, 53360, 52331, 51983, 51752, 51938, 51883, 53615],
      "WindowCenter": [10432.0, 10373.0, 10330.0, 10309.0, 10280.0, 10257.0, 10259.0, 10278.0, 10298.0, 10300.0, 10302.0, 10294.0, 10284.0, 10279.0, 10283.0, 10285.0, 10286.0, 10294.0, 10288.0, 10283.0, 10284.0, 10289.0, 10271.0, 10281.0, 10275.0, 10239.0, 10218.0, 10203.0, 10189.0, 10204.0, 10226.0, 10215.0, 10192.0, 10174.0, 10161.0, 10151.0, 10148.0, 10159.0, 10181.0, 10192.0, 10208.0, 10241.0, 10248.0, 10240.0, 10222.0, 10223.0, 10220.0, 10223.0, 10233.0, 10248.0, 10263.0, 10266.0, 10261.0, 10261.0, 10249.0, 10249.0, 10256.0, 10256.0, 10254.0, 10255.0, 10257.0, 10258.0, 10259.0, 10276.0, 10290.0, 10290.0, 10285.0, 10291.0, 10298.0, 10311.0, 10334.0, 10326.0, 10304.0, 10305.0, 10310.0, 10293.0, 10282.0, 10282.0, 10275.0, 10261.0, 10244.0, 10234.0, 10244.0, 10240.0, 10235.0, 10226.0, 10220.0, 10224.0, 10238.0, 10245.0, 10250.0, 10251.0, 10237.0, 10225.0, 10230.0, 10256.0, 10259.0, 10262.0, 10259.0, 10253.0, 10242.0, 10243.0, 10238.0, 10244.0, 10242.0, 10242.0, 10257.0, 10263.0, 10271.0, 10278.0, 10263.0, 10306.0, 10333.0, 10313.0, 10314.0, 10306.0, 10288.0, 10276.0, 10290.0],
      "WindowWidth": [22543.0, 22348.0, 22224.0, 22164.0, 22093.0, 22040.0, 22040.0, 22077.0, 22125.0, 22129.0, 22134.0, 22117.0, 22094.0, 22084.0, 22093.0, 22101.0, 22103.0, 22117.0, 22106.0, 22094.0, 22098.0, 22102.0, 22065.0, 22089.0, 22079.0, 21997.0, 21947.0, 21909.0, 21881.0, 21912.0, 21957.0, 21936.0, 21882.0, 21842.0, 21811.0, 21787.0, 21783.0, 21813.0, 21865.0, 21889.0, 21923.0, 21984.0, 22004.0, 21985.0, 21943.0, 21948.0, 21940.0, 21948.0, 21973.0, 22007.0, 22036.0, 22045.0, 22034.0, 22033.0, 22006.0, 22003.0, 22018.0, 22021.0, 22016.0, 22020.0, 22027.0, 22031.0, 22035.0, 22069.0, 22099.0, 22099.0, 22091.0, 22103.0, 22118.0, 22151.0, 22201.0, 22181.0, 22134.0, 22139.0, 22147.0, 22107.0, 22080.0, 22078.0, 22067.0, 22026.0, 21990.0, 21967.0, 21990.0, 21985.0, 21970.0, 21952.0, 21944.0, 21947.0, 21973.0, 21991.0, 22001.0, 22000.0, 21970.0, 21942.0, 21961.0, 22019.0, 22028.0, 22027.0, 22020.0, 22006.0, 21980.0, 21983.0, 21975.0, 21987.0, 21986.0, 21984.0, 22015.0, 22034.0, 22050.0, 22062.0, 22028.0, 22132.0, 22221.0, 22172.0, 22173.0, 22152.0, 22109.0, 22077.0, 22098.0]
    },
    "slices": {}
  }
}