{
  "AcquisitionMatrixPE": 104,
  "AcquisitionNumber": 1,
  "AcquisitionTime": "10:58:19.105000",
  "BandwidthPerPixelPhaseEncode": 17.17,
  "BaseResolution": 104,
  "BodyPartExamined": "BRAIN",
  "CoilString": "HC1-7;NC1_2",
  "ConsistencyInfo": "N4_VE11C_LATEST_20160120",
  "ConversionSoftware": "dcm2niix",
  "ConversionSoftwareVersion": "v1.0.20190720  (JP2:OpenJPEG) GCC7.3.0",
  "DerivedVendorReportedEchoSpacing": 0.000560011,
  "DeviceSerialNumber": "167006",
  "DwellTime": 2.1e-06,
  "EchoTime": 0.037,
  "EchoTrainLength": 104,
  "EffectiveEchoSpacing": 0.000560011,
  "FlipAngle": 52,
  "ImageComments": "Unaliased_MB4_PE3_LB",
  "ImageOrientationPatientDICOM": [0.999358, 0.0213706, 0.0287692, -0.0108145, 0.94516, -0.326427],
  "ImageType": [
    "ORIGINAL",
    "PRIMARY",
    "M",
    "MB",
    "ND",
    "MOSAIC"
],
  "ImagingFrequency": 123.259,
  "InPlanePhaseEncodingDirectionDICOM": "COL",
  "InstitutionAddress": "Chemin_Queen-Mary_4565_Montreal_District_CA_H3W_1W5",
  "InstitutionName": "IUGM",
  "InstitutionalDepartmentName": "Department",
  "MRAcquisitionType": "2D",
  "MagneticFieldStrength": 3,
  "Manufacturer": "Siemens",
  "ManufacturersModelName": "Prisma_fit",
  "Modality": "MR",
  "MultibandAccelerationFactor": 4,
  "PartialFourier": 1,
  "PatientPosition": "HFS",
  "PercentPhaseFOV": 100,
  "PhaseEncodingDirection": "j",
  "PhaseEncodingSteps": 104,
  "PhaseResolution": 1,
  "PixelBandwidth": 2290,
  "ProcedureStepDescription": "hcptrt_generic",
  "ProtocolName": "func_task-language_run-1",
  "PulseSequenceDetails": "%CustomerSeq%_cmrr_mbep2d_bold",
  "ReceiveCoilActiveElements": "HC1-7;NC1,2",
  "ReceiveCoilName": "HeadNeck_64",
  "ReconMatrixPE": 104,
  "RepetitionTime": 1.49,
  "SAR": 0.0379495,
  "ScanOptions": "FS",
  "ScanningSequence": "EP",
  "SequenceName": "epfid2d1_104",
  "SequenceVariant": "SK_SS",
  "SeriesDescription": "func_task-language_run-1",
  "SeriesNumber": 13,
  "ShimSetting": [630, -7188, -8816, 714, 82, 39, -28, -20],
  "SliceThickness": 2,
  "SliceTiming": [0, 0.7825, 0.0975, 0.8825, 0.195, 0.98, 0.2925, 1.0775, 0.3925, 1.175, 0.49, 1.2725, 0.5875, 1.3725, 0.685, 0, 0.7825, 0.0975, 0.8825, 0.195, 0.98, 0.2925, 1.0775, 0.3925, 1.175, 0.49, 1.2725, 0.5875, 1.3725, 0.685, 0, 0.7825, 0.0975, 0.8825, 0.195, 0.98, 0.2925, 1.0775, 0.3925, 1.175, 0.49, 1.2725, 0.5875, 1.3725, 0.685, 0, 0.7825, 0.0975, 0.8825, 0.195, 0.98, 0.2925, 1.0775, 0.3925, 1.175, 0.49, 1.2725, 0.5875, 1.3725, 0.685],
  "SoftwareVersions": "syngo_MR_E11",
  "SpacingBetweenSlices": 2,
  "StationName": "MRC35049",
  "TaskName": "language",
  "TotalReadoutTime": 0.0576811,
  "TxRefAmp": 249.506,
  "WipMemBlock": "430db8de-23cf-4d4e-8b99-cbe62c6c4310||Sequence: R016 ve11c/master r/e634e98; Dec 19 2017 11:00:25 by eja",
  "dcmmeta_affine": [
    [-1.9987151622772217, -0.02162899635732174, 0.06833486258983612, 107.15400695800781],
    [-0.042741112411022186, 1.8903207778930664, -0.651813268661499, -63.055328369140625],
    [0.05753837153315544, 0.6528549194335938, 1.8895686864852905, -67.32987213134766],
    [0.0, 0.0, 0.0, 1.0]
],
  "dcmmeta_reorient_transform": [
    [0.0, -1.0, 0.0, 103.0],
    [1.0, 0.0, 0.0, 0.0],
    [0.0, 0.0, 1.0, 0.0],
    [0.0, 0.0, 0.0, 1.0]
],
  "dcmmeta_shape": [104, 104, 60, 159],
  "dcmmeta_slice_dim": 2,
  "dcmmeta_version": 0.6,
  "global": {
    "const": {
      "AcquisitionMatrix": [104, 0, 0, 104],
      "AngioFlag": "N",
      "BitsAllocated": 16,
      "BitsStored": 16,
      "BodyPartExamined": "BRAIN",
      "Columns": 832,
      "EchoNumbers": 1,
      "EchoTime": 37.0,
      "EchoTrainLength": 104,
      "FlipAngle": 52.0,
      "HighBit": 15,
      "ImageOrientationPatient": [0.99935761033624, 0.02137055602205, 0.02876918487456, -0.010814498146, 0.94516038789578, -0.3264274617469],
      "ImagePositionPatient": [-824.58560830441, -835.28223769498, 216.60940997539],
      "ImageType": [
        "ORIGINAL",
        "PRIMARY",
        "M",
        "MB",
        "ND",
        "MOSAIC"
],
      "ImagedNucleus": "1H",
      "ImagingFrequency": 123.259472,
      "InPlanePhaseEncodingDirection": "COL",
      "MRAcquisitionType": "2D",
      "MagneticFieldStrength": 3.0,
      "Manufacturer": "SIEMENS",
      "ManufacturerModelName": "Prisma_fit",
      "Modality": "MR",
      "NumberOfAverages": 1.0,
      "NumberOfPhaseEncodingSteps": 104,
      "PercentPhaseFieldOfView": 100.0,
      "PercentSampling": 100.0,
      "PerformedProcedureStepStartTime": "103442.847000",
      "PhotometricInterpretation": "MONOCHROME2",
      "PixelBandwidth": 2290.0,
      "PixelRepresentation": 0,
      "PixelSpacing": [2.0, 2.0],
      "ProtocolName": "func_task-language_run-1",
      "RepetitionTime": 1490.0,
      "Rows": 832,
      "SAR": 0.03794952679015,
      "SamplesPerPixel": 1,
      "ScanOptions": "FS",
      "ScanningSequence": "EP",
      "SequenceName": "epfid2d1_104",
      "SequenceVariant": [
        "SK",
        "SS"
],
      "SeriesDescription": "func_task-language_run-1",
      "SeriesNumber": 13,
      "SeriesTime": "105928.221000",
      "SliceLocation": -39.40088132904,
      "SliceThickness": 2.0,
      "SmallestImagePixelValue": 0,
      "SoftwareVersions": "syngo MR E11",
      "SpacingBetweenSlices": 2.0000000097857,
      "SpecificCharacterSet": "ISO_IR 100",
      "StudyID": "1",
      "StudyTime": "103442.783000",
      "TransmitCoilName": "Body",
      "VariableFlipAngleFlag": "N",
      "WindowCenterWidthExplanation": "Algo1",
      "dBdt": 0.0},
    "slices": {}
  },
  "time": {
    "samples": {
      "AcquisitionNumber": [1, 2, 3, 4, 5, 6, 7, 8, 9, 10, 11, 12, 13, 14, 15, 16, 17, 18, 19, 20, 21, 22, 23, 24, 25, 26, 27, 28, 29, 30, 31, 32, 33, 34, 35, 36, 37, 38, 39, 40, 41, 42, 43, 44, 45, 46, 47, 48, 49, 50, 51, 52, 53, 54, 55, 56, 57, 58, 59, 60, 61, 62, 63, 64, 65, 66, 67, 68, 69, 70, 71, 72, 73, 74, 75, 76, 77, 78, 79, 80, 81, 82, 83, 84, 85, 86, 87, 88, 89, 90, 91, 92, 93, 94, 95, 96, 97, 98, 99, 100, 101, 102, 103, 104, 105, 106, 107, 108, 109, 110, 111, 112, 113, 114, 115, 116, 117, 118, 119, 120, 121, 122, 123, 124, 125, 126, 127, 128, 129, 130, 131, 132, 133, 134, 135, 136, 137, 138, 139, 140, 141, 142, 143, 144, 145, 146, 147, 148, 149, 150, 151, 152, 153, 154, 155, 156, 157, 158, 159],
      "AcquisitionTime": ["105819.105000", "105820.595000", "105822.085000", "105823.575000", "105825.065000", "105826.555000", "105828.045000", "105829.535000", "105831.025000", "105832.515000", "105834.005000", "105835.495000", "105836.985000", "105838.475000", "105839.965000", "105841.455000", "105842.945000", "105844.435000", "105845.925000", "105847.415000", "105848.905000", "105850.395000", "105851.885000", "105853.375000", "105854.865000", "105856.355000", "105857.845000", "105859.335000", "105900.825000", "105902.315000", "105903.805000", "105905.295000", "105906.785000", "105908.275000", "105909.765000", "105911.255000", "105912.745000", "105914.235000", "105915.725000", "105917.215000", "105918.705000", "105920.195000", "105921.685000", "105923.175000", "105924.665000", "105926.155000", "105927.645000", "105929.135000", "105930.625000", "105932.115000", "105933.605000", "105935.095000", "105936.585000", "105938.075000", "105939.565000", "105941.055000", "105942.545000", "105944.035000", "105945.525000", "105947.015000", "105948.505000", "105949.995000", "105951.485000", "105952.975000", "105954.465000", "105955.955000", "105957.445000", "105958.935000", "110000.425000", "110001.915000", "110003.405000", "110004.895000", "110006.385000", "110007.875000", "110009.365000", "110010.855000", "110012.345000", "110013.835000", "110015.325000", "110016.815000", "110018.305000", "110019.795000", "110021.285000", "110022.775000", "110024.265000", "110025.755000", "110027.245000", "110028.735000", "110030.225000", "110031.715000", "110033.205000", "110034.695000", "110036.185000", "110037.675000", "110039.165000", "110040.655000", "110042.145000", "110043.635000", "110045.125000", "110046.615000", "110048.105000", "110049.595000", "110051.085000", "110052.575000", "110054.065000", "110055.555000", "110057.045000", "110058.535000", "110100.025000", "110101.515000", "110103.005000", "110104.495000", "110105.985000", "110107.475000", "110108.965000", "110110.455000", "110111.945000", "110113.435000", "110114.925000", "110116.415000", "110117.905000", "110119.395000", "110120.885000", "110122.375000", "110123.865000", "110125.355000", "110126.845000", "110128.335000", "110129.825000", "110131.315000", "110132.805000", "110134.295000", "110135.785000", "110137.275000", "110138.765000", "110140.255000", "110141.745000", "110143.235000", "110144.725000", "110146.215000", "110147.705000", "110149.195000", "110150.685000", "110152.175000", "110153.665000", "110155.155000", "110156.645000", "110158.135000", "110159.625000", "110201.115000", "110202.605000", "110204.095000", "110205.585000", "110207.075000", "110208.565000", "110210.055000", "110211.545000", "110213.035000", "110214.525000"],
      "ContentTime": ["105928.224000", "105928.227000", "105928.232000", "105928.235000", "105928.239000", "105928.242000", "105928.245000", "105928.255000", "105928.268000", "105928.270000", "105928.273000", "105928.276000", "105928.279000", "105948.189000", "105948.192000", "105948.195000", "105948.198000", "105948.201000", "105948.213000", "105948.216000", "105948.225000", "105948.228000", "105948.231000", "105948.234000", "105948.237000", "105948.240000", "105948.243000", "105948.246000", "105948.249000", "105948.252000", "105948.255000", "105948.257000", "105948.260000", "110008.190000", "110008.193000", "110008.196000", "110008.199000", "110008.202000", "110008.205000", "110008.208000", "110008.228000", "110008.231000", "110008.234000", "110008.237000", "110008.240000", "110008.243000", "110008.246000", "110008.248000", "110008.251000", "110008.254000", "110008.257000", "110008.260000", "110008.263000", "110028.190000", "110028.193000", "110028.196000", "110028.199000", "110028.202000", "110028.205000", "110028.208000", "110028.218000", "110028.220000", "110028.223000", "110028.226000", "110028.229000", "110028.232000", "110028.235000", "110028.238000", "110028.241000", "110028.244000", "110028.247000", "110028.255000", "110028.258000", "110028.261000", "110048.190000", "110048.193000", "110048.196000", "110048.199000", "110048.202000", "110048.205000", "110048.208000", "110048.210000", "110048.213000", "110048.220000", "110048.223000", "110048.226000", "110048.229000", "110048.232000", "110048.235000", "110048.238000", "110048.241000", "110048.244000", "110048.247000", "110048.250000", "110128.190000", "110128.193000", "110128.196000", "110128.199000", "110128.202000", "110128.205000", "110128.208000", "110128.211000", "110128.213000", "110128.216000", "110128.219000", "110128.222000", "110128.225000", "110128.228000", "110128.239000", "110128.242000", "110128.245000", "110128.248000", "110128.251000", "110128.254000", "110128.258000", "110128.261000", "110128.280000", "110128.284000", "110128.287000", "110128.290000", "110128.300000", "110128.303000", "110128.306000", "110128.309000", "110128.312000", "110128.315000", "110208.189000", "110208.192000", "110208.195000", "110208.198000", "110208.201000", "110208.204000", "110208.207000", "110208.210000", "110208.213000", "110208.216000", "110208.219000", "110208.222000", "110208.224000", "110208.227000", "110208.230000", "110208.233000", "110208.236000", "110208.239000", "110208.242000", "110208.245000", "110208.248000", "110208.251000", "110208.254000", "110208.257000", "110208.260000", "110208.262000", "110208.265000", "110217.097000", "110217.101000", "110217.104000", "110217.107000", "110217.110000", "110217.113000"],
      "InstanceCreationTime": ["105928.224000", "105928.227000", "105928.232000", "105928.235000", "105928.239000", "105928.242000", "105928.245000", "105928.255000", "105928.268000", "105928.270000", "105928.273000", "105928.276000", "105928.279000", "105948.189000", "105948.192000", "105948.195000", "105948.198000", "105948.201000", "105948.213000", "105948.216000", "105948.225000", "105948.228000", "105948.231000", "105948.234000", "105948.237000", "105948.240000", "105948.243000", "105948.246000", "105948.249000", "105948.252000", "105948.255000", "105948.257000", "105948.260000", "110008.190000", "110008.193000", "110008.196000", "110008.199000", "110008.202000", "110008.205000", "110008.208000", "110008.228000", "110008.231000", "110008.234000", "110008.237000", "110008.240000", "110008.243000", "110008.246000", "110008.248000", "110008.251000", "110008.254000", "110008.257000", "110008.260000", "110008.263000", "110028.190000", "110028.193000", "110028.196000", "110028.199000", "110028.202000", "110028.205000", "110028.208000", "110028.218000", "110028.220000", "110028.223000", "110028.226000", "110028.229000", "110028.232000", "110028.235000", "110028.238000", "110028.241000", "110028.244000", "110028.247000", "110028.255000", "110028.258000", "110028.261000", "110048.190000", "110048.193000", "110048.196000", "110048.199000", "110048.202000", "110048.205000", "110048.208000", "110048.210000", "110048.213000", "110048.220000", "110048.223000", "110048.226000", "110048.229000", "110048.232000", "110048.235000", "110048.238000", "110048.241000", "110048.244000", "110048.247000", "110048.250000", "110128.190000", "110128.193000", "110128.196000", "110128.199000", "110128.202000", "110128.205000", "110128.208000", "110128.211000", "110128.213000", "110128.216000", "110128.219000", "110128.222000", "110128.225000", "110128.228000", "110128.239000", "110128.242000", "110128.245000", "110128.248000", "110128.251000", "110128.254000", "110128.258000", "110128.261000", "110128.280000", "110128.284000", "110128.287000", "110128.290000", "110128.300000", "110128.303000", "110128.306000", "110128.309000", "110128.312000", "110128.315000", "110208.189000", "110208.192000", "110208.195000", "110208.198000", "110208.201000", "110208.204000", "110208.207000", "110208.210000", "110208.213000", "110208.216000", "110208.219000", "110208.222000", "110208.224000", "110208.227000", "110208.230000", "110208.233000", "110208.236000", "110208.239000", "110208.242000", "110208.245000", "110208.248000", "110208.251000", "110208.254000", "110208.257000", "110208.260000", "110208.262000", "110208.265000", "110217.097000", "110217.101000", "110217.104000", "110217.107000", "110217.110000", "110217.113000"],
      "InstanceNumber": [1, 2, 3, 4, 5, 6, 7, 8, 9, 10, 11, 12, 13, 14, 15, 16, 17, 18, 19, 20, 21, 22, 23, 24, 25, 26, 27, 28, 29, 30, 31, 32, 33, 34, 35, 36, 37, 38, 39, 40, 41, 42, 43, 44, 45, 46, 47, 48, 49, 50, 51, 52, 53, 54, 55, 56, 57, 58, 59, 60, 61, 62, 63, 64, 65, 66, 67, 68, 69, 70, 71, 72, 73, 74, 75, 76, 77, 78, 79, 80, 81, 82, 83, 84, 85, 86, 87, 88, 89, 90, 91, 92, 93, 94, 95, 96, 97, 98, 99, 100, 101, 102, 103, 104, 105, 106, 107, 108, 109, 110, 111, 112, 113, 114, 115, 116, 117, 118, 119, 120, 121, 122, 123, 124, 125, 126, 127, 128, 129, 130, 131, 132, 133, 134, 135, 136, 137, 138, 139, 140, 141, 142, 143, 144, 145, 146, 147, 148, 149, 150, 151, 152, 153, 154, 155, 156, 157, 158, 159],
      "LargestImagePixelValue": [40132, 38795, 38399, 38399, 38506, 37826, 37721, 37684, 37973, 37584, 38537, 38474, 38779, 37807, 38255, 38733, 38712, 39370, 39023, 38680, 38716, 38594, 38545, 37828, 38172, 38283, 38943, 39190, 39225, 38995, 40685, 39426, 39535, 39494, 39994, 39080, 38413, 38563, 38900, 38953, 38639, 38717, 38858, 39143, 38899, 39012, 38285, 38263, 38458, 38194, 38658, 38295, 39175, 38454, 38728, 38423, 38351, 38413, 38769, 38555, 38074, 37944, 38569, 39797, 38142, 38597, 38925, 38369, 38321, 38074, 38477, 38967, 39290, 39002, 40934, 39209, 39208, 38950, 38360, 38638, 38727, 38376, 38064, 38780, 39385, 38917, 38639, 38772, 38182, 38987, 38732, 38355, 38409, 38950, 38723, 38730, 38697, 39939, 39462, 40286, 39736, 39305, 39666, 39398, 39076, 39793, 41292, 39957, 40194, 40242, 39800, 39592, 39343, 40493, 39551, 39628, 39937, 39691, 41432, 40283, 40061, 39806, 40023, 40054, 39836, 38494, 38716, 38408, 38951, 38460, 38408, 38462, 39437, 38743, 38529, 38292, 38427, 39253, 39240, 39791, 39472, 39931, 39599, 39759, 40369, 40002, 39277, 39396, 39076, 38663, 38676, 38976, 38630, 38306, 38802, 38268, 47377, 40769, 38326],
      "WindowCenter": [10100.0, 10048.0, 10018.0, 10025.0, 10027.0, 10001.0, 9982.0, 9990.0, 9998.0, 10000.0, 10014.0, 10024.0, 10012.0, 9982.0, 10014.0, 10015.0, 10001.0, 9995.0, 9979.0, 9973.0, 9985.0, 9979.0, 9986.0, 9988.0, 9989.0, 9975.0, 9969.0, 9967.0, 9984.0, 10006.0, 10040.0, 10009.0, 9991.0, 9980.0, 9985.0, 9978.0, 10002.0, 10009.0, 9990.0, 9971.0, 9953.0, 9952.0, 9959.0, 9986.0, 9982.0, 9971.0, 9954.0, 9946.0, 9959.0, 9980.0, 9991.0, 9966.0, 9961.0, 9944.0, 9960.0, 9961.0, 9992.0, 9995.0, 9987.0, 9968.0, 9966.0, 9992.0, 10010.0, 10015.0, 9979.0, 9977.0, 9997.0, 10013.0, 10007.0, 9988.0, 9967.0, 9968.0, 9974.0, 9986.0, 10023.0, 10000.0, 10003.0, 9991.0, 9967.0, 9966.0, 9965.0, 9964.0, 9983.0, 10019.0, 10021.0, 9994.0, 9984.0, 9965.0, 9979.0, 9966.0, 9965.0, 9984.0, 9992.0, 9972.0, 9957.0, 9954.0, 9965.0, 9986.0, 9983.0, 9995.0, 9969.0, 9953.0, 9965.0, 9977.0, 9998.0, 10006.0, 10027.0, 10005.0, 10002.0, 10008.0, 10023.0, 10021.0, 10017.0, 10019.0, 10006.0, 10043.0, 10061.0, 10045.0, 10047.0, 10026.0, 10005.0, 9996.0, 10004.0, 10027.0, 10027.0, 10000.0, 9996.0, 9986.0, 9998.0, 10016.0, 10018.0, 10002.0, 10008.0, 9990.0, 9986.0, 9988.0, 10008.0, 10028.0, 10021.0, 10018.0, 10012.0, 10008.0, 10024.0, 10039.0, 10045.0, 10029.0, 10012.0, 10001.0, 10010.0, 10015.0, 10017.0, 10012.0, 10016.0, 10016.0, 10006.0, 9993.0, 10079.0, 10030.0, 10022.0],
      "WindowWidth": [21357.0, 21227.0, 21152.0, 21167.0, 21169.0, 21109.0, 21065.0, 21083.0, 21102.0, 21103.0, 21134.0, 21158.0, 21122.0, 21066.0, 21136.0, 21136.0, 21099.0, 21079.0, 21046.0, 21035.0, 21067.0, 21049.0, 21062.0, 21072.0, 21074.0, 21039.0, 21017.0, 21015.0, 21052.0, 21107.0, 21193.0, 21114.0, 21073.0, 21047.0, 21062.0, 21042.0, 21103.0, 21114.0, 21067.0, 21030.0, 20988.0, 20987.0, 21009.0, 21071.0, 21057.0, 21030.0, 20993.0, 20976.0, 21003.0, 21053.0, 21078.0, 21022.0, 21005.0, 20971.0, 21012.0, 21009.0, 21089.0, 21094.0, 21071.0, 21029.0, 21027.0, 21087.0, 21125.0, 21138.0, 21057.0, 21046.0, 21087.0, 21127.0, 21113.0, 21068.0, 21021.0, 21014.0, 21028.0, 21060.0, 21143.0, 21096.0, 21103.0, 21075.0, 21024.0, 21021.0, 21018.0, 21016.0, 21061.0, 21142.0, 21149.0, 21081.0, 21061.0, 21016.0, 21057.0, 21025.0, 21015.0, 21060.0, 21091.0, 21030.0, 21004.0, 20992.0, 21019.0, 21059.0, 21056.0, 21078.0, 21016.0, 20984.0, 21008.0, 21036.0, 21088.0, 21101.0, 21158.0, 21099.0, 21090.0, 21101.0, 21144.0, 21145.0, 21129.0, 21125.0, 21102.0, 21187.0, 21225.0, 21189.0, 21197.0, 21153.0, 21097.0, 21080.0, 21096.0, 21157.0, 21153.0, 21096.0, 21084.0, 21063.0, 21087.0, 21138.0, 21141.0, 21104.0, 21108.0, 21077.0, 21064.0, 21070.0, 21119.0, 21154.0, 21140.0, 21132.0, 21120.0, 21106.0, 21146.0, 21188.0, 21193.0, 21160.0, 21119.0, 21093.0, 21117.0, 21129.0, 21135.0, 21118.0, 21136.0, 21133.0, 21110.0, 21090.0, 21263.0, 21174.0, 21169.0]
    },
    "slices": {}
  }
}