{
  "AcquisitionMatrixPE": 104,
  "AcquisitionNumber": 1,
  "AcquisitionTime": "11:07:41.287500",
  "BandwidthPerPixelPhaseEncode": 17.17,
  "BaseResolution": 104,
  "BodyPartExamined": "BRAIN",
  "CoilString": "HC1-7;NC1_2",
  "ConsistencyInfo": "N4_VE11C_LATEST_20160120",
  "ConversionSoftware": "dcm2niix",
  "ConversionSoftwareVersion": "v1.0.20190720  (JP2:OpenJPEG) GCC7.3.0",
  "DerivedVendorReportedEchoSpacing": 0.000560011,
  "DeviceSerialNumber": "167006",
  "DwellTime": 2.1e-06,
  "EchoTime": 0.037,
  "EchoTrainLength": 104,
  "EffectiveEchoSpacing": 0.000560011,
  "FlipAngle": 52,
  "ImageComments": "Unaliased_MB4_PE3_LB",
  "ImageOrientationPatientDICOM": [0.999182, 0.0306663, 0.0263435, -0.0204065, 0.945089, -0.326174],
  "ImageType": [
    "ORIGINAL",
    "PRIMARY",
    "M",
    "MB",
    "ND",
    "MOSAIC"
],
  "ImagingFrequency": 123.259,
  "InPlanePhaseEncodingDirectionDICOM": "COL",
  "InstitutionAddress": "Chemin_Queen-Mary_4565_Montreal_District_CA_H3W_1W5",
  "InstitutionName": "IUGM",
  "InstitutionalDepartmentName": "Department",
  "MRAcquisitionType": "2D",
  "MagneticFieldStrength": 3,
  "Manufacturer": "Siemens",
  "ManufacturersModelName": "Prisma_fit",
  "Modality": "MR",
  "MultibandAccelerationFactor": 4,
  "PartialFourier": 1,
  "PatientPosition": "HFS",
  "PercentPhaseFOV": 100,
  "PhaseEncodingDirection": "j",
  "PhaseEncodingSteps": 104,
  "PhaseResolution": 1,
  "PixelBandwidth": 2290,
  "ProcedureStepDescription": "hcptrt_generic",
  "ProtocolName": "func_task-gambling_run-1",
  "PulseSequenceDetails": "%CustomerSeq%_cmrr_mbep2d_bold",
  "ReceiveCoilActiveElements": "HC1-7;NC1,2",
  "ReceiveCoilName": "HeadNeck_64",
  "ReconMatrixPE": 104,
  "RepetitionTime": 1.49,
  "SAR": 0.0378461,
  "ScanOptions": "FS",
  "ScanningSequence": "EP",
  "SequenceName": "epfid2d1_104",
  "SequenceVariant": "SK_SS",
  "SeriesDescription": "func_task-gambling_run-1",
  "SeriesNumber": 17,
  "ShimSetting": [630, -7193, -8814, 720, 90, 6, -50, -13],
  "SliceThickness": 2,
  "SliceTiming": [0, 0.7825, 0.0975, 0.88, 0.195, 0.98, 0.2925, 1.0775, 0.39, 1.175, 0.49, 1.2725, 0.5875, 1.37, 0.685, 0, 0.7825, 0.0975, 0.88, 0.195, 0.98, 0.2925, 1.0775, 0.39, 1.175, 0.49, 1.2725, 0.5875, 1.37, 0.685, 0, 0.7825, 0.0975, 0.88, 0.195, 0.98, 0.2925, 1.0775, 0.39, 1.175, 0.49, 1.2725, 0.5875, 1.37, 0.685, 0, 0.7825, 0.0975, 0.88, 0.195, 0.98, 0.2925, 1.0775, 0.39, 1.175, 0.49, 1.2725, 0.5875, 1.37, 0.685],
  "SoftwareVersions": "syngo_MR_E11",
  "SpacingBetweenSlices": 2,
  "StationName": "MRC35049",
  "TaskName": "gambling",
  "TotalReadoutTime": 0.0576811,
  "TxRefAmp": 249.506,
  "WipMemBlock": "60a3330c-1bf3-45c8-99cd-4d7028e17fbb||Sequence: R016 ve11c/master r/e634e98; Dec 19 2017 11:00:25 by eja",
  "dcmmeta_affine": [
    [-1.9983649253845215, -0.04081301391124725, 0.06979900598526001, 108.03736877441406],
    [-0.0613325834274292, 1.890178918838501, -0.6507396697998047, -62.11301040649414],
    [0.05268698185682297, 0.6523481011390686, 1.8898851871490479, -67.06108856201172],
    [0.0, 0.0, 0.0, 1.0]
],
  "dcmmeta_reorient_transform": [
    [0.0, -1.0, 0.0, 103.0],
    [1.0, 0.0, 0.0, 0.0],
    [0.0, 0.0, 1.0, 0.0],
    [0.0, 0.0, 0.0, 1.0]
],
  "dcmmeta_shape": [104, 104, 60, 129],
  "dcmmeta_slice_dim": 2,
  "dcmmeta_version": 0.6,
  "global": {
    "const": {
      "AcquisitionMatrix": [104, 0, 0, 104],
      "AngioFlag": "N",
      "BitsAllocated": 16,
      "BitsStored": 16,
      "BodyPartExamined": "BRAIN",
      "Columns": 832,
      "EchoNumbers": 1,
      "EchoTime": 37.0,
      "EchoTrainLength": 104,
      "FlipAngle": 52.0,
      "HighBit": 15,
      "ImageOrientationPatient": [0.99918246536038, 0.03066629118119, 0.02634349068639, -0.020406507744, 0.94508944345154, -0.3261740613816],
      "ImagePositionPatient": [-816.38252653117, -842.92559013838, 218.40742196441],
      "ImageType": [
        "ORIGINAL",
        "PRIMARY",
        "M",
        "MB",
        "ND",
        "MOSAIC"
],
      "ImagedNucleus": "1H",
      "ImagingFrequency": 123.259474,
      "InPlanePhaseEncodingDirection": "COL",
      "MRAcquisitionType": "2D",
      "MagneticFieldStrength": 3.0,
      "Manufacturer": "SIEMENS",
      "ManufacturerModelName": "Prisma_fit",
      "Modality": "MR",
      "NumberOfAverages": 1.0,
      "NumberOfPhaseEncodingSteps": 104,
      "PercentPhaseFieldOfView": 100.0,
      "PercentSampling": 100.0,
      "PerformedProcedureStepStartTime": "103442.847000",
      "PhotometricInterpretation": "MONOCHROME2",
      "PixelBandwidth": 2290.0,
      "PixelRepresentation": 0,
      "PixelSpacing": [2.0, 2.0],
      "ProtocolName": "func_task-gambling_run-1",
      "RepetitionTime": 1490.0,
      "Rows": 832,
      "SAR": 0.03784608726392,
      "SamplesPerPixel": 1,
      "ScanOptions": "FS",
      "ScanningSequence": "EP",
      "SequenceName": "epfid2d1_104",
      "SequenceVariant": [
        "SK",
        "SS"
],
      "SeriesDescription": "func_task-gambling_run-1",
      "SeriesNumber": 17,
      "SeriesTime": "110840.078000",
      "SliceLocation": -39.38873060386,
      "SliceThickness": 2.0,
      "SmallestImagePixelValue": 0,
      "SoftwareVersions": "syngo MR E11",
      "SpacingBetweenSlices": 2.0000000181094,
      "SpecificCharacterSet": "ISO_IR 100",
      "StudyID": "1",
      "StudyTime": "103442.783000",
      "TransmitCoilName": "Body",
      "VariableFlipAngleFlag": "N",
      "WindowCenterWidthExplanation": "Algo1",
      "dBdt": 0.0},
    "slices": {}
  },
  "time": {
    "samples": {
      "AcquisitionNumber": [1, 2, 3, 4, 5, 6, 7, 8, 9, 10, 11, 12, 13, 14, 15, 16, 17, 18, 19, 20, 21, 22, 23, 24, 25, 26, 27, 28, 29, 30, 31, 32, 33, 34, 35, 36, 37, 38, 39, 40, 41, 42, 43, 44, 45, 46, 47, 48, 49, 50, 51, 52, 53, 54, 55, 56, 57, 58, 59, 60, 61, 62, 63, 64, 65, 66, 67, 68, 69, 70, 71, 72, 73, 74, 75, 76, 77, 78, 79, 80, 81, 82, 83, 84, 85, 86, 87, 88, 89, 90, 91, 92, 93, 94, 95, 96, 97, 98, 99, 100, 101, 102, 103, 104, 105, 106, 107, 108, 109, 110, 111, 112, 113, 114, 115, 116, 117, 118, 119, 120, 121, 122, 123, 124, 125, 126, 127, 128, 129],
      "AcquisitionTime": ["110741.287500", "110742.777500", "110744.267500", "110745.757500", "110747.247500", "110748.737500", "110750.227500", "110751.717500", "110753.207500", "110754.697500", "110756.187500", "110757.677500", "110759.167500", "110800.657500", "110802.147500", "110803.637500", "110805.127500", "110806.617500", "110808.107500", "110809.597500", "110811.087500", "110812.577500", "110814.067500", "110815.557500", "110817.047500", "110818.537500", "110820.027500", "110821.517500", "110823.007500", "110824.497500", "110825.987500", "110827.477500", "110828.967500", "110830.457500", "110831.947500", "110833.437500", "110834.927500", "110836.417500", "110837.907500", "110839.397500", "110840.887500", "110842.377500", "110843.867500", "110845.357500", "110846.847500", "110848.337500", "110849.827500", "110851.317500", "110852.807500", "110854.297500", "110855.787500", "110857.277500", "110858.767500", "110900.257500", "110901.747500", "110903.237500", "110904.727500", "110906.217500", "110907.707500", "110909.197500", "110910.687500", "110912.177500", "110913.667500", "110915.157500", "110916.647500", "110918.137500", "110919.627500", "110921.117500", "110922.607500", "110924.097500", "110925.587500", "110927.077500", "110928.567500", "110930.057500", "110931.547500", "110933.037500", "110934.527500", "110936.017500", "110937.507500", "110938.997500", "110940.487500", "110941.977500", "110943.467500", "110944.957500", "110946.447500", "110947.937500", "110949.427500", "110950.917500", "110952.407500", "110953.897500", "110955.387500", "110956.877500", "110958.367500", "110959.857500", "111001.347500", "111002.837500", "111004.327500", "111005.817500", "111007.307500", "111008.797500", "111010.287500", "111011.777500", "111013.267500", "111014.757500", "111016.247500", "111017.737500", "111019.227500", "111020.717500", "111022.207500", "111023.697500", "111025.187500", "111026.677500", "111028.167500", "111029.657500", "111031.147500", "111032.637500", "111034.127500", "111035.617500", "111037.107500", "111038.597500", "111040.087500", "111041.577500", "111043.067500", "111044.557500", "111046.047500", "111047.537500", "111049.027500", "111050.517500", "111052.007500"],
      "ContentTime": ["110840.081000", "110840.085000", "110840.088000", "110840.091000", "110840.094000", "110900.044000", "110900.047000", "110900.050000", "110900.053000", "110900.056000", "110900.059000", "110900.062000", "110900.065000", "110900.068000", "110900.071000", "110900.074000", "110900.077000", "110900.080000", "110900.083000", "110900.086000", "110900.089000", "110900.092000", "110900.095000", "110900.098000", "110900.101000", "110900.104000", "110920.044000", "110920.047000", "110920.050000", "110920.053000", "110920.056000", "110920.059000", "110920.062000", "110920.064000", "110920.067000", "110920.070000", "110920.073000", "110920.076000", "110920.079000", "110920.082000", "110920.085000", "110920.096000", "110920.099000", "110920.102000", "110920.105000", "110920.108000", "110940.044000", "110940.061000", "110940.064000", "110940.067000", "110940.069000", "110940.072000", "110940.075000", "110940.078000", "110940.081000", "110940.084000", "110940.087000", "110940.090000", "110940.093000", "110940.096000", "110940.099000", "110940.101000", "110940.104000", "110940.107000", "110940.110000", "110940.113000", "111000.044000", "111000.047000", "111000.050000", "111000.053000", "111000.056000", "111000.059000", "111000.062000", "111000.065000", "111000.068000", "111000.071000", "111000.074000", "111000.077000", "111000.080000", "111000.083000", "111000.086000", "111000.089000", "111000.092000", "111000.095000", "111000.098000", "111000.101000", "111020.044000", "111020.047000", "111020.050000", "111020.053000", "111020.056000", "111020.059000", "111020.062000", "111020.065000", "111020.068000", "111020.071000", "111020.074000", "111020.077000", "111020.080000", "111020.083000", "111020.086000", "111020.089000", "111020.092000", "111020.095000", "111020.098000", "111020.101000", "111053.859000", "111053.862000", "111053.865000", "111053.868000", "111053.871000", "111053.874000", "111053.877000", "111053.880000", "111053.883000", "111053.890000", "111053.893000", "111053.896000", "111053.899000", "111053.902000", "111053.905000", "111053.908000", "111053.911000", "111053.914000", "111053.917000", "111053.920000", "111053.923000", "111053.926000", "111053.929000"],
      "InstanceCreationTime": ["110840.081000", "110840.085000", "110840.088000", "110840.091000", "110840.094000", "110900.044000", "110900.047000", "110900.050000", "110900.053000", "110900.056000", "110900.059000", "110900.062000", "110900.065000", "110900.068000", "110900.071000", "110900.074000", "110900.077000", "110900.080000", "110900.083000", "110900.086000", "110900.089000", "110900.092000", "110900.095000", "110900.098000", "110900.101000", "110900.104000", "110920.044000", "110920.047000", "110920.050000", "110920.053000", "110920.056000", "110920.059000", "110920.062000", "110920.064000", "110920.067000", "110920.070000", "110920.073000", "110920.076000", "110920.079000", "110920.082000", "110920.085000", "110920.096000", "110920.099000", "110920.102000", "110920.105000", "110920.108000", "110940.044000", "110940.061000", "110940.064000", "110940.067000", "110940.069000", "110940.072000", "110940.075000", "110940.078000", "110940.081000", "110940.084000", "110940.087000", "110940.090000", "110940.093000", "110940.096000", "110940.099000", "110940.101000", "110940.104000", "110940.107000", "110940.110000", "110940.113000", "111000.044000", "111000.047000", "111000.050000", "111000.053000", "111000.056000", "111000.059000", "111000.062000", "111000.065000", "111000.068000", "111000.071000", "111000.074000", "111000.077000", "111000.080000", "111000.083000", "111000.086000", "111000.089000", "111000.092000", "111000.095000", "111000.098000", "111000.101000", "111020.044000", "111020.047000", "111020.050000", "111020.053000", "111020.056000", "111020.059000", "111020.062000", "111020.065000", "111020.068000", "111020.071000", "111020.074000", "111020.077000", "111020.080000", "111020.083000", "111020.086000", "111020.089000", "111020.092000", "111020.095000", "111020.098000", "111020.101000", "111053.859000", "111053.862000", "111053.865000", "111053.868000", "111053.871000", "111053.874000", "111053.877000", "111053.880000", "111053.883000", "111053.890000", "111053.893000", "111053.896000", "111053.899000", "111053.902000", "111053.905000", "111053.908000", "111053.911000", "111053.914000", "111053.917000", "111053.920000", "111053.923000", "111053.926000", "111053.929000"],
      "InstanceNumber": [1, 2, 3, 4, 5, 6, 7, 8, 9, 10, 11, 12, 13, 14, 15, 16, 17, 18, 19, 20, 21, 22, 23, 24, 25, 26, 27, 28, 29, 30, 31, 32, 33, 34, 35, 36, 37, 38, 39, 40, 41, 42, 43, 44, 45, 46, 47, 48, 49, 50, 51, 52, 53, 54, 55, 56, 57, 58, 59, 60, 61, 62, 63, 64, 65, 66, 67, 68, 69, 70, 71, 72, 73, 74, 75, 76, 77, 78, 79, 80, 81, 82, 83, 84, 85, 86, 87, 88, 89, 90, 91, 92, 93, 94, 95, 96, 97, 98, 99, 100, 101, 102, 103, 104, 105, 106, 107, 108, 109, 110, 111, 112, 113, 114, 115, 116, 117, 118, 119, 120, 121, 122, 123, 124, 125, 126, 127, 128, 129],
      "LargestImagePixelValue": [44405, 43584, 43063, 42548, 41934, 41570, 42149, 42461, 42535, 42335, 42003, 41593, 42380, 42930, 42298, 42405, 41736, 42443, 42872, 42365, 42258, 41943, 41785, 42459, 42823, 42498, 42593, 41536, 41758, 42218, 42281, 41783, 42189, 41678, 41585, 42903, 42911, 42453, 42216, 41955, 42238, 42359, 42169, 41304, 42589, 42993, 42266, 42324, 41728, 42243, 42437, 42206, 41990, 41722, 42224, 42705, 42965, 42073, 42078, 43611, 43697, 43518, 43106, 43055, 42988, 43311, 43405, 42169, 43408, 43744, 43409, 43116, 42866, 43382, 43803, 43964, 43016, 43004, 43785, 43495, 43052, 42884, 43181, 43144, 42793, 43293, 42833, 43511, 42542, 43394, 42635, 42997, 43037, 42814, 43006, 42859, 43146, 43801, 43318, 42873, 42768, 42724, 42904, 43154, 43099, 43415, 43357, 43066, 42799, 43651, 42969, 43438, 43217, 43136, 43141, 43104, 43122, 43275, 43324, 43125, 42765, 43142, 43396, 42207, 49161, 41862, 41820, 41567, 42545],
      "WindowCenter": [10090.0, 10052.0, 10053.0, 10049.0, 10044.0, 10017.0, 10012.0, 10034.0, 10062.0, 10047.0, 10028.0, 10006.0, 10005.0, 10038.0, 10047.0, 10036.0, 10022.0, 10023.0, 10041.0, 10056.0, 10046.0, 10040.0, 10023.0, 10024.0, 10032.0, 10026.0, 10007.0, 9994.0, 10020.0, 10037.0, 10045.0, 10036.0, 10024.0, 10010.0, 10005.0, 10034.0, 10073.0, 10077.0, 10058.0, 10039.0, 10040.0, 10048.0, 10057.0, 10040.0, 10057.0, 10073.0, 10070.0, 10051.0, 10027.0, 10020.0, 10043.0, 10064.0, 10060.0, 10043.0, 10037.0, 10058.0, 10064.0, 10050.0, 10039.0, 10066.0, 10088.0, 10076.0, 10065.0, 10046.0, 10051.0, 10060.0, 10079.0, 10066.0, 10062.0, 10073.0, 10069.0, 10069.0, 10062.0, 10067.0, 10085.0, 10101.0, 10087.0, 10053.0, 10048.0, 10052.0, 10063.0, 10061.0, 10064.0, 10068.0, 10055.0, 10037.0, 10035.0, 10056.0, 10063.0, 10072.0, 10057.0, 10053.0, 10051.0, 10035.0, 10033.0, 10040.0, 10057.0, 10075.0, 10099.0, 10086.0, 10075.0, 10055.0, 10046.0, 10072.0, 10093.0, 10082.0, 10064.0, 10046.0, 10050.0, 10053.0, 10055.0, 10079.0, 10071.0, 10071.0, 10071.0, 10061.0, 10061.0, 10081.0, 10072.0, 10070.0, 10061.0, 10071.0, 10090.0, 10053.0, 10123.0, 10051.0, 10057.0, 10078.0, 10093.0],
      "WindowWidth": [21297.0, 21200.0, 21199.0, 21192.0, 21185.0, 21116.0, 21101.0, 21148.0, 21210.0, 21173.0, 21131.0, 21088.0, 21078.0, 21152.0, 21181.0, 21153.0, 21124.0, 21120.0, 21161.0, 21203.0, 21172.0, 21156.0, 21120.0, 21117.0, 21136.0, 21127.0, 21082.0, 21059.0, 21123.0, 21156.0, 21181.0, 21160.0, 21128.0, 21101.0, 21086.0, 21149.0, 21242.0, 21251.0, 21201.0, 21167.0, 21163.0, 21182.0, 21200.0, 21169.0, 21200.0, 21239.0, 21234.0, 21191.0, 21139.0, 21116.0, 21168.0, 21215.0, 21209.0, 21170.0, 21155.0, 21213.0, 21218.0, 21189.0, 21162.0, 21216.0, 21274.0, 21251.0, 21221.0, 21175.0, 21185.0, 21203.0, 21246.0, 21220.0, 21205.0, 21225.0, 21224.0, 21224.0, 21207.0, 21215.0, 21262.0, 21300.0, 21270.0, 21196.0, 21172.0, 21187.0, 21214.0, 21205.0, 21221.0, 21219.0, 21196.0, 21154.0, 21151.0, 21193.0, 21212.0, 21231.0, 21200.0, 21189.0, 21181.0, 21147.0, 21142.0, 21157.0, 21192.0, 21235.0, 21295.0, 21268.0, 21242.0, 21196.0, 21175.0, 21240.0, 21287.0, 21255.0, 21213.0, 21175.0, 21180.0, 21193.0, 21198.0, 21253.0, 21230.0, 21233.0, 21231.0, 21207.0, 21211.0, 21261.0, 21233.0, 21227.0, 21206.0, 21231.0, 21276.0, 21226.0, 21369.0, 21221.0, 21229.0, 21277.0, 21304.0]
    },
    "slices": {}
  }
}