{
  "AcquisitionMatrixPE": 104,
  "AcquisitionNumber": 1,
  "AcquisitionTime": "10:53:27.535000",
  "BandwidthPerPixelPhaseEncode": 17.17,
  "BaseResolution": 104,
  "BodyPartExamined": "BRAIN",
  "CoilString": "HC1-7;NC1_2",
  "ConsistencyInfo": "N4_VE11C_LATEST_20160120",
  "ConversionSoftware": "dcm2niix",
  "ConversionSoftwareVersion": "v1.0.20190720  (JP2:OpenJPEG) GCC7.3.0",
  "DerivedVendorReportedEchoSpacing": 0.000560011,
  "DeviceSerialNumber": "167006",
  "DwellTime": 2.1e-06,
  "EchoTime": 0.037,
  "EchoTrainLength": 104,
  "EffectiveEchoSpacing": 0.000560011,
  "FlipAngle": 52,
  "ImageComments": "Unaliased_MB4_PE3_LB",
  "ImageOrientationPatientDICOM": [0.999358, 0.0213706, 0.0287692, -0.0108145, 0.94516, -0.326427],
  "ImageType": [
    "ORIGINAL",
    "PRIMARY",
    "M",
    "MB",
    "ND",
    "MOSAIC"
],
  "ImagingFrequency": 123.259,
  "InPlanePhaseEncodingDirectionDICOM": "COL",
  "InstitutionAddress": "Chemin_Queen-Mary_4565_Montreal_District_CA_H3W_1W5",
  "InstitutionName": "IUGM",
  "InstitutionalDepartmentName": "Department",
  "MRAcquisitionType": "2D",
  "MagneticFieldStrength": 3,
  "Manufacturer": "Siemens",
  "ManufacturersModelName": "Prisma_fit",
  "Modality": "MR",
  "MultibandAccelerationFactor": 4,
  "PartialFourier": 1,
  "PatientPosition": "HFS",
  "PercentPhaseFOV": 100,
  "PhaseEncodingDirection": "j",
  "PhaseEncodingSteps": 104,
  "PhaseResolution": 1,
  "PixelBandwidth": 2290,
  "ProcedureStepDescription": "hcptrt_generic",
  "ProtocolName": "func_task-social_run-1",
  "PulseSequenceDetails": "%CustomerSeq%_cmrr_mbep2d_bold",
  "ReceiveCoilActiveElements": "HC1-7;NC1,2",
  "ReceiveCoilName": "HeadNeck_64",
  "ReconMatrixPE": 104,
  "RepetitionTime": 1.49,
  "SAR": 0.0378853,
  "ScanOptions": "FS",
  "ScanningSequence": "EP",
  "SequenceName": "epfid2d1_104",
  "SequenceVariant": "SK_SS",
  "SeriesDescription": "func_task-social_run-1",
  "SeriesNumber": 11,
  "ShimSetting": [630, -7188, -8816, 714, 82, 39, -28, -20],
  "SliceThickness": 2,
  "SliceTiming": [0, 0.785, 0.0975, 0.8825, 0.195, 0.98, 0.295, 1.0775, 0.3925, 1.175, 0.49, 1.2725, 0.5875, 1.3725, 0.685, 0, 0.785, 0.0975, 0.8825, 0.195, 0.98, 0.295, 1.0775, 0.3925, 1.175, 0.49, 1.2725, 0.5875, 1.3725, 0.685, 0, 0.785, 0.0975, 0.8825, 0.195, 0.98, 0.295, 1.0775, 0.3925, 1.175, 0.49, 1.2725, 0.5875, 1.3725, 0.685, 0, 0.785, 0.0975, 0.8825, 0.195, 0.98, 0.295, 1.0775, 0.3925, 1.175, 0.49, 1.2725, 0.5875, 1.3725, 0.685],
  "SoftwareVersions": "syngo_MR_E11",
  "SpacingBetweenSlices": 2,
  "StationName": "MRC35049",
  "TaskName": "social",
  "TotalReadoutTime": 0.0576811,
  "TxRefAmp": 249.506,
  "WipMemBlock": "a1acc7e1-6d2a-467b-bc44-ca444ee5a872||Sequence: R016 ve11c/master r/e634e98; Dec 19 2017 11:00:25 by eja",
  "dcmmeta_affine": [
    [-1.9987151622772217, -0.02162899635732174, 0.06833486258983612, 107.15400695800781],
    [-0.042741112411022186, 1.8903207778930664, -0.651813268661499, -63.055328369140625],
    [0.05753837153315544, 0.6528549194335938, 1.8895686864852905, -67.32987213134766],
    [0.0, 0.0, 0.0, 1.0]
],
  "dcmmeta_reorient_transform": [
    [0.0, -1.0, 0.0, 103.0],
    [1.0, 0.0, 0.0, 0.0],
    [0.0, 0.0, 1.0, 0.0],
    [0.0, 0.0, 0.0, 1.0]
],
  "dcmmeta_shape": [104, 104, 60, 139],
  "dcmmeta_slice_dim": 2,
  "dcmmeta_version": 0.6,
  "global": {
    "const": {
      "AcquisitionMatrix": [104, 0, 0, 104],
      "AngioFlag": "N",
      "BitsAllocated": 16,
      "BitsStored": 16,
      "BodyPartExamined": "BRAIN",
      "Columns": 832,
      "EchoNumbers": 1,
      "EchoTime": 37.0,
      "EchoTrainLength": 104,
      "FlipAngle": 52.0,
      "HighBit": 15,
      "ImageOrientationPatient": [0.99935761033624, 0.02137055602205, 0.02876918487456, -0.010814498146, 0.94516038789578, -0.3264274617469],
      "ImagePositionPatient": [-824.58560830441, -835.28223769498, 216.60940997539],
      "ImageType": [
        "ORIGINAL",
        "PRIMARY",
        "M",
        "MB",
        "ND",
        "MOSAIC"
],
      "ImagedNucleus": "1H",
      "ImagingFrequency": 123.259469,
      "InPlanePhaseEncodingDirection": "COL",
      "MRAcquisitionType": "2D",
      "MagneticFieldStrength": 3.0,
      "Manufacturer": "SIEMENS",
      "ManufacturerModelName": "Prisma_fit",
      "Modality": "MR",
      "NumberOfAverages": 1.0,
      "NumberOfPhaseEncodingSteps": 104,
      "PercentPhaseFieldOfView": 100.0,
      "PercentSampling": 100.0,
      "PerformedProcedureStepStartTime": "103442.847000",
      "PhotometricInterpretation": "MONOCHROME2",
      "PixelBandwidth": 2290.0,
      "PixelRepresentation": 0,
      "PixelSpacing": [2.0, 2.0],
      "ProtocolName": "func_task-social_run-1",
      "RepetitionTime": 1490.0,
      "Rows": 832,
      "SAR": 0.03788529103918,
      "SamplesPerPixel": 1,
      "ScanOptions": "FS",
      "ScanningSequence": "EP",
      "SequenceName": "epfid2d1_104",
      "SequenceVariant": [
        "SK",
        "SS"
],
      "SeriesDescription": "func_task-social_run-1",
      "SeriesNumber": 11,
      "SeriesTime": "105500.074000",
      "SliceLocation": -39.40088132904,
      "SliceThickness": 2.0,
      "SmallestImagePixelValue": 0,
      "SoftwareVersions": "syngo MR E11",
      "SpacingBetweenSlices": 2.0000000097857,
      "SpecificCharacterSet": "ISO_IR 100",
      "StudyID": "1",
      "StudyTime": "103442.783000",
      "TransmitCoilName": "Body",
      "VariableFlipAngleFlag": "N",
      "WindowCenterWidthExplanation": "Algo1",
      "dBdt": 0.0},
    "slices": {}
  },
  "time": {
    "samples": {
      "AcquisitionNumber": [1, 2, 3, 4, 5, 6, 7, 8, 9, 10, 11, 12, 13, 14, 15, 16, 17, 18, 19, 20, 21, 22, 23, 24, 25, 26, 27, 28, 29, 30, 31, 32, 33, 34, 35, 36, 37, 38, 39, 40, 41, 42, 43, 44, 45, 46, 47, 48, 49, 50, 51, 52, 53, 54, 55, 56, 57, 58, 59, 60, 61, 62, 63, 64, 65, 66, 67, 68, 69, 70, 71, 72, 73, 74, 75, 76, 77, 78, 79, 80, 81, 82, 83, 84, 85, 86, 87, 88, 89, 90, 91, 92, 93, 94, 95, 96, 97, 98, 99, 100, 101, 102, 103, 104, 105, 106, 107, 108, 109, 110, 111, 112, 113, 114, 115, 116, 117, 118, 119, 120, 121, 122, 123, 124, 125, 126, 127, 128, 129, 130, 131, 132, 133, 134, 135, 136, 137, 138, 139],
      "AcquisitionTime": ["105327.535000", "105329.025000", "105330.515000", "105332.005000", "105333.495000", "105334.985000", "105336.475000", "105337.965000", "105339.455000", "105340.945000", "105342.435000", "105343.925000", "105345.415000", "105346.905000", "105348.395000", "105349.885000", "105351.375000", "105352.865000", "105354.355000", "105355.845000", "105357.335000", "105358.825000", "105400.315000", "105401.805000", "105403.295000", "105404.785000", "105406.275000", "105407.765000", "105409.255000", "105410.745000", "105412.235000", "105413.725000", "105415.215000", "105416.705000", "105418.195000", "105419.685000", "105421.175000", "105422.665000", "105424.155000", "105425.645000", "105427.135000", "105428.625000", "105430.115000", "105431.605000", "105433.095000", "105434.585000", "105436.075000", "105437.565000", "105439.055000", "105440.545000", "105442.035000", "105443.525000", "105445.015000", "105446.505000", "105447.995000", "105449.485000", "105450.975000", "105452.465000", "105453.955000", "105455.445000", "105456.935000", "105458.425000", "105459.915000", "105501.405000", "105502.895000", "105504.385000", "105505.875000", "105507.365000", "105508.855000", "105510.345000", "105511.835000", "105513.325000", "105514.815000", "105516.305000", "105517.795000", "105519.285000", "105520.775000", "105522.265000", "105523.755000", "105525.245000", "105526.735000", "105528.225000", "105529.715000", "105531.205000", "105532.695000", "105534.185000", "105535.675000", "105537.165000", "105538.655000", "105540.145000", "105541.635000", "105543.125000", "105544.615000", "105546.105000", "105547.595000", "105549.085000", "105550.575000", "105552.065000", "105553.555000", "105555.045000", "105556.535000", "105558.025000", "105559.515000", "105601.005000", "105602.495000", "105603.985000", "105605.475000", "105606.965000", "105608.455000", "105609.945000", "105611.435000", "105612.925000", "105614.415000", "105615.905000", "105617.395000", "105618.885000", "105620.375000", "105621.865000", "105623.355000", "105624.845000", "105626.335000", "105627.825000", "105629.315000", "105630.805000", "105632.295000", "105633.785000", "105635.275000", "105636.765000", "105638.255000", "105639.745000", "105641.235000", "105642.725000", "105644.215000", "105645.705000", "105647.195000", "105648.685000", "105650.175000", "105651.665000", "105653.155000"],
      "ContentTime": ["105500.077000", "105500.084000", "105500.087000", "105500.090000", "105500.093000", "105500.096000", "105500.099000", "105500.102000", "105500.105000", "105500.108000", "105500.111000", "105500.115000", "105500.118000", "105500.121000", "105500.124000", "105500.127000", "105500.130000", "105500.133000", "105500.135000", "105500.138000", "105500.141000", "105500.146000", "105500.149000", "105500.152000", "105500.155000", "105500.158000", "105500.161000", "105500.164000", "105500.167000", "105500.170000", "105500.173000", "105500.176000", "105500.179000", "105500.181000", "105500.184000", "105500.187000", "105500.190000", "105500.193000", "105500.196000", "105520.044000", "105520.047000", "105520.050000", "105520.053000", "105520.056000", "105520.059000", "105520.062000", "105520.065000", "105520.067000", "105520.070000", "105520.073000", "105520.081000", "105520.084000", "105520.087000", "105520.090000", "105520.093000", "105520.096000", "105520.105000", "105520.108000", "105520.111000", "105520.114000", "105540.044000", "105540.047000", "105540.050000", "105540.053000", "105540.067000", "105540.070000", "105540.073000", "105540.076000", "105540.079000", "105540.082000", "105540.085000", "105540.088000", "105540.091000", "105540.093000", "105540.096000", "105540.099000", "105540.102000", "105540.105000", "105540.108000", "105540.117000", "105600.044000", "105600.047000", "105600.050000", "105600.053000", "105600.056000", "105600.059000", "105600.062000", "105600.065000", "105600.071000", "105600.074000", "105600.077000", "105600.080000", "105600.083000", "105600.086000", "105600.089000", "105600.092000", "105600.095000", "105600.098000", "105600.101000", "105600.104000", "105640.044000", "105640.047000", "105640.050000", "105640.053000", "105640.056000", "105640.059000", "105640.062000", "105640.065000", "105640.068000", "105640.071000", "105640.074000", "105640.077000", "105640.081000", "105640.084000", "105640.087000", "105640.090000", "105640.093000", "105640.096000", "105640.099000", "105640.102000", "105640.105000", "105640.108000", "105640.111000", "105640.114000", "105640.117000", "105640.120000", "105640.123000", "105640.126000", "105655.153000", "105655.157000", "105655.160000", "105655.171000", "105655.174000", "105655.177000", "105655.180000", "105655.183000", "105655.187000", "105655.190000", "105655.193000"],
      "InstanceCreationTime": ["105500.077000", "105500.084000", "105500.087000", "105500.090000", "105500.093000", "105500.096000", "105500.099000", "105500.102000", "105500.105000", "105500.108000", "105500.111000", "105500.115000", "105500.118000", "105500.121000", "105500.124000", "105500.127000", "105500.130000", "105500.133000", "105500.135000", "105500.138000", "105500.141000", "105500.146000", "105500.149000", "105500.152000", "105500.155000", "105500.158000", "105500.161000", "105500.164000", "105500.167000", "105500.170000", "105500.173000", "105500.176000", "105500.179000", "105500.181000", "105500.184000", "105500.187000", "105500.190000", "105500.193000", "105500.196000", "105520.044000", "105520.047000", "105520.050000", "105520.053000", "105520.056000", "105520.059000", "105520.062000", "105520.065000", "105520.067000", "105520.070000", "105520.073000", "105520.081000", "105520.084000", "105520.087000", "105520.090000", "105520.093000", "105520.096000", "105520.105000", "105520.108000", "105520.111000", "105520.114000", "105540.044000", "105540.047000", "105540.050000", "105540.053000", "105540.067000", "105540.070000", "105540.073000", "105540.076000", "105540.079000", "105540.082000", "105540.085000", "105540.088000", "105540.091000", "105540.093000", "105540.096000", "105540.099000", "105540.102000", "105540.105000", "105540.108000", "105540.117000", "105600.044000", "105600.047000", "105600.050000", "105600.053000", "105600.056000", "105600.059000", "105600.062000", "105600.065000", "105600.071000", "105600.074000", "105600.077000", "105600.080000", "105600.083000", "105600.086000", "105600.089000", "105600.092000", "105600.095000", "105600.098000", "105600.101000", "105600.104000", "105640.044000", "105640.047000", "105640.050000", "105640.053000", "105640.056000", "105640.059000", "105640.062000", "105640.065000", "105640.068000", "105640.071000", "105640.074000", "105640.077000", "105640.081000", "105640.084000", "105640.087000", "105640.090000", "105640.093000", "105640.096000", "105640.099000", "105640.102000", "105640.105000", "105640.108000", "105640.111000", "105640.114000", "105640.117000", "105640.120000", "105640.123000", "105640.126000", "105655.153000", "105655.157000", "105655.160000", "105655.171000", "105655.174000", "105655.177000", "105655.180000", "105655.183000", "105655.187000", "105655.190000", "105655.193000"],
      "InstanceNumber": [1, 2, 3, 4, 5, 6, 7, 8, 9, 10, 11, 12, 13, 14, 15, 16, 17, 18, 19, 20, 21, 22, 23, 24, 25, 26, 27, 28, 29, 30, 31, 32, 33, 34, 35, 36, 37, 38, 39, 40, 41, 42, 43, 44, 45, 46, 47, 48, 49, 50, 51, 52, 53, 54, 55, 56, 57, 58, 59, 60, 61, 62, 63, 64, 65, 66, 67, 68, 69, 70, 71, 72, 73, 74, 75, 76, 77, 78, 79, 80, 81, 82, 83, 84, 85, 86, 87, 88, 89, 90, 91, 92, 93, 94, 95, 96, 97, 98, 99, 100, 101, 102, 103, 104, 105, 106, 107, 108, 109, 110, 111, 112, 113, 114, 115, 116, 117, 118, 119, 120, 121, 122, 123, 124, 125, 126, 127, 128, 129, 130, 131, 132, 133, 134, 135, 136, 137, 138, 139],
      "LargestImagePixelValue": [41209, 40334, 40076, 39148, 39350, 38858, 38735, 38896, 38641, 38732, 39192, 39114, 39782, 39121, 39574, 38284, 38845, 39354, 39130, 38672, 39193, 38755, 39269, 39032, 38738, 38424, 38624, 39005, 38507, 38726, 38618, 39705, 39965, 39669, 40167, 39878, 39820, 39873, 39711, 39569, 39343, 39260, 39548, 39497, 39318, 39586, 39057, 39337, 39173, 39256, 39860, 39778, 39216, 39218, 39863, 39521, 39611, 39380, 39625, 39566, 39156, 38681, 39362, 39273, 39278, 38894, 38784, 38882, 38730, 38977, 38788, 38569, 38696, 38907, 38725, 39391, 38733, 41152, 39140, 39227, 38765, 39204, 38994, 38828, 38939, 39557, 38685, 38876, 38838, 38548, 38777, 38610, 38636, 38684, 38377, 38416, 38699, 38605, 38415, 38440, 38528, 38710, 41204, 38531, 41498, 38863, 39542, 39279, 39011, 38635, 38459, 38252, 38399, 38394, 38576, 38488, 38493, 39620, 38258, 38508, 38633, 38706, 38235, 38285, 38919, 38856, 38811, 39009, 38738, 39201, 38979, 38402, 38410, 38536, 38720, 38662, 42423, 39957, 38343],
      "WindowCenter": [10053.0, 10025.0, 10025.0, 10022.0, 10046.0, 10026.0, 10007.0, 10002.0, 9993.0, 10001.0, 10036.0, 10047.0, 10045.0, 10028.0, 10033.0, 10021.0, 10021.0, 10053.0, 10049.0, 10034.0, 10026.0, 10020.0, 10036.0, 10048.0, 10068.0, 10050.0, 10039.0, 10015.0, 10001.0, 9997.0, 9995.0, 10009.0, 10025.0, 10009.0, 9995.0, 9983.0, 9982.0, 9989.0, 10015.0, 10035.0, 10021.0, 10009.0, 9996.0, 9988.0, 9986.0, 10009.0, 10002.0, 9993.0, 9984.0, 9979.0, 10003.0, 10020.0, 10003.0, 9993.0, 10011.0, 10030.0, 10042.0, 10022.0, 10017.0, 10017.0, 10012.0, 10004.0, 10027.0, 10029.0, 10021.0, 10013.0, 10014.0, 10021.0, 10027.0, 10052.0, 10041.0, 10030.0, 10025.0, 10018.0, 10025.0, 10052.0, 10058.0, 10079.0, 10037.0, 10018.0, 10001.0, 10003.0, 10008.0, 10006.0, 10023.0, 10039.0, 10025.0, 10009.0, 9997.0, 10014.0, 10043.0, 10043.0, 10037.0, 10034.0, 10020.0, 10019.0, 10035.0, 10039.0, 10031.0, 10011.0, 10004.0, 10013.0, 10035.0, 10006.0, 10052.0, 10004.0, 10008.0, 10007.0, 9996.0, 10015.0, 10039.0, 10042.0, 10025.0, 10012.0, 10008.0, 10020.0, 10031.0, 10042.0, 10011.0, 9996.0, 10018.0, 10033.0, 10015.0, 10006.0, 9997.0, 9999.0, 10008.0, 10025.0, 10012.0, 10030.0, 10038.0, 10015.0, 10011.0, 10016.0, 10039.0, 10039.0, 10074.0, 10037.0, 10018.0],
      "WindowWidth": [21240.0, 21172.0, 21165.0, 21156.0, 21204.0, 21158.0, 21116.0, 21097.0, 21079.0, 21096.0, 21177.0, 21202.0, 21193.0, 21156.0, 21165.0, 21147.0, 21144.0, 21214.0, 21208.0, 21176.0, 21150.0, 21140.0, 21173.0, 21206.0, 21254.0, 21217.0, 21196.0, 21132.0, 21106.0, 21093.0, 21084.0, 21110.0, 21146.0, 21108.0, 21074.0, 21047.0, 21044.0, 21062.0, 21129.0, 21171.0, 21142.0, 21108.0, 21077.0, 21058.0, 21053.0, 21120.0, 21098.0, 21075.0, 21058.0, 21043.0, 21098.0, 21148.0, 21104.0, 21076.0, 21111.0, 21165.0, 21198.0, 21142.0, 21125.0, 21127.0, 21118.0, 21102.0, 21155.0, 21159.0, 21139.0, 21123.0, 21129.0, 21144.0, 21162.0, 21215.0, 21192.0, 21167.0, 21151.0, 21134.0, 21150.0, 21210.0, 21234.0, 21273.0, 21181.0, 21136.0, 21098.0, 21095.0, 21118.0, 21108.0, 21149.0, 21179.0, 21152.0, 21115.0, 21088.0, 21128.0, 21196.0, 21193.0, 21179.0, 21171.0, 21143.0, 21142.0, 21177.0, 21188.0, 21168.0, 21122.0, 21107.0, 21128.0, 21164.0, 21117.0, 21217.0, 21110.0, 21131.0, 21127.0, 21087.0, 21128.0, 21186.0, 21190.0, 21150.0, 21120.0, 21108.0, 21141.0, 21169.0, 21192.0, 21124.0, 21089.0, 21137.0, 21175.0, 21134.0, 21113.0, 21084.0, 21095.0, 21115.0, 21157.0, 21127.0, 21161.0, 21189.0, 21133.0, 21122.0, 21132.0, 21187.0, 21188.0, 21263.0, 21191.0, 21154.0]
    },
    "slices": {}
  }
}