{
  "AcquisitionMatrixPE": 104,
  "AcquisitionNumber": 1,
  "AcquisitionTime": "11:38:16.882500",
  "BandwidthPerPixelPhaseEncode": 17.17,
  "BaseResolution": 104,
  "BodyPartExamined": "BRAIN",
  "CoilString": "HC1-7;NC1_2",
  "ConsistencyInfo": "N4_VE11C_LATEST_20160120",
  "ConversionSoftware": "dcm2niix",
  "ConversionSoftwareVersion": "v1.0.20190720  (JP2:OpenJPEG) GCC7.3.0",
  "DerivedVendorReportedEchoSpacing": 0.000560011,
  "DeviceSerialNumber": "167006",
  "DwellTime": 2.1e-06,
  "EchoTime": 0.037,
  "EchoTrainLength": 104,
  "EffectiveEchoSpacing": 0.000560011,
  "FlipAngle": 52,
  "ImageComments": "Unaliased_MB4_PE3_LB",
  "ImageOrientationPatientDICOM": [0.998563, 0.0480957, 0.0236291, -0.0359176, 0.927963, -0.370938],
  "ImageType": [
    "ORIGINAL",
    "PRIMARY",
    "M",
    "MB",
    "ND",
    "MOSAIC"
],
  "ImagingFrequency": 123.259,
  "InPlanePhaseEncodingDirectionDICOM": "COL",
  "InstitutionAddress": "Chemin_Queen-Mary_4565_Montreal_District_CA_H3W_1W5",
  "InstitutionName": "IUGM",
  "InstitutionalDepartmentName": "Department",
  "MRAcquisitionType": "2D",
  "MagneticFieldStrength": 3,
  "Manufacturer": "Siemens",
  "ManufacturersModelName": "Prisma_fit",
  "Modality": "MR",
  "MultibandAccelerationFactor": 4,
  "PartialFourier": 1,
  "PatientPosition": "HFS",
  "PercentPhaseFOV": 100,
  "PhaseEncodingDirection": "j",
  "PhaseEncodingSteps": 104,
  "PhaseResolution": 1,
  "PixelBandwidth": 2290,
  "ProcedureStepDescription": "hcptrt_generic",
  "ProtocolName": "func_task-social_run-2",
  "PulseSequenceDetails": "%CustomerSeq%_cmrr_mbep2d_bold",
  "ReceiveCoilActiveElements": "HC1-7;NC1,2",
  "ReceiveCoilName": "HeadNeck_64",
  "ReconMatrixPE": 104,
  "RepetitionTime": 1.49,
  "SAR": 0.0388997,
  "ScanOptions": "FS",
  "ScanningSequence": "EP",
  "SequenceName": "epfid2d1_104",
  "SequenceVariant": "SK_SS",
  "SeriesDescription": "func_task-social_run-2",
  "SeriesNumber": 32,
  "ShimSetting": [627, -7199, -8849, 681, 66, -51, -65, 6],
  "SliceThickness": 2,
  "SliceTiming": [0, 0.7825, 0.0975, 0.88, 0.195, 0.98, 0.2925, 1.0775, 0.39, 1.175, 0.49, 1.2725, 0.5875, 1.37, 0.685, 0, 0.7825, 0.0975, 0.88, 0.195, 0.98, 0.2925, 1.0775, 0.39, 1.175, 0.49, 1.2725, 0.5875, 1.37, 0.685, 0, 0.7825, 0.0975, 0.88, 0.195, 0.98, 0.2925, 1.0775, 0.39, 1.175, 0.49, 1.2725, 0.5875, 1.37, 0.685, 0, 0.7825, 0.0975, 0.88, 0.195, 0.98, 0.2925, 1.0775, 0.39, 1.175, 0.49, 1.2725, 0.5875, 1.37, 0.685],
  "SoftwareVersions": "syngo_MR_E11",
  "SpacingBetweenSlices": 2,
  "StationName": "MRC35049",
  "TaskName": "social",
  "TotalReadoutTime": 0.0576811,
  "TxRefAmp": 251.094,
  "WipMemBlock": "fe4ee1ae-15ab-4cf9-9118-848a9e1ccf9b||Sequence: R016 ve11c/master r/e634e98; Dec 19 2017 11:00:25 by eja",
  "dcmmeta_affine": [
    [-1.9971264600753784, -0.07183527201414108, 0.07953493297100067, 108.89481353759766],
    [-0.09619130194187164, 1.8559256792068481, -0.7391123175621033, -57.198890686035156],
    [0.047258298844099045, 0.7418757081031799, 1.8567140102386475, -77.47088623046875],
    [0.0, 0.0, 0.0, 1.0]
],
  "dcmmeta_reorient_transform": [
    [0.0, -1.0, 0.0, 103.0],
    [1.0, 0.0, 0.0, 0.0],
    [0.0, 0.0, 1.0, 0.0],
    [0.0, 0.0, 0.0, 1.0]
],
  "dcmmeta_shape": [104, 104, 60, 139],
  "dcmmeta_slice_dim": 2,
  "dcmmeta_version": 0.6,
  "global": {
    "const": {
      "AcquisitionMatrix": [104, 0, 0, 104],
      "AngioFlag": "N",
      "BitsAllocated": 16,
      "BitsStored": 16,
      "BodyPartExamined": "BRAIN",
      "Columns": 832,
      "EchoNumbers": 1,
      "EchoTime": 37.0,
      "EchoTrainLength": 104,
      "FlipAngle": 52.0,
      "HighBit": 15,
      "ImageOrientationPatient": [0.99856320368442, 0.04809565028637, 0.02362914875829, -0.0359176373802, 0.92796284496258, -0.3709378407415],
      "ImagePositionPatient": [-802.30175620184, -844.53203828639, 251.78303631989],
      "ImageType": [
        "ORIGINAL",
        "PRIMARY",
        "M",
        "MB",
        "ND",
        "MOSAIC"
],
      "ImagedNucleus": "1H",
      "ImagingFrequency": 123.259494,
      "InPlanePhaseEncodingDirection": "COL",
      "MRAcquisitionType": "2D",
      "MagneticFieldStrength": 3.0,
      "Manufacturer": "SIEMENS",
      "ManufacturerModelName": "Prisma_fit",
      "Modality": "MR",
      "NumberOfAverages": 1.0,
      "NumberOfPhaseEncodingSteps": 104,
      "PercentPhaseFieldOfView": 100.0,
      "PercentSampling": 100.0,
      "PerformedProcedureStepStartTime": "103442.847000",
      "PhotometricInterpretation": "MONOCHROME2",
      "PixelBandwidth": 2290.0,
      "PixelRepresentation": 0,
      "PixelSpacing": [2.0, 2.0],
      "ProtocolName": "func_task-social_run-2",
      "RepetitionTime": 1490.0,
      "Rows": 832,
      "SAR": 0.03889965327992,
      "SamplesPerPixel": 1,
      "ScanOptions": "FS",
      "ScanningSequence": "EP",
      "SequenceName": "epfid2d1_104",
      "SequenceVariant": [
        "SK",
        "SS"
],
      "SeriesDescription": "func_task-social_run-2",
      "SeriesNumber": 32,
      "SeriesTime": "113930.114000",
      "SliceLocation": -46.451967373202,
      "SliceThickness": 2.0,
      "SmallestImagePixelValue": 0,
      "SoftwareVersions": "syngo MR E11",
      "SpacingBetweenSlices": 1.9999999653638,
      "SpecificCharacterSet": "ISO_IR 100",
      "StudyID": "1",
      "StudyTime": "103442.783000",
      "TransmitCoilName": "Body",
      "VariableFlipAngleFlag": "N",
      "WindowCenterWidthExplanation": "Algo1",
      "dBdt": 0.0},
    "slices": {}
  },
  "time": {
    "samples": {
      "AcquisitionNumber": [1, 2, 3, 4, 5, 6, 7, 8, 9, 10, 11, 12, 13, 14, 15, 16, 17, 18, 19, 20, 21, 22, 23, 24, 25, 26, 27, 28, 29, 30, 31, 32, 33, 34, 35, 36, 37, 38, 39, 40, 41, 42, 43, 44, 45, 46, 47, 48, 49, 50, 51, 52, 53, 54, 55, 56, 57, 58, 59, 60, 61, 62, 63, 64, 65, 66, 67, 68, 69, 70, 71, 72, 73, 74, 75, 76, 77, 78, 79, 80, 81, 82, 83, 84, 85, 86, 87, 88, 89, 90, 91, 92, 93, 94, 95, 96, 97, 98, 99, 100, 101, 102, 103, 104, 105, 106, 107, 108, 109, 110, 111, 112, 113, 114, 115, 116, 117, 118, 119, 120, 121, 122, 123, 124, 125, 126, 127, 128, 129, 130, 131, 132, 133, 134, 135, 136, 137, 138, 139],
      "AcquisitionTime": ["113816.882500", "113818.372500", "113819.862500", "113821.352500", "113822.842500", "113824.332500", "113825.822500", "113827.312500", "113828.802500", "113830.292500", "113831.782500", "113833.272500", "113834.762500", "113836.252500", "113837.742500", "113839.232500", "113840.722500", "113842.212500", "113843.702500", "113845.192500", "113846.682500", "113848.172500", "113849.662500", "113851.152500", "113852.642500", "113854.132500", "113855.622500", "113857.112500", "113858.602500", "113900.092500", "113901.582500", "113903.072500", "113904.562500", "113906.052500", "113907.542500", "113909.032500", "113910.522500", "113912.012500", "113913.502500", "113914.992500", "113916.482500", "113917.972500", "113919.462500", "113920.952500", "113922.442500", "113923.932500", "113925.422500", "113926.912500", "113928.402500", "113929.892500", "113931.382500", "113932.872500", "113934.362500", "113935.852500", "113937.342500", "113938.832500", "113940.322500", "113941.812500", "113943.302500", "113944.792500", "113946.282500", "113947.772500", "113949.262500", "113950.752500", "113952.242500", "113953.732500", "113955.222500", "113956.712500", "113958.202500", "113959.692500", "114001.182500", "114002.672500", "114004.162500", "114005.652500", "114007.142500", "114008.632500", "114010.122500", "114011.612500", "114013.102500", "114014.592500", "114016.082500", "114017.572500", "114019.062500", "114020.552500", "114022.042500", "114023.532500", "114025.022500", "114026.512500", "114028.002500", "114029.492500", "114030.982500", "114032.472500", "114033.962500", "114035.452500", "114036.942500", "114038.432500", "114039.922500", "114041.412500", "114042.902500", "114044.392500", "114045.882500", "114047.372500", "114048.862500", "114050.352500", "114051.842500", "114053.332500", "114054.822500", "114056.312500", "114057.802500", "114059.292500", "114100.782500", "114102.272500", "114103.762500", "114105.252500", "114106.742500", "114108.232500", "114109.722500", "114111.212500", "114112.702500", "114114.192500", "114115.682500", "114117.172500", "114118.662500", "114120.152500", "114121.642500", "114123.132500", "114124.622500", "114126.112500", "114127.602500", "114129.092500", "114130.582500", "114132.072500", "114133.562500", "114135.052500", "114136.542500", "114138.032500", "114139.522500", "114141.012500", "114142.502500"],
      "ContentTime": ["113930.117000", "113930.126000", "113930.129000", "113930.132000", "113930.135000", "113930.138000", "113930.141000", "113930.148000", "113930.151000", "113930.153000", "113930.159000", "113930.162000", "113930.165000", "113930.168000", "113930.171000", "113930.174000", "113930.177000", "113930.180000", "113930.183000", "113930.185000", "113950.115000", "113950.118000", "113950.121000", "113950.124000", "113950.128000", "113950.131000", "113950.134000", "113950.137000", "113950.139000", "113950.142000", "113950.145000", "113950.148000", "113950.151000", "113950.154000", "113950.157000", "113950.160000", "113950.163000", "113950.166000", "113950.169000", "113950.172000", "114010.115000", "114010.118000", "114010.121000", "114010.124000", "114010.127000", "114010.130000", "114010.133000", "114010.136000", "114010.139000", "114010.142000", "114010.144000", "114010.163000", "114010.166000", "114010.170000", "114010.173000", "114010.176000", "114010.179000", "114010.182000", "114010.185000", "114010.188000", "114010.190000", "114030.115000", "114030.118000", "114030.121000", "114030.124000", "114030.127000", "114030.130000", "114030.133000", "114030.136000", "114030.138000", "114030.141000", "114030.145000", "114030.148000", "114030.150000", "114030.153000", "114030.156000", "114030.159000", "114030.162000", "114030.165000", "114030.168000", "114030.171000", "114050.115000", "114050.118000", "114050.121000", "114050.124000", "114050.127000", "114050.130000", "114050.133000", "114050.136000", "114050.139000", "114050.142000", "114050.144000", "114050.147000", "114050.150000", "114050.153000", "114050.160000", "114050.163000", "114050.166000", "114050.169000", "114050.172000", "114050.175000", "114130.115000", "114130.118000", "114130.125000", "114130.128000", "114130.131000", "114130.134000", "114130.137000", "114130.140000", "114130.143000", "114130.146000", "114130.149000", "114130.152000", "114130.155000", "114130.158000", "114130.161000", "114130.164000", "114130.168000", "114130.171000", "114130.174000", "114130.177000", "114130.180000", "114130.183000", "114130.186000", "114130.189000", "114130.192000", "114130.195000", "114130.198000", "114130.201000", "114144.486000", "114144.489000", "114144.493000", "114144.496000", "114144.499000", "114144.502000", "114144.505000", "114144.509000", "114144.512000", "114144.515000"],
      "InstanceCreationTime": ["113930.117000", "113930.126000", "113930.129000", "113930.132000", "113930.135000", "113930.138000", "113930.141000", "113930.148000", "113930.151000", "113930.153000", "113930.159000", "113930.162000", "113930.165000", "113930.168000", "113930.171000", "113930.174000", "113930.177000", "113930.180000", "113930.183000", "113930.185000", "113950.115000", "113950.118000", "113950.121000", "113950.124000", "113950.128000", "113950.131000", "113950.134000", "113950.137000", "113950.139000", "113950.142000", "113950.145000", "113950.148000", "113950.151000", "113950.154000", "113950.157000", "113950.160000", "113950.163000", "113950.166000", "113950.169000", "113950.172000", "114010.115000", "114010.118000", "114010.121000", "114010.124000", "114010.127000", "114010.130000", "114010.133000", "114010.136000", "114010.139000", "114010.142000", "114010.144000", "114010.163000", "114010.166000", "114010.170000", "114010.173000", "114010.176000", "114010.179000", "114010.182000", "114010.185000", "114010.188000", "114010.190000", "114030.115000", "114030.118000", "114030.121000", "114030.124000", "114030.127000", "114030.130000", "114030.133000", "114030.136000", "114030.138000", "114030.141000", "114030.145000", "114030.148000", "114030.150000", "114030.153000", "114030.156000", "114030.159000", "114030.162000", "114030.165000", "114030.168000", "114030.171000", "114050.115000", "114050.118000", "114050.121000", "114050.124000", "114050.127000", "114050.130000", "114050.133000", "114050.136000", "114050.139000", "114050.142000", "114050.144000", "114050.147000", "114050.150000", "114050.153000", "114050.160000", "114050.163000", "114050.166000", "114050.169000", "114050.172000", "114050.175000", "114130.115000", "114130.118000", "114130.125000", "114130.128000", "114130.131000", "114130.134000", "114130.137000", "114130.140000", "114130.143000", "114130.146000", "114130.149000", "114130.152000", "114130.155000", "114130.158000", "114130.161000", "114130.164000", "114130.168000", "114130.171000", "114130.174000", "114130.177000", "114130.180000", "114130.183000", "114130.186000", "114130.189000", "114130.192000", "114130.195000", "114130.198000", "114130.201000", "114144.486000", "114144.489000", "114144.493000", "114144.496000", "114144.499000", "114144.502000", "114144.505000", "114144.509000", "114144.512000", "114144.515000"],
      "InstanceNumber": [1, 2, 3, 4, 5, 6, 7, 8, 9, 10, 11, 12, 13, 14, 15, 16, 17, 18, 19, 20, 21, 22, 23, 24, 25, 26, 27, 28, 29, 30, 31, 32, 33, 34, 35, 36, 37, 38, 39, 40, 41, 42, 43, 44, 45, 46, 47, 48, 49, 50, 51, 52, 53, 54, 55, 56, 57, 58, 59, 60, 61, 62, 63, 64, 65, 66, 67, 68, 69, 70, 71, 72, 73, 74, 75, 76, 77, 78, 79, 80, 81, 82, 83, 84, 85, 86, 87, 88, 89, 90, 91, 92, 93, 94, 95, 96, 97, 98, 99, 100, 101, 102, 103, 104, 105, 106, 107, 108, 109, 110, 111, 112, 113, 114, 115, 116, 117, 118, 119, 120, 121, 122, 123, 124, 125, 126, 127, 128, 129, 130, 131, 132, 133, 134, 135, 136, 137, 138, 139],
      "LargestImagePixelValue": [43379, 42114, 41359, 40870, 41109, 40750, 40822, 40884, 41024, 41325, 40492, 40842, 41185, 41386, 40832, 41142, 40431, 40601, 40890, 40652, 41041, 40822, 40654, 40614, 40475, 40328, 40684, 40870, 40975, 40523, 40342, 40652, 40645, 40597, 40521, 40732, 40474, 40971, 40528, 40945, 40632, 40614, 40550, 40646, 40568, 40496, 40434, 40425, 40497, 40716, 40545, 40242, 40543, 40736, 41206, 40169, 40365, 40518, 40521, 40140, 40287, 40481, 40487, 40650, 40150, 40337, 40458, 40708, 40276, 40570, 40310, 40976, 40599, 40547, 41415, 40488, 40299, 40524, 40318, 40141, 40733, 40393, 40740, 40408, 40522, 40623, 40316, 40480, 40810, 40455, 40531, 40411, 40210, 40832, 40486, 40296, 40276, 40615, 40654, 40556, 40360, 40787, 40715, 40584, 40103, 40664, 41016, 40491, 40873, 40890, 40549, 40594, 40276, 40251, 40377, 40237, 40662, 40196, 40595, 40593, 40352, 40161, 40295, 40469, 40164, 40354, 40083, 40118, 40552, 40276, 40363, 40619, 40265, 40342, 42125, 40741, 46009, 40193, 40002],
      "WindowCenter": [10209.0, 10150.0, 10107.0, 10104.0, 10094.0, 10129.0, 10151.0, 10135.0, 10121.0, 10110.0, 10111.0, 10139.0, 10136.0, 10126.0, 10102.0, 10097.0, 10094.0, 10104.0, 10116.0, 10120.0, 10131.0, 10123.0, 10105.0, 10094.0, 10089.0, 10086.0, 10085.0, 10089.0, 10101.0, 10123.0, 10133.0, 10136.0, 10116.0, 10096.0, 10084.0, 10090.0, 10094.0, 10106.0, 10101.0, 10110.0, 10120.0, 10137.0, 10131.0, 10115.0, 10129.0, 10149.0, 10152.0, 10144.0, 10152.0, 10133.0, 10107.0, 10114.0, 10123.0, 10124.0, 10121.0, 10105.0, 10109.0, 10105.0, 10105.0, 10126.0, 10126.0, 10107.0, 10087.0, 10083.0, 10080.0, 10107.0, 10095.0, 10085.0, 10073.0, 10071.0, 10073.0, 10091.0, 10091.0, 10110.0, 10132.0, 10095.0, 10077.0, 10084.0, 10094.0, 10107.0, 10109.0, 10091.0, 10087.0, 10069.0, 10073.0, 10100.0, 10106.0, 10089.0, 10085.0, 10067.0, 10072.0, 10088.0, 10103.0, 10104.0, 10096.0, 10086.0, 10098.0, 10117.0, 10111.0, 10109.0, 10088.0, 10102.0, 10120.0, 10133.0, 10120.0, 10117.0, 10105.0, 10087.0, 10086.0, 10093.0, 10102.0, 10120.0, 10116.0, 10105.0, 10096.0, 10112.0, 10130.0, 10126.0, 10124.0, 10127.0, 10135.0, 10128.0, 10119.0, 10127.0, 10148.0, 10151.0, 10123.0, 10111.0, 10110.0, 10084.0, 10070.0, 10085.0, 10098.0, 10116.0, 10148.0, 10139.0, 10187.0, 10132.0, 10106.0],
      "WindowWidth": [21596.0, 21444.0, 21343.0, 21338.0, 21307.0, 21384.0, 21441.0, 21399.0, 21362.0, 21333.0, 21340.0, 21408.0, 21397.0, 21371.0, 21320.0, 21301.0, 21300.0, 21327.0, 21345.0, 21357.0, 21382.0, 21366.0, 21325.0, 21300.0, 21299.0, 21287.0, 21283.0, 21286.0, 21321.0, 21385.0, 21398.0, 21400.0, 21349.0, 21302.0, 21275.0, 21287.0, 21299.0, 21324.0, 21317.0, 21335.0, 21361.0, 21398.0, 21384.0, 21349.0, 21386.0, 21432.0, 21438.0, 21417.0, 21438.0, 21390.0, 21330.0, 21352.0, 21370.0, 21372.0, 21359.0, 21328.0, 21341.0, 21326.0, 21329.0, 21377.0, 21374.0, 21330.0, 21286.0, 21271.0, 21274.0, 21335.0, 21302.0, 21279.0, 21250.0, 21244.0, 21250.0, 21301.0, 21293.0, 21341.0, 21405.0, 21302.0, 21263.0, 21276.0, 21301.0, 21334.0, 21336.0, 21296.0, 21292.0, 21244.0, 21251.0, 21318.0, 21332.0, 21295.0, 21290.0, 21241.0, 21248.0, 21291.0, 21324.0, 21322.0, 21310.0, 21282.0, 21316.0, 21365.0, 21359.0, 21353.0, 21287.0, 21323.0, 21362.0, 21397.0, 21368.0, 21355.0, 21325.0, 21285.0, 21283.0, 21299.0, 21316.0, 21356.0, 21349.0, 21325.0, 21305.0, 21344.0, 21382.0, 21379.0, 21370.0, 21380.0, 21396.0, 21383.0, 21362.0, 21381.0, 21430.0, 21442.0, 21368.0, 21339.0, 21338.0, 21279.0, 21243.0, 21278.0, 21311.0, 21353.0, 21437.0, 21422.0, 21506.0, 21406.0, 21348.0]
    },
    "slices": {}
  }
}