{
  "AcquisitionMatrixPE": 104,
  "AcquisitionNumber": 1,
  "AcquisitionTime": "11:51:35.077500",
  "BandwidthPerPixelPhaseEncode": 17.17,
  "BaseResolution": 104,
  "BodyPartExamined": "BRAIN",
  "CoilString": "HC1-7;NC1_2",
  "ConsistencyInfo": "N4_VE11C_LATEST_20160120",
  "ConversionSoftware": "dcm2niix",
  "ConversionSoftwareVersion": "v1.0.20190720  (JP2:OpenJPEG) GCC7.3.0",
  "DerivedVendorReportedEchoSpacing": 0.000560011,
  "DeviceSerialNumber": "167006",
  "DwellTime": 2.1e-06,
  "EchoTime": 0.037,
  "EchoTrainLength": 104,
  "EffectiveEchoSpacing": 0.000560011,
  "FlipAngle": 52,
  "ImageComments": "Unaliased_MB4_PE3_LB",
  "ImageOrientationPatientDICOM": [0.998563, 0.0480957, 0.0236291, -0.0359176, 0.927963, -0.370938],
  "ImageType": [
    "ORIGINAL",
    "PRIMARY",
    "M",
    "MB",
    "ND",
    "MOSAIC"
],
  "ImagingFrequency": 123.259,
  "InPlanePhaseEncodingDirectionDICOM": "COL",
  "InstitutionAddress": "Chemin_Queen-Mary_4565_Montreal_District_CA_H3W_1W5",
  "InstitutionName": "IUGM",
  "InstitutionalDepartmentName": "Department",
  "MRAcquisitionType": "2D",
  "MagneticFieldStrength": 3,
  "Manufacturer": "Siemens",
  "ManufacturersModelName": "Prisma_fit",
  "Modality": "MR",
  "MultibandAccelerationFactor": 4,
  "PartialFourier": 1,
  "PatientPosition": "HFS",
  "PercentPhaseFOV": 100,
  "PhaseEncodingDirection": "j",
  "PhaseEncodingSteps": 104,
  "PhaseResolution": 1,
  "PixelBandwidth": 2290,
  "ProcedureStepDescription": "hcptrt_generic",
  "ProtocolName": "func_task-relational_run-2",
  "PulseSequenceDetails": "%CustomerSeq%_cmrr_mbep2d_bold",
  "ReceiveCoilActiveElements": "HC1-7;NC1,2",
  "ReceiveCoilName": "HeadNeck_64",
  "ReconMatrixPE": 104,
  "RepetitionTime": 1.49,
  "SAR": 0.0388128,
  "ScanOptions": "FS",
  "ScanningSequence": "EP",
  "SequenceName": "epfid2d1_104",
  "SequenceVariant": "SK_SS",
  "SeriesDescription": "func_task-relational_run-2",
  "SeriesNumber": 38,
  "ShimSetting": [627, -7199, -8849, 680, 66, -50, -65, 6],
  "SliceThickness": 2,
  "SliceTiming": [0, 0.785, 0.1, 0.8825, 0.1975, 0.98, 0.295, 1.08, 0.3925, 1.1775, 0.49, 1.275, 0.59, 1.3725, 0.6875, 0, 0.785, 0.1, 0.8825, 0.1975, 0.98, 0.295, 1.08, 0.3925, 1.1775, 0.49, 1.275, 0.59, 1.3725, 0.6875, 0, 0.785, 0.1, 0.8825, 0.1975, 0.98, 0.295, 1.08, 0.3925, 1.1775, 0.49, 1.275, 0.59, 1.3725, 0.6875, 0, 0.785, 0.1, 0.8825, 0.1975, 0.98, 0.295, 1.08, 0.3925, 1.1775, 0.49, 1.275, 0.59, 1.3725, 0.6875],
  "SoftwareVersions": "syngo_MR_E11",
  "SpacingBetweenSlices": 2,
  "StationName": "MRC35049",
  "TaskName": "relational",
  "TotalReadoutTime": 0.0576811,
  "TxRefAmp": 251.094,
  "WipMemBlock": "722dc819-8848-4ccc-8958-9bc271635138||Sequence: R016 ve11c/master r/e634e98; Dec 19 2017 11:00:25 by eja",
  "dcmmeta_affine": [
    [-1.9971264600753784, -0.07183527201414108, 0.07953493297100067, 108.89481353759766],
    [-0.09619130194187164, 1.8559256792068481, -0.7391123175621033, -57.198890686035156],
    [0.047258298844099045, 0.7418757081031799, 1.8567140102386475, -77.47088623046875],
    [0.0, 0.0, 0.0, 1.0]
],
  "dcmmeta_reorient_transform": [
    [0.0, -1.0, 0.0, 103.0],
    [1.0, 0.0, 0.0, 0.0],
    [0.0, 0.0, 1.0, 0.0],
    [0.0, 0.0, 0.0, 1.0]
],
  "dcmmeta_shape": [104, 104, 60, 119],
  "dcmmeta_slice_dim": 2,
  "dcmmeta_version": 0.6,
  "global": {
    "const": {
      "AcquisitionMatrix": [104, 0, 0, 104],
      "AngioFlag": "N",
      "BitsAllocated": 16,
      "BitsStored": 16,
      "BodyPartExamined": "BRAIN",
      "Columns": 832,
      "EchoNumbers": 1,
      "EchoTime": 37.0,
      "EchoTrainLength": 104,
      "FlipAngle": 52.0,
      "HighBit": 15,
      "ImageOrientationPatient": [0.99856320368442, 0.04809565028637, 0.02362914875829, -0.0359176373802, 0.92796284496258, -0.3709378407415],
      "ImagePositionPatient": [-802.30175620184, -844.53203828639, 251.78303631989],
      "ImageType": [
        "ORIGINAL",
        "PRIMARY",
        "M",
        "MB",
        "ND",
        "MOSAIC"
],
      "ImagedNucleus": "1H",
      "ImagingFrequency": 123.259497,
      "InPlanePhaseEncodingDirection": "COL",
      "MRAcquisitionType": "2D",
      "MagneticFieldStrength": 3.0,
      "Manufacturer": "SIEMENS",
      "ManufacturerModelName": "Prisma_fit",
      "Modality": "MR",
      "NumberOfAverages": 1.0,
      "NumberOfPhaseEncodingSteps": 104,
      "PercentPhaseFieldOfView": 100.0,
      "PercentSampling": 100.0,
      "PerformedProcedureStepStartTime": "103442.847000",
      "PhotometricInterpretation": "MONOCHROME2",
      "PixelBandwidth": 2290.0,
      "PixelRepresentation": 0,
      "PixelSpacing": [2.0, 2.0],
      "ProtocolName": "func_task-relational_run-2",
      "RepetitionTime": 1490.0,
      "Rows": 832,
      "SAR": 0.03881276114449,
      "SamplesPerPixel": 1,
      "ScanOptions": "FS",
      "ScanningSequence": "EP",
      "SequenceName": "epfid2d1_104",
      "SequenceVariant": [
        "SK",
        "SS"
],
      "SeriesDescription": "func_task-relational_run-2",
      "SeriesNumber": 38,
      "SeriesTime": "115250.154000",
      "SliceLocation": -46.451967373202,
      "SliceThickness": 2.0,
      "SmallestImagePixelValue": 0,
      "SoftwareVersions": "syngo MR E11",
      "SpacingBetweenSlices": 1.9999999653638,
      "SpecificCharacterSet": "ISO_IR 100",
      "StudyID": "1",
      "StudyTime": "103442.783000",
      "TransmitCoilName": "Body",
      "VariableFlipAngleFlag": "N",
      "WindowCenterWidthExplanation": "Algo1",
      "dBdt": 0.0},
    "slices": {}
  },
  "time": {
    "samples": {
      "AcquisitionNumber": [1, 2, 3, 4, 5, 6, 7, 8, 9, 10, 11, 12, 13, 14, 15, 16, 17, 18, 19, 20, 21, 22, 23, 24, 25, 26, 27, 28, 29, 30, 31, 32, 33, 34, 35, 36, 37, 38, 39, 40, 41, 42, 43, 44, 45, 46, 47, 48, 49, 50, 51, 52, 53, 54, 55, 56, 57, 58, 59, 60, 61, 62, 63, 64, 65, 66, 67, 68, 69, 70, 71, 72, 73, 74, 75, 76, 77, 78, 79, 80, 81, 82, 83, 84, 85, 86, 87, 88, 89, 90, 91, 92, 93, 94, 95, 96, 97, 98, 99, 100, 101, 102, 103, 104, 105, 106, 107, 108, 109, 110, 111, 112, 113, 114, 115, 116, 117, 118, 119],
      "AcquisitionTime": ["115135.077500", "115136.567500", "115138.057500", "115139.547500", "115141.037500", "115142.527500", "115144.017500", "115145.507500", "115146.997500", "115148.487500", "115149.977500", "115151.467500", "115152.957500", "115154.447500", "115155.937500", "115157.427500", "115158.917500", "115200.407500", "115201.897500", "115203.387500", "115204.877500", "115206.367500", "115207.857500", "115209.347500", "115210.837500", "115212.327500", "115213.817500", "115215.307500", "115216.797500", "115218.287500", "115219.777500", "115221.267500", "115222.757500", "115224.247500", "115225.737500", "115227.227500", "115228.717500", "115230.207500", "115231.697500", "115233.187500", "115234.677500", "115236.167500", "115237.657500", "115239.147500", "115240.637500", "115242.127500", "115243.617500", "115245.107500", "115246.597500", "115248.087500", "115249.577500", "115251.067500", "115252.557500", "115254.047500", "115255.537500", "115257.027500", "115258.517500", "115300.007500", "115301.497500", "115302.987500", "115304.477500", "115305.967500", "115307.457500", "115308.947500", "115310.437500", "115311.927500", "115313.417500", "115314.907500", "115316.397500", "115317.887500", "115319.377500", "115320.867500", "115322.357500", "115323.847500", "115325.337500", "115326.827500", "115328.317500", "115329.807500", "115331.297500", "115332.787500", "115334.277500", "115335.767500", "115337.257500", "115338.747500", "115340.237500", "115341.727500", "115343.217500", "115344.707500", "115346.197500", "115347.687500", "115349.177500", "115350.667500", "115352.157500", "115353.647500", "115355.137500", "115356.627500", "115358.117500", "115359.607500", "115401.097500", "115402.587500", "115404.077500", "115405.567500", "115407.057500", "115408.547500", "115410.037500", "115411.527500", "115413.017500", "115414.507500", "115415.997500", "115417.487500", "115418.977500", "115420.467500", "115421.957500", "115423.447500", "115424.937500", "115426.427500", "115427.917500", "115429.407500", "115430.897500"],
      "ContentTime": ["115250.157000", "115250.160000", "115250.163000", "115250.166000", "115250.169000", "115250.172000", "115250.175000", "115250.178000", "115250.184000", "115250.187000", "115250.190000", "115250.199000", "115250.202000", "115250.205000", "115250.208000", "115250.211000", "115250.214000", "115250.217000", "115250.220000", "115250.223000", "115310.115000", "115310.118000", "115310.121000", "115310.124000", "115310.143000", "115310.146000", "115310.149000", "115310.152000", "115310.155000", "115310.168000", "115310.171000", "115310.174000", "115310.177000", "115310.180000", "115310.183000", "115310.189000", "115310.192000", "115310.195000", "115310.198000", "115310.201000", "115330.115000", "115330.125000", "115330.128000", "115330.131000", "115330.134000", "115330.137000", "115330.140000", "115330.143000", "115330.146000", "115330.149000", "115330.152000", "115330.155000", "115330.158000", "115330.161000", "115330.164000", "115330.167000", "115330.170000", "115330.173000", "115330.176000", "115330.178000", "115350.115000", "115350.118000", "115350.121000", "115350.124000", "115350.127000", "115350.130000", "115350.133000", "115350.136000", "115350.138000", "115350.141000", "115350.144000", "115350.147000", "115350.150000", "115350.153000", "115350.156000", "115350.159000", "115350.162000", "115350.165000", "115350.168000", "115350.171000", "115410.115000", "115410.118000", "115410.121000", "115410.124000", "115410.127000", "115410.130000", "115410.133000", "115410.136000", "115410.139000", "115410.142000", "115410.145000", "115410.148000", "115410.150000", "115410.153000", "115410.156000", "115410.159000", "115410.162000", "115410.165000", "115410.168000", "115410.171000", "115410.174000", "115432.600000", "115432.603000", "115432.606000", "115432.609000", "115432.612000", "115432.615000", "115432.618000", "115432.621000", "115432.624000", "115432.628000", "115432.631000", "115432.634000", "115432.637000", "115432.640000", "115432.643000", "115432.646000", "115432.649000", "115432.652000"],
      "InstanceCreationTime": ["115250.157000", "115250.160000", "115250.163000", "115250.166000", "115250.169000", "115250.172000", "115250.175000", "115250.178000", "115250.184000", "115250.187000", "115250.190000", "115250.199000", "115250.202000", "115250.205000", "115250.208000", "115250.211000", "115250.214000", "115250.217000", "115250.220000", "115250.223000", "115310.115000", "115310.118000", "115310.121000", "115310.124000", "115310.143000", "115310.146000", "115310.149000", "115310.152000", "115310.155000", "115310.168000", "115310.171000", "115310.174000", "115310.177000", "115310.180000", "115310.183000", "115310.189000", "115310.192000", "115310.195000", "115310.198000", "115310.201000", "115330.115000", "115330.125000", "115330.128000", "115330.131000", "115330.134000", "115330.137000", "115330.140000", "115330.143000", "115330.146000", "115330.149000", "115330.152000", "115330.155000", "115330.158000", "115330.161000", "115330.164000", "115330.167000", "115330.170000", "115330.173000", "115330.176000", "115330.178000", "115350.115000", "115350.118000", "115350.121000", "115350.124000", "115350.127000", "115350.130000", "115350.133000", "115350.136000", "115350.138000", "115350.141000", "115350.144000", "115350.147000", "115350.150000", "115350.153000", "115350.156000", "115350.159000", "115350.162000", "115350.165000", "115350.168000", "115350.171000", "115410.115000", "115410.118000", "115410.121000", "115410.124000", "115410.127000", "115410.130000", "115410.133000", "115410.136000", "115410.139000", "115410.142000", "115410.145000", "115410.148000", "115410.150000", "115410.153000", "115410.156000", "115410.159000", "115410.162000", "115410.165000", "115410.168000", "115410.171000", "115410.174000", "115432.600000", "115432.603000", "115432.606000", "115432.609000", "115432.612000", "115432.615000", "115432.618000", "115432.621000", "115432.624000", "115432.628000", "115432.631000", "115432.634000", "115432.637000", "115432.640000", "115432.643000", "115432.646000", "115432.649000", "115432.652000"],
      "InstanceNumber": [1, 2, 3, 4, 5, 6, 7, 8, 9, 10, 11, 12, 13, 14, 15, 16, 17, 18, 19, 20, 21, 22, 23, 24, 25, 26, 27, 28, 29, 30, 31, 32, 33, 34, 35, 36, 37, 38, 39, 40, 41, 42, 43, 44, 45, 46, 47, 48, 49, 50, 51, 52, 53, 54, 55, 56, 57, 58, 59, 60, 61, 62, 63, 64, 65, 66, 67, 68, 69, 70, 71, 72, 73, 74, 75, 76, 77, 78, 79, 80, 81, 82, 83, 84, 85, 86, 87, 88, 89, 90, 91, 92, 93, 94, 95, 96, 97, 98, 99, 100, 101, 102, 103, 104, 105, 106, 107, 108, 109, 110, 111, 112, 113, 114, 115, 116, 117, 118, 119],
      "LargestImagePixelValue": [42584, 41318, 40950, 41313, 40961, 40769, 40725, 40679, 40724, 40660, 41087, 40831, 40987, 41107, 40776, 40933, 40962, 40669, 40784, 40194, 40971, 40868, 40979, 40789, 40457, 40697, 40503, 40963, 40880, 40560, 40721, 40915, 41450, 41065, 40971, 40743, 40589, 40796, 40928, 41068, 40735, 40601, 40803, 40996, 41101, 40608, 41162, 41307, 40876, 41284, 41013, 41032, 41321, 41425, 41399, 41361, 40762, 41007, 40760, 40836, 41028, 41053, 41331, 41580, 41445, 41333, 41576, 41335, 41210, 41250, 41031, 41301, 41124, 41114, 40878, 41359, 41418, 41037, 41321, 41584, 41159, 41163, 41329, 41364, 41292, 41659, 41539, 41475, 41336, 41591, 41664, 41899, 41710, 41535, 41581, 41520, 41359, 41206, 41625, 41571, 41458, 41265, 41612, 41284, 41420, 40995, 41217, 41404, 41305, 41532, 41014, 41111, 41794, 41438, 41501, 41496, 41363, 41667, 41481],
      "WindowCenter": [10234.0, 10189.0, 10166.0, 10152.0, 10144.0, 10126.0, 10122.0, 10124.0, 10129.0, 10129.0, 10144.0, 10145.0, 10147.0, 10165.0, 10159.0, 10159.0, 10158.0, 10166.0, 10178.0, 10162.0, 10152.0, 10149.0, 10150.0, 10158.0, 10163.0, 10169.0, 10167.0, 10174.0, 10183.0, 10182.0, 10162.0, 10153.0, 10156.0, 10133.0, 10132.0, 10145.0, 10144.0, 10136.0, 10141.0, 10132.0, 10116.0, 10116.0, 10120.0, 10120.0, 10137.0, 10146.0, 10135.0, 10124.0, 10118.0, 10126.0, 10145.0, 10148.0, 10152.0, 10155.0, 10153.0, 10143.0, 10140.0, 10153.0, 10159.0, 10168.0, 10158.0, 10140.0, 10134.0, 10139.0, 10145.0, 10155.0, 10170.0, 10173.0, 10174.0, 10167.0, 10162.0, 10163.0, 10171.0, 10183.0, 10171.0, 10150.0, 10146.0, 10123.0, 10108.0, 10124.0, 10133.0, 10142.0, 10153.0, 10165.0, 10146.0, 10124.0, 10123.0, 10128.0, 10134.0, 10143.0, 10143.0, 10146.0, 10151.0, 10150.0, 10159.0, 10168.0, 10153.0, 10155.0, 10153.0, 10143.0, 10151.0, 10144.0, 10160.0, 10164.0, 10174.0, 10163.0, 10147.0, 10140.0, 10137.0, 10133.0, 10136.0, 10162.0, 10197.0, 10215.0, 10197.0, 10162.0, 10144.0, 10155.0, 10153.0],
      "WindowWidth": [21656.0, 21538.0, 21473.0, 21434.0, 21416.0, 21372.0, 21363.0, 21369.0, 21376.0, 21374.0, 21405.0, 21408.0, 21412.0, 21462.0, 21444.0, 21442.0, 21442.0, 21459.0, 21496.0, 21453.0, 21428.0, 21423.0, 21426.0, 21445.0, 21469.0, 21469.0, 21462.0, 21475.0, 21498.0, 21499.0, 21453.0, 21434.0, 21441.0, 21389.0, 21387.0, 21421.0, 21416.0, 21397.0, 21409.0, 21392.0, 21356.0, 21355.0, 21357.0, 21354.0, 21395.0, 21413.0, 21384.0, 21357.0, 21348.0, 21367.0, 21417.0, 21419.0, 21424.0, 21435.0, 21427.0, 21403.0, 21404.0, 21428.0, 21449.0, 21465.0, 21444.0, 21399.0, 21383.0, 21393.0, 21405.0, 21441.0, 21471.0, 21480.0, 21486.0, 21470.0, 21454.0, 21452.0, 21470.0, 21502.0, 21480.0, 21425.0, 21419.0, 21369.0, 21327.0, 21370.0, 21386.0, 21400.0, 21428.0, 21461.0, 21411.0, 21359.0, 21357.0, 21369.0, 21388.0, 21405.0, 21407.0, 21407.0, 21424.0, 21418.0, 21441.0, 21461.0, 21426.0, 21436.0, 21430.0, 21405.0, 21425.0, 21407.0, 21445.0, 21455.0, 21480.0, 21460.0, 21418.0, 21409.0, 21400.0, 21383.0, 21394.0, 21452.0, 21540.0, 21584.0, 21541.0, 21441.0, 21406.0, 21446.0, 21438.0]
    },
    "slices": {}
  }
}