{
  "AcquisitionMatrixPE": 104,
  "AcquisitionNumber": 1,
  "AcquisitionTime": "11:11:45.217500",
  "BandwidthPerPixelPhaseEncode": 17.17,
  "BaseResolution": 104,
  "BodyPartExamined": "BRAIN",
  "CoilString": "HC1-7;NC1_2",
  "ConsistencyInfo": "N4_VE11C_LATEST_20160120",
  "ConversionSoftware": "dcm2niix",
  "ConversionSoftwareVersion": "v1.0.20190720  (JP2:OpenJPEG) GCC7.3.0",
  "DerivedVendorReportedEchoSpacing": 0.000560011,
  "DeviceSerialNumber": "167006",
  "DwellTime": 2.1e-06,
  "EchoTime": 0.037,
  "EchoTrainLength": 104,
  "EffectiveEchoSpacing": 0.000560011,
  "FlipAngle": 52,
  "ImageComments": "Unaliased_MB4_PE3_LB",
  "ImageOrientationPatientDICOM": [0.999358, 0.0213706, 0.0287692, -0.0108145, 0.94516, -0.326427],
  "ImageType": [
    "ORIGINAL",
    "PRIMARY",
    "M",
    "MB",
    "ND",
    "MOSAIC"
],
  "ImagingFrequency": 123.259,
  "InPlanePhaseEncodingDirectionDICOM": "COL",
  "InstitutionAddress": "Chemin_Queen-Mary_4565_Montreal_District_CA_H3W_1W5",
  "InstitutionName": "IUGM",
  "InstitutionalDepartmentName": "Department",
  "MRAcquisitionType": "2D",
  "MagneticFieldStrength": 3,
  "Manufacturer": "Siemens",
  "ManufacturersModelName": "Prisma_fit",
  "Modality": "MR",
  "MultibandAccelerationFactor": 4,
  "PartialFourier": 1,
  "PatientPosition": "HFS",
  "PercentPhaseFOV": 100,
  "PhaseEncodingDirection": "j",
  "PhaseEncodingSteps": 104,
  "PhaseResolution": 1,
  "PixelBandwidth": 2290,
  "ProcedureStepDescription": "hcptrt_generic",
  "ProtocolName": "func_task-motor_run-1",
  "PulseSequenceDetails": "%CustomerSeq%_cmrr_mbep2d_bold",
  "ReceiveCoilActiveElements": "HC1-7;NC1,2",
  "ReceiveCoilName": "HeadNeck_64",
  "ReconMatrixPE": 104,
  "RepetitionTime": 1.49,
  "SAR": 0.0379029,
  "ScanOptions": "FS",
  "ScanningSequence": "EP",
  "SequenceName": "epfid2d1_104",
  "SequenceVariant": "SK_SS",
  "SeriesDescription": "func_task-motor_run-1",
  "SeriesNumber": 19,
  "ShimSetting": [630, -7193, -8814, 720, 89, 6, -50, -13],
  "SliceThickness": 2,
  "SliceTiming": [0, 0.7825, 0.0975, 0.88, 0.195, 0.98, 0.2925, 1.0775, 0.39, 1.175, 0.49, 1.2725, 0.5875, 1.37, 0.685, 0, 0.7825, 0.0975, 0.88, 0.195, 0.98, 0.2925, 1.0775, 0.39, 1.175, 0.49, 1.2725, 0.5875, 1.37, 0.685, 0, 0.7825, 0.0975, 0.88, 0.195, 0.98, 0.2925, 1.0775, 0.39, 1.175, 0.49, 1.2725, 0.5875, 1.37, 0.685, 0, 0.7825, 0.0975, 0.88, 0.195, 0.98, 0.2925, 1.0775, 0.39, 1.175, 0.49, 1.2725, 0.5875, 1.37, 0.685],
  "SoftwareVersions": "syngo_MR_E11",
  "SpacingBetweenSlices": 2,
  "StationName": "MRC35049",
  "TaskName": "motor",
  "TotalReadoutTime": 0.0576811,
  "TxRefAmp": 249.506,
  "WipMemBlock": "e335f1a2-2036-4948-941d-4e45e367b0e8||Sequence: R016 ve11c/master r/e634e98; Dec 19 2017 11:00:25 by eja",
  "dcmmeta_affine": [
    [-1.9987151622772217, -0.02162899635732174, 0.06833486258983612, 107.15400695800781],
    [-0.042741112411022186, 1.8903207778930664, -0.651813268661499, -63.055328369140625],
    [0.05753837153315544, 0.6528549194335938, 1.8895686864852905, -67.32987213134766],
    [0.0, 0.0, 0.0, 1.0]
],
  "dcmmeta_reorient_transform": [
    [0.0, -1.0, 0.0, 103.0],
    [1.0, 0.0, 0.0, 0.0],
    [0.0, 0.0, 1.0, 0.0],
    [0.0, 0.0, 0.0, 1.0]
],
  "dcmmeta_shape": [104, 104, 60, 144],
  "dcmmeta_slice_dim": 2,
  "dcmmeta_version": 0.6,
  "global": {
    "const": {
      "AcquisitionMatrix": [104, 0, 0, 104],
      "AngioFlag": "N",
      "BitsAllocated": 16,
      "BitsStored": 16,
      "BodyPartExamined": "BRAIN",
      "Columns": 832,
      "EchoNumbers": 1,
      "EchoTime": 37.0,
      "EchoTrainLength": 104,
      "FlipAngle": 52.0,
      "HighBit": 15,
      "ImageOrientationPatient": [0.99935761033624, 0.02137055602205, 0.02876918487456, -0.010814498146, 0.94516038789578, -0.3264274617469],
      "ImagePositionPatient": [-824.58560830441, -835.28223769498, 216.60940997539],
      "ImageType": [
        "ORIGINAL",
        "PRIMARY",
        "M",
        "MB",
        "ND",
        "MOSAIC"
],
      "ImagedNucleus": "1H",
      "ImagingFrequency": 123.259474,
      "InPlanePhaseEncodingDirection": "COL",
      "MRAcquisitionType": "2D",
      "MagneticFieldStrength": 3.0,
      "Manufacturer": "SIEMENS",
      "ManufacturerModelName": "Prisma_fit",
      "Modality": "MR",
      "NumberOfAverages": 1.0,
      "NumberOfPhaseEncodingSteps": 104,
      "PercentPhaseFieldOfView": 100.0,
      "PercentSampling": 100.0,
      "PerformedProcedureStepStartTime": "103442.847000",
      "PhotometricInterpretation": "MONOCHROME2",
      "PixelBandwidth": 2290.0,
      "PixelRepresentation": 0,
      "PixelSpacing": [2.0, 2.0],
      "ProtocolName": "func_task-motor_run-1",
      "RepetitionTime": 1490.0,
      "Rows": 832,
      "SAR": 0.03790294521667,
      "SamplesPerPixel": 1,
      "ScanOptions": "FS",
      "ScanningSequence": "EP",
      "SequenceName": "epfid2d1_104",
      "SequenceVariant": [
        "SK",
        "SS"
],
      "SeriesDescription": "func_task-motor_run-1",
      "SeriesNumber": 19,
      "SeriesTime": "111308.215000",
      "SliceLocation": -39.40088132904,
      "SliceThickness": 2.0,
      "SmallestImagePixelValue": 0,
      "SoftwareVersions": "syngo MR E11",
      "SpacingBetweenSlices": 2.0000000097857,
      "SpecificCharacterSet": "ISO_IR 100",
      "StudyID": "1",
      "StudyTime": "103442.783000",
      "TransmitCoilName": "Body",
      "VariableFlipAngleFlag": "N",
      "WindowCenterWidthExplanation": "Algo1",
      "dBdt": 0.0},
    "slices": {}
  },
  "time": {
    "samples": {
      "AcquisitionNumber": [1, 2, 3, 4, 5, 6, 7, 8, 9, 10, 11, 12, 13, 14, 15, 16, 17, 18, 19, 20, 21, 22, 23, 24, 25, 26, 27, 28, 29, 30, 31, 32, 33, 34, 35, 36, 37, 38, 39, 40, 41, 42, 43, 44, 45, 46, 47, 48, 49, 50, 51, 52, 53, 54, 55, 56, 57, 58, 59, 60, 61, 62, 63, 64, 65, 66, 67, 68, 69, 70, 71, 72, 73, 74, 75, 76, 77, 78, 79, 80, 81, 82, 83, 84, 85, 86, 87, 88, 89, 90, 91, 92, 93, 94, 95, 96, 97, 98, 99, 100, 101, 102, 103, 104, 105, 106, 107, 108, 109, 110, 111, 112, 113, 114, 115, 116, 117, 118, 119, 120, 121, 122, 123, 124, 125, 126, 127, 128, 129, 130, 131, 132, 133, 134, 135, 136, 137, 138, 139, 140, 141, 142, 143, 144],
      "AcquisitionTime": ["111145.217500", "111146.707500", "111148.197500", "111149.687500", "111151.177500", "111152.667500", "111154.157500", "111155.647500", "111157.137500", "111158.627500", "111200.117500", "111201.607500", "111203.097500", "111204.587500", "111206.077500", "111207.567500", "111209.057500", "111210.547500", "111212.037500", "111213.527500", "111215.017500", "111216.507500", "111217.997500", "111219.487500", "111220.977500", "111222.467500", "111223.957500", "111225.447500", "111226.937500", "111228.427500", "111229.917500", "111231.407500", "111232.897500", "111234.387500", "111235.877500", "111237.367500", "111238.857500", "111240.347500", "111241.837500", "111243.327500", "111244.817500", "111246.307500", "111247.797500", "111249.287500", "111250.777500", "111252.267500", "111253.757500", "111255.247500", "111256.737500", "111258.227500", "111259.717500", "111301.207500", "111302.697500", "111304.187500", "111305.677500", "111307.167500", "111308.657500", "111310.147500", "111311.637500", "111313.127500", "111314.617500", "111316.107500", "111317.597500", "111319.087500", "111320.577500", "111322.067500", "111323.557500", "111325.047500", "111326.537500", "111328.027500", "111329.517500", "111331.007500", "111332.497500", "111333.987500", "111335.477500", "111336.967500", "111338.457500", "111339.947500", "111341.437500", "111342.927500", "111344.417500", "111345.907500", "111347.397500", "111348.887500", "111350.377500", "111351.867500", "111353.357500", "111354.847500", "111356.337500", "111357.827500", "111359.317500", "111400.807500", "111402.297500", "111403.787500", "111405.277500", "111406.767500", "111408.257500", "111409.747500", "111411.237500", "111412.727500", "111414.217500", "111415.707500", "111417.197500", "111418.687500", "111420.177500", "111421.667500", "111423.157500", "111424.647500", "111426.137500", "111427.627500", "111429.117500", "111430.607500", "111432.097500", "111433.587500", "111435.077500", "111436.567500", "111438.057500", "111439.547500", "111441.037500", "111442.527500", "111444.017500", "111445.507500", "111446.997500", "111448.487500", "111449.977500", "111451.467500", "111452.957500", "111454.447500", "111455.937500", "111457.427500", "111458.917500", "111500.407500", "111501.897500", "111503.387500", "111504.877500", "111506.367500", "111507.857500", "111509.347500", "111510.837500", "111512.327500", "111513.817500", "111515.307500", "111516.797500", "111518.287500"],
      "ContentTime": ["111308.218000", "111308.222000", "111308.225000", "111308.228000", "111308.231000", "111308.234000", "111308.237000", "111308.239000", "111308.242000", "111308.245000", "111308.248000", "111308.251000", "111308.254000", "111308.257000", "111308.260000", "111308.263000", "111308.266000", "111308.269000", "111308.272000", "111308.275000", "111308.278000", "111308.281000", "111308.284000", "111308.287000", "111308.290000", "111308.293000", "111308.296000", "111308.299000", "111308.302000", "111308.304000", "111328.190000", "111328.193000", "111328.196000", "111328.199000", "111328.202000", "111328.205000", "111328.208000", "111328.211000", "111328.214000", "111328.217000", "111328.220000", "111328.223000", "111328.226000", "111328.229000", "111328.232000", "111328.235000", "111328.237000", "111328.240000", "111328.243000", "111328.246000", "111348.190000", "111348.208000", "111348.212000", "111348.215000", "111348.218000", "111348.220000", "111348.224000", "111348.227000", "111348.230000", "111348.233000", "111348.237000", "111348.240000", "111348.243000", "111348.246000", "111348.249000", "111348.258000", "111348.261000", "111348.265000", "111348.268000", "111348.271000", "111408.190000", "111408.193000", "111408.196000", "111408.199000", "111408.202000", "111408.205000", "111408.208000", "111408.211000", "111408.213000", "111408.216000", "111408.219000", "111408.222000", "111408.225000", "111408.228000", "111408.231000", "111408.234000", "111408.238000", "111408.249000", "111408.252000", "111408.255000", "111448.190000", "111448.193000", "111448.196000", "111448.199000", "111448.202000", "111448.205000", "111448.208000", "111448.211000", "111448.214000", "111448.217000", "111448.219000", "111448.222000", "111448.225000", "111448.228000", "111448.231000", "111448.234000", "111448.237000", "111448.240000", "111448.243000", "111448.246000", "111448.249000", "111448.252000", "111448.255000", "111448.257000", "111448.260000", "111448.263000", "111448.266000", "111448.269000", "111448.272000", "111448.275000", "111448.278000", "111448.281000", "111520.239000", "111520.243000", "111520.246000", "111520.249000", "111520.252000", "111520.255000", "111520.258000", "111520.265000", "111520.268000", "111520.271000", "111520.274000", "111520.277000", "111520.280000", "111520.283000", "111520.286000", "111520.288000", "111520.291000", "111520.294000", "111520.297000", "111520.300000", "111520.303000", "111520.306000"],
      "InstanceCreationTime": ["111308.218000", "111308.222000", "111308.225000", "111308.228000", "111308.231000", "111308.234000", "111308.237000", "111308.239000", "111308.242000", "111308.245000", "111308.248000", "111308.251000", "111308.254000", "111308.257000", "111308.260000", "111308.263000", "111308.266000", "111308.269000", "111308.272000", "111308.275000", "111308.278000", "111308.281000", "111308.284000", "111308.287000", "111308.290000", "111308.293000", "111308.296000", "111308.299000", "111308.302000", "111308.304000", "111328.190000", "111328.193000", "111328.196000", "111328.199000", "111328.202000", "111328.205000", "111328.208000", "111328.211000", "111328.214000", "111328.217000", "111328.220000", "111328.223000", "111328.226000", "111328.229000", "111328.232000", "111328.235000", "111328.237000", "111328.240000", "111328.243000", "111328.246000", "111348.190000", "111348.208000", "111348.212000", "111348.215000", "111348.218000", "111348.220000", "111348.224000", "111348.227000", "111348.230000", "111348.233000", "111348.237000", "111348.240000", "111348.243000", "111348.246000", "111348.249000", "111348.258000", "111348.261000", "111348.265000", "111348.268000", "111348.271000", "111408.190000", "111408.193000", "111408.196000", "111408.199000", "111408.202000", "111408.205000", "111408.208000", "111408.211000", "111408.213000", "111408.216000", "111408.219000", "111408.222000", "111408.225000", "111408.228000", "111408.231000", "111408.234000", "111408.238000", "111408.249000", "111408.252000", "111408.255000", "111448.190000", "111448.193000", "111448.196000", "111448.199000", "111448.202000", "111448.205000", "111448.208000", "111448.211000", "111448.214000", "111448.217000", "111448.219000", "111448.222000", "111448.225000", "111448.228000", "111448.231000", "111448.234000", "111448.237000", "111448.240000", "111448.243000", "111448.246000", "111448.249000", "111448.252000", "111448.255000", "111448.257000", "111448.260000", "111448.263000", "111448.266000", "111448.269000", "111448.272000", "111448.275000", "111448.278000", "111448.281000", "111520.239000", "111520.243000", "111520.246000", "111520.249000", "111520.252000", "111520.255000", "111520.258000", "111520.265000", "111520.268000", "111520.271000", "111520.274000", "111520.277000", "111520.280000", "111520.283000", "111520.286000", "111520.288000", "111520.291000", "111520.294000", "111520.297000", "111520.300000", "111520.303000", "111520.306000"],
      "InstanceNumber": [1, 2, 3, 4, 5, 6, 7, 8, 9, 10, 11, 12, 13, 14, 15, 16, 17, 18, 19, 20, 21, 22, 23, 24, 25, 26, 27, 28, 29, 30, 31, 32, 33, 34, 35, 36, 37, 38, 39, 40, 41, 42, 43, 44, 45, 46, 47, 48, 49, 50, 51, 52, 53, 54, 55, 56, 57, 58, 59, 60, 61, 62, 63, 64, 65, 66, 67, 68, 69, 70, 71, 72, 73, 74, 75, 76, 77, 78, 79, 80, 81, 82, 83, 84, 85, 86, 87, 88, 89, 90, 91, 92, 93, 94, 95, 96, 97, 98, 99, 100, 101, 102, 103, 104, 105, 106, 107, 108, 109, 110, 111, 112, 113, 114, 115, 116, 117, 118, 119, 120, 121, 122, 123, 124, 125, 126, 127, 128, 129, 130, 131, 132, 133, 134, 135, 136, 137, 138, 139, 140, 141, 142, 143, 144],
      "LargestImagePixelValue": [41412, 42107, 41276, 40185, 39275, 39075, 38802, 38954, 39035, 38973, 38542, 38663, 39062, 38932, 38877, 38910, 38738, 38080, 38687, 39112, 39160, 39241, 39530, 39965, 39248, 38349, 38844, 38919, 39457, 40072, 39444, 39516, 39512, 39377, 39660, 39237, 39275, 39541, 38598, 39462, 39567, 39226, 39625, 39510, 40719, 38906, 38357, 39853, 39516, 39731, 38864, 39101, 39013, 38820, 39069, 39488, 39051, 39735, 39610, 39859, 39847, 40350, 39235, 39294, 39133, 38376, 39566, 39393, 39200, 39697, 38969, 38356, 40321, 39976, 38989, 39251, 39671, 39037, 38385, 39126, 38712, 38973, 38418, 39163, 38537, 38907, 38239, 38868, 38750, 39026, 38854, 38690, 38883, 38626, 38633, 38841, 38879, 38499, 38567, 38839, 38598, 39567, 38838, 38900, 39281, 38654, 38798, 39645, 39777, 39474, 40090, 39644, 39545, 39345, 39467, 39309, 38983, 39198, 39844, 39382, 39222, 39601, 38911, 39174, 39675, 39739, 39827, 39882, 39921, 39704, 40056, 39653, 39818, 39075, 39584, 39652, 39845, 42111, 39852, 39767, 39382, 39142, 39513, 38732],
      "WindowCenter": [10109.0, 10118.0, 10112.0, 10106.0, 10085.0, 10071.0, 10059.0, 10055.0, 10046.0, 10044.0, 10055.0, 10110.0, 10126.0, 10109.0, 10080.0, 10059.0, 10040.0, 10036.0, 10068.0, 10086.0, 10085.0, 10083.0, 10092.0, 10098.0, 10103.0, 10101.0, 10084.0, 10073.0, 10063.0, 10068.0, 10072.0, 10075.0, 10066.0, 10057.0, 10070.0, 10063.0, 10062.0, 10083.0, 10088.0, 10096.0, 10089.0, 10074.0, 10081.0, 10085.0, 10102.0, 10103.0, 10110.0, 10119.0, 10088.0, 10071.0, 10049.0, 10058.0, 10080.0, 10073.0, 10065.0, 10064.0, 10063.0, 10073.0, 10064.0, 10066.0, 10088.0, 10086.0, 10071.0, 10080.0, 10080.0, 10075.0, 10084.0, 10084.0, 10086.0, 10091.0, 10074.0, 10072.0, 10094.0, 10087.0, 10083.0, 10094.0, 10094.0, 10070.0, 10061.0, 10091.0, 10096.0, 10086.0, 10073.0, 10068.0, 10027.0, 10020.0, 10015.0, 10065.0, 10087.0, 10069.0, 10040.0, 10026.0, 10036.0, 10030.0, 10027.0, 10035.0, 10049.0, 10044.0, 10040.0, 10049.0, 10039.0, 10055.0, 10055.0, 10084.0, 10075.0, 10049.0, 10047.0, 10069.0, 10071.0, 10055.0, 10061.0, 10067.0, 10065.0, 10066.0, 10086.0, 10090.0, 10085.0, 10069.0, 10059.0, 10046.0, 10071.0, 10080.0, 10072.0, 10084.0, 10092.0, 10081.0, 10071.0, 10059.0, 10077.0, 10090.0, 10088.0, 10071.0, 10061.0, 10067.0, 10080.0, 10073.0, 10058.0, 10081.0, 10063.0, 10073.0, 10075.0, 10067.0, 10082.0, 10072.0],
      "WindowWidth": [21369.0, 21390.0, 21376.0, 21353.0, 21292.0, 21262.0, 21231.0, 21217.0, 21199.0, 21199.0, 21221.0, 21346.0, 21384.0, 21346.0, 21279.0, 21231.0, 21189.0, 21190.0, 21254.0, 21291.0, 21287.0, 21280.0, 21304.0, 21311.0, 21331.0, 21330.0, 21289.0, 21269.0, 21233.0, 21240.0, 21257.0, 21264.0, 21244.0, 21224.0, 21248.0, 21238.0, 21233.0, 21288.0, 21299.0, 21314.0, 21290.0, 21259.0, 21277.0, 21289.0, 21319.0, 21329.0, 21347.0, 21360.0, 21296.0, 21247.0, 21203.0, 21227.0, 21272.0, 21257.0, 21240.0, 21242.0, 21240.0, 21254.0, 21231.0, 21237.0, 21301.0, 21286.0, 21253.0, 21274.0, 21273.0, 21267.0, 21278.0, 21279.0, 21285.0, 21293.0, 21257.0, 21266.0, 21303.0, 21291.0, 21285.0, 21314.0, 21321.0, 21263.0, 21241.0, 21300.0, 21313.0, 21285.0, 21263.0, 21248.0, 21158.0, 21139.0, 21133.0, 21252.0, 21297.0, 21250.0, 21186.0, 21150.0, 21177.0, 21173.0, 21161.0, 21175.0, 21211.0, 21204.0, 21192.0, 21210.0, 21184.0, 21211.0, 21224.0, 21292.0, 21271.0, 21209.0, 21205.0, 21252.0, 21259.0, 21223.0, 21238.0, 21254.0, 21237.0, 21239.0, 21285.0, 21299.0, 21291.0, 21258.0, 21226.0, 21202.0, 21257.0, 21279.0, 21261.0, 21286.0, 21299.0, 21274.0, 21250.0, 21223.0, 21264.0, 21298.0, 21288.0, 21250.0, 21225.0, 21253.0, 21278.0, 21259.0, 21217.0, 21273.0, 21229.0, 21276.0, 21281.0, 21260.0, 21294.0, 21279.0]
    },
    "slices": {}
  }
}