{
  "AcquisitionMatrixPE": 104,
  "AcquisitionNumber": 1,
  "AcquisitionTime": "11:47:18.732500",
  "BandwidthPerPixelPhaseEncode": 17.17,
  "BaseResolution": 104,
  "BodyPartExamined": "BRAIN",
  "CoilString": "HC1-7;NC1_2",
  "ConsistencyInfo": "N4_VE11C_LATEST_20160120",
  "ConversionSoftware": "dcm2niix",
  "ConversionSoftwareVersion": "v1.0.20190720  (JP2:OpenJPEG) GCC7.3.0",
  "DerivedVendorReportedEchoSpacing": 0.000560011,
  "DeviceSerialNumber": "167006",
  "DwellTime": 2.1e-06,
  "EchoTime": 0.037,
  "EchoTrainLength": 104,
  "EffectiveEchoSpacing": 0.000560011,
  "FlipAngle": 52,
  "ImageComments": "Unaliased_MB4_PE3_LB",
  "ImageOrientationPatientDICOM": [0.998144, 0.0572542, 0.0207665, -0.0455, 0.927661, -0.370642],
  "ImageType": [
    "ORIGINAL",
    "PRIMARY",
    "M",
    "MB",
    "ND",
    "MOSAIC"
],
  "ImagingFrequency": 123.259,
  "InPlanePhaseEncodingDirectionDICOM": "COL",
  "InstitutionAddress": "Chemin_Queen-Mary_4565_Montreal_District_CA_H3W_1W5",
  "InstitutionName": "IUGM",
  "InstitutionalDepartmentName": "Department",
  "MRAcquisitionType": "2D",
  "MagneticFieldStrength": 3,
  "Manufacturer": "Siemens",
  "ManufacturersModelName": "Prisma_fit",
  "Modality": "MR",
  "MultibandAccelerationFactor": 4,
  "PartialFourier": 1,
  "PatientPosition": "HFS",
  "PercentPhaseFOV": 100,
  "PhaseEncodingDirection": "j",
  "PhaseEncodingSteps": 104,
  "PhaseResolution": 1,
  "PixelBandwidth": 2290,
  "ProcedureStepDescription": "hcptrt_generic",
  "ProtocolName": "func_task-gambling_run-2",
  "PulseSequenceDetails": "%CustomerSeq%_cmrr_mbep2d_bold",
  "ReceiveCoilActiveElements": "HC1-7;NC1,2",
  "ReceiveCoilName": "HeadNeck_64",
  "ReconMatrixPE": 104,
  "RepetitionTime": 1.49,
  "SAR": 0.0388594,
  "ScanOptions": "FS",
  "ScanningSequence": "EP",
  "SequenceName": "epfid2d1_104",
  "SequenceVariant": "SK_SS",
  "SeriesDescription": "func_task-gambling_run-2",
  "SeriesNumber": 36,
  "ShimSetting": [627, -7199, -8849, 681, 66, -50, -65, 6],
  "SliceThickness": 2,
  "SliceTiming": [0, 0.7825, 0.0975, 0.88, 0.195, 0.98, 0.2925, 1.0775, 0.39, 1.175, 0.49, 1.2725, 0.5875, 1.37, 0.685, 0, 0.7825, 0.0975, 0.88, 0.195, 0.98, 0.2925, 1.0775, 0.39, 1.175, 0.49, 1.2725, 0.5875, 1.37, 0.685, 0, 0.7825, 0.0975, 0.88, 0.195, 0.98, 0.2925, 1.0775, 0.39, 1.175, 0.49, 1.2725, 0.5875, 1.37, 0.685, 0, 0.7825, 0.0975, 0.88, 0.195, 0.98, 0.2925, 1.0775, 0.39, 1.175, 0.49, 1.2725, 0.5875, 1.37, 0.685],
  "SoftwareVersions": "syngo_MR_E11",
  "SpacingBetweenSlices": 2,
  "StationName": "MRC35049",
  "TaskName": "gambling",
  "TotalReadoutTime": 0.0576811,
  "TxRefAmp": 251.094,
  "WipMemBlock": "3bdd7480-a608-4a4c-a470-1f6526e27f53||Sequence: R016 ve11c/master r/e634e98; Dec 19 2017 11:00:25 by eja",
  "dcmmeta_affine": [
    [-1.996287226676941, -0.09100007265806198, 0.08097017556428909, 109.75263977050781],
    [-0.1145084798336029, 1.8553212881088257, -0.7380180954933167, -56.248714447021484],
    [0.04153300076723099, 0.7412839531898499, 1.857087254524231, -77.15413665771484],
    [0.0, 0.0, 0.0, 1.0]
],
  "dcmmeta_reorient_transform": [
    [0.0, -1.0, 0.0, 103.0],
    [1.0, 0.0, 0.0, 0.0],
    [0.0, 0.0, 1.0, 0.0],
    [0.0, 0.0, 0.0, 1.0]
],
  "dcmmeta_shape": [104, 104, 60, 129],
  "dcmmeta_slice_dim": 2,
  "dcmmeta_version": 0.6,
  "global": {
    "const": {
      "AcquisitionMatrix": [104, 0, 0, 104],
      "AngioFlag": "N",
      "BitsAllocated": 16,
      "BitsStored": 16,
      "BodyPartExamined": "BRAIN",
      "Columns": 832,
      "EchoNumbers": 1,
      "EchoTime": 37.0,
      "EchoTrainLength": 104,
      "FlipAngle": 52.0,
      "HighBit": 15,
      "ImageOrientationPatient": [0.9981436291001, 0.05725424158538, 0.02076649964188, -0.0455000353392, 0.927660646694, -0.3706419719344],
      "ImagePositionPatient": [-793.90416966844, -851.86741901255, 253.90745099179],
      "ImageType": [
        "ORIGINAL",
        "PRIMARY",
        "M",
        "MB",
        "ND",
        "MOSAIC"
],
      "ImagedNucleus": "1H",
      "ImagingFrequency": 123.259496,
      "InPlanePhaseEncodingDirection": "COL",
      "MRAcquisitionType": "2D",
      "MagneticFieldStrength": 3.0,
      "Manufacturer": "SIEMENS",
      "ManufacturerModelName": "Prisma_fit",
      "Modality": "MR",
      "NumberOfAverages": 1.0,
      "NumberOfPhaseEncodingSteps": 104,
      "PercentPhaseFieldOfView": 100.0,
      "PercentSampling": 100.0,
      "PerformedProcedureStepStartTime": "103442.847000",
      "PhotometricInterpretation": "MONOCHROME2",
      "PixelBandwidth": 2290.0,
      "PixelRepresentation": 0,
      "PixelSpacing": [2.0, 2.0],
      "ProtocolName": "func_task-gambling_run-2",
      "RepetitionTime": 1490.0,
      "Rows": 832,
      "SAR": 0.0388593984143,
      "SamplesPerPixel": 1,
      "ScanOptions": "FS",
      "ScanningSequence": "EP",
      "SequenceName": "epfid2d1_104",
      "SequenceVariant": [
        "SK",
        "SS"
],
      "SeriesDescription": "func_task-gambling_run-2",
      "SeriesNumber": 36,
      "SeriesTime": "114819.230000",
      "SliceLocation": -46.441355309576,
      "SliceThickness": 2.0,
      "SmallestImagePixelValue": 0,
      "SoftwareVersions": "syngo MR E11",
      "SpacingBetweenSlices": 1.9999999474139,
      "SpecificCharacterSet": "ISO_IR 100",
      "StudyID": "1",
      "StudyTime": "103442.783000",
      "TransmitCoilName": "Body",
      "VariableFlipAngleFlag": "N",
      "WindowCenterWidthExplanation": "Algo1",
      "dBdt": 0.0},
    "slices": {}
  },
  "time": {
    "samples": {
      "AcquisitionNumber": [1, 2, 3, 4, 5, 6, 7, 8, 9, 10, 11, 12, 13, 14, 15, 16, 17, 18, 19, 20, 21, 22, 23, 24, 25, 26, 27, 28, 29, 30, 31, 32, 33, 34, 35, 36, 37, 38, 39, 40, 41, 42, 43, 44, 45, 46, 47, 48, 49, 50, 51, 52, 53, 54, 55, 56, 57, 58, 59, 60, 61, 62, 63, 64, 65, 66, 67, 68, 69, 70, 71, 72, 73, 74, 75, 76, 77, 78, 79, 80, 81, 82, 83, 84, 85, 86, 87, 88, 89, 90, 91, 92, 93, 94, 95, 96, 97, 98, 99, 100, 101, 102, 103, 104, 105, 106, 107, 108, 109, 110, 111, 112, 113, 114, 115, 116, 117, 118, 119, 120, 121, 122, 123, 124, 125, 126, 127, 128, 129],
      "AcquisitionTime": ["114718.732500", "114720.222500", "114721.712500", "114723.202500", "114724.692500", "114726.182500", "114727.672500", "114729.162500", "114730.652500", "114732.142500", "114733.632500", "114735.122500", "114736.612500", "114738.102500", "114739.592500", "114741.082500", "114742.572500", "114744.062500", "114745.552500", "114747.042500", "114748.532500", "114750.022500", "114751.512500", "114753.002500", "114754.492500", "114755.982500", "114757.472500", "114758.962500", "114800.452500", "114801.942500", "114803.432500", "114804.922500", "114806.412500", "114807.902500", "114809.392500", "114810.882500", "114812.372500", "114813.862500", "114815.352500", "114816.842500", "114818.332500", "114819.822500", "114821.312500", "114822.802500", "114824.292500", "114825.782500", "114827.272500", "114828.762500", "114830.252500", "114831.742500", "114833.232500", "114834.722500", "114836.212500", "114837.702500", "114839.192500", "114840.682500", "114842.172500", "114843.662500", "114845.152500", "114846.642500", "114848.132500", "114849.622500", "114851.112500", "114852.602500", "114854.092500", "114855.582500", "114857.072500", "114858.562500", "114900.052500", "114901.542500", "114903.032500", "114904.522500", "114906.012500", "114907.502500", "114908.992500", "114910.482500", "114911.972500", "114913.462500", "114914.952500", "114916.442500", "114917.932500", "114919.422500", "114920.912500", "114922.402500", "114923.892500", "114925.382500", "114926.872500", "114928.362500", "114929.852500", "114931.342500", "114932.832500", "114934.322500", "114935.812500", "114937.302500", "114938.792500", "114940.282500", "114941.772500", "114943.262500", "114944.752500", "114946.242500", "114947.732500", "114949.222500", "114950.712500", "114952.202500", "114953.692500", "114955.182500", "114956.672500", "114958.162500", "114959.652500", "115001.142500", "115002.632500", "115004.122500", "115005.612500", "115007.102500", "115008.592500", "115010.082500", "115011.572500", "115013.062500", "115014.552500", "115016.042500", "115017.532500", "115019.022500", "115020.512500", "115022.002500", "115023.492500", "115024.982500", "115026.472500", "115027.962500", "115029.452500"],
      "ContentTime": ["114819.232000", "114819.236000", "114819.250000", "114819.253000", "114819.256000", "114819.259000", "114819.262000", "114839.199000", "114839.202000", "114839.205000", "114839.208000", "114839.211000", "114839.214000", "114839.217000", "114839.220000", "114839.223000", "114839.236000", "114839.239000", "114839.242000", "114839.245000", "114839.248000", "114839.251000", "114839.254000", "114839.257000", "114839.260000", "114839.263000", "114839.266000", "114859.198000", "114859.201000", "114859.204000", "114859.207000", "114859.210000", "114859.213000", "114859.216000", "114859.219000", "114859.222000", "114859.224000", "114859.227000", "114859.230000", "114859.237000", "114859.240000", "114859.243000", "114859.246000", "114859.249000", "114859.252000", "114859.255000", "114859.258000", "114919.198000", "114919.201000", "114919.204000", "114919.207000", "114919.210000", "114919.213000", "114919.216000", "114919.219000", "114919.222000", "114919.224000", "114919.227000", "114919.230000", "114919.233000", "114919.236000", "114919.239000", "114919.242000", "114919.245000", "114919.248000", "114919.251000", "114919.254000", "114919.257000", "114939.199000", "114939.202000", "114939.205000", "114939.208000", "114939.211000", "114939.214000", "114939.217000", "114939.220000", "114939.222000", "114939.225000", "114939.228000", "114939.231000", "114939.234000", "114939.237000", "114939.240000", "114939.243000", "114939.246000", "114939.249000", "114939.252000", "114939.255000", "115019.199000", "115019.202000", "115019.205000", "115019.212000", "115019.215000", "115019.218000", "115019.220000", "115019.223000", "115019.226000", "115019.229000", "115019.232000", "115019.235000", "115019.238000", "115019.241000", "115019.244000", "115019.247000", "115019.250000", "115019.253000", "115019.256000", "115019.259000", "115019.262000", "115019.265000", "115019.267000", "115019.270000", "115019.273000", "115019.276000", "115019.279000", "115019.282000", "115019.285000", "115019.288000", "115019.291000", "115019.294000", "115031.659000", "115031.662000", "115031.665000", "115031.668000", "115031.671000", "115031.674000", "115031.677000", "115031.680000", "115031.683000"],
      "InstanceCreationTime": ["114819.232000", "114819.236000", "114819.250000", "114819.253000", "114819.256000", "114819.259000", "114819.262000", "114839.199000", "114839.202000", "114839.205000", "114839.208000", "114839.211000", "114839.214000", "114839.217000", "114839.220000", "114839.223000", "114839.236000", "114839.239000", "114839.242000", "114839.245000", "114839.248000", "114839.251000", "114839.254000", "114839.257000", "114839.260000", "114839.263000", "114839.266000", "114859.198000", "114859.201000", "114859.204000", "114859.207000", "114859.210000", "114859.213000", "114859.216000", "114859.219000", "114859.222000", "114859.224000", "114859.227000", "114859.230000", "114859.237000", "114859.240000", "114859.243000", "114859.246000", "114859.249000", "114859.252000", "114859.255000", "114859.258000", "114919.198000", "114919.201000", "114919.204000", "114919.207000", "114919.210000", "114919.213000", "114919.216000", "114919.219000", "114919.222000", "114919.224000", "114919.227000", "114919.230000", "114919.233000", "114919.236000", "114919.239000", "114919.242000", "114919.245000", "114919.248000", "114919.251000", "114919.254000", "114919.257000", "114939.199000", "114939.202000", "114939.205000", "114939.208000", "114939.211000", "114939.214000", "114939.217000", "114939.220000", "114939.222000", "114939.225000", "114939.228000", "114939.231000", "114939.234000", "114939.237000", "114939.240000", "114939.243000", "114939.246000", "114939.249000", "114939.252000", "114939.255000", "115019.199000", "115019.202000", "115019.205000", "115019.212000", "115019.215000", "115019.218000", "115019.220000", "115019.223000", "115019.226000", "115019.229000", "115019.232000", "115019.235000", "115019.238000", "115019.241000", "115019.244000", "115019.247000", "115019.250000", "115019.253000", "115019.256000", "115019.259000", "115019.262000", "115019.265000", "115019.267000", "115019.270000", "115019.273000", "115019.276000", "115019.279000", "115019.282000", "115019.285000", "115019.288000", "115019.291000", "115019.294000", "115031.659000", "115031.662000", "115031.665000", "115031.668000", "115031.671000", "115031.674000", "115031.677000", "115031.680000", "115031.683000"],
      "InstanceNumber": [1, 2, 3, 4, 5, 6, 7, 8, 9, 10, 11, 12, 13, 14, 15, 16, 17, 18, 19, 20, 21, 22, 23, 24, 25, 26, 27, 28, 29, 30, 31, 32, 33, 34, 35, 36, 37, 38, 39, 40, 41, 42, 43, 44, 45, 46, 47, 48, 49, 50, 51, 52, 53, 54, 55, 56, 57, 58, 59, 60, 61, 62, 63, 64, 65, 66, 67, 68, 69, 70, 71, 72, 73, 74, 75, 76, 77, 78, 79, 80, 81, 82, 83, 84, 85, 86, 87, 88, 89, 90, 91, 92, 93, 94, 95, 96, 97, 98, 99, 100, 101, 102, 103, 104, 105, 106, 107, 108, 109, 110, 111, 112, 113, 114, 115, 116, 117, 118, 119, 120, 121, 122, 123, 124, 125, 126, 127, 128, 129],
      "LargestImagePixelValue": [45704, 44650, 44014, 43594, 43496, 43318, 43392, 43656, 43430, 43271, 43533, 44305, 44084, 44348, 44312, 43969, 43511, 43826, 43938, 43756, 43631, 43406, 44122, 43921, 44072, 43893, 43993, 43898, 44557, 44193, 44550, 44528, 44497, 44230, 43605, 43925, 43818, 44140, 43586, 43532, 44179, 43460, 43728, 44219, 43851, 43755, 44278, 43694, 44177, 44629, 44502, 44365, 44305, 44211, 44686, 44390, 44359, 44769, 44963, 44732, 44566, 44584, 44840, 44997, 44761, 44969, 44953, 44490, 44227, 44344, 44366, 43854, 43704, 44547, 44433, 43825, 43989, 43530, 43843, 44164, 43972, 43988, 44225, 44034, 44100, 43957, 44391, 44098, 44224, 44499, 44249, 44272, 43969, 43901, 44402, 44033, 44090, 44227, 44316, 44592, 44288, 44188, 43891, 43856, 44263, 43758, 43481, 44178, 43807, 43393, 43787, 43306, 43594, 43473, 43141, 44106, 43800, 43910, 44120, 43800, 43794, 43536, 43806, 43547, 43473, 43137, 43263, 42478, 43150],
      "WindowCenter": [10253.0, 10203.0, 10166.0, 10148.0, 10154.0, 10174.0, 10184.0, 10165.0, 10152.0, 10137.0, 10133.0, 10146.0, 10176.0, 10182.0, 10172.0, 10137.0, 10118.0, 10123.0, 10142.0, 10150.0, 10137.0, 10142.0, 10160.0, 10160.0, 10161.0, 10161.0, 10162.0, 10162.0, 10165.0, 10176.0, 10184.0, 10174.0, 10175.0, 10177.0, 10172.0, 10177.0, 10187.0, 10181.0, 10155.0, 10137.0, 10149.0, 10144.0, 10160.0, 10176.0, 10177.0, 10170.0, 10153.0, 10143.0, 10148.0, 10145.0, 10163.0, 10191.0, 10196.0, 10188.0, 10174.0, 10165.0, 10160.0, 10162.0, 10171.0, 10181.0, 10194.0, 10191.0, 10190.0, 10198.0, 10190.0, 10197.0, 10184.0, 10165.0, 10159.0, 10150.0, 10148.0, 10136.0, 10161.0, 10168.0, 10160.0, 10153.0, 10143.0, 10138.0, 10151.0, 10159.0, 10153.0, 10144.0, 10151.0, 10150.0, 10171.0, 10179.0, 10192.0, 10196.0, 10189.0, 10188.0, 10180.0, 10178.0, 10178.0, 10189.0, 10188.0, 10170.0, 10160.0, 10160.0, 10157.0, 10164.0, 10175.0, 10185.0, 10192.0, 10179.0, 10179.0, 10160.0, 10161.0, 10162.0, 10153.0, 10154.0, 10161.0, 10162.0, 10162.0, 10154.0, 10145.0, 10149.0, 10150.0, 10160.0, 10167.0, 10168.0, 10165.0, 10160.0, 10170.0, 10171.0, 10179.0, 10173.0, 10165.0, 10147.0, 10154.0],
      "WindowWidth": [21700.0, 21561.0, 21471.0, 21429.0, 21438.0, 21484.0, 21495.0, 21445.0, 21416.0, 21383.0, 21369.0, 21396.0, 21468.0, 21481.0, 21468.0, 21379.0, 21339.0, 21347.0, 21403.0, 21414.0, 21387.0, 21393.0, 21439.0, 21435.0, 21435.0, 21435.0, 21439.0, 21441.0, 21440.0, 21469.0, 21489.0, 21461.0, 21462.0, 21470.0, 21461.0, 21467.0, 21495.0, 21483.0, 21422.0, 21380.0, 21410.0, 21398.0, 21431.0, 21464.0, 21468.0, 21454.0, 21413.0, 21395.0, 21408.0, 21396.0, 21439.0, 21500.0, 21518.0, 21501.0, 21460.0, 21444.0, 21437.0, 21437.0, 21457.0, 21480.0, 21512.0, 21500.0, 21501.0, 21510.0, 21494.0, 21512.0, 21481.0, 21442.0, 21430.0, 21411.0, 21405.0, 21380.0, 21437.0, 21450.0, 21432.0, 21426.0, 21394.0, 21384.0, 21411.0, 21428.0, 21415.0, 21396.0, 21409.0, 21407.0, 21467.0, 21481.0, 21502.0, 21518.0, 21503.0, 21495.0, 21478.0, 21470.0, 21471.0, 21498.0, 21494.0, 21454.0, 21431.0, 21431.0, 21424.0, 21440.0, 21465.0, 21491.0, 21516.0, 21478.0, 21483.0, 21434.0, 21440.0, 21440.0, 21423.0, 21421.0, 21437.0, 21444.0, 21441.0, 21423.0, 21400.0, 21406.0, 21413.0, 21437.0, 21452.0, 21450.0, 21442.0, 21431.0, 21460.0, 21463.0, 21478.0, 21466.0, 21449.0, 21412.0, 21427.0]
    },
    "slices": {}
  }
}