{
  "AcquisitionMatrixPE": 104,
  "AcquisitionNumber": 1,
  "AcquisitionTime": "11:16:32.752500",
  "BandwidthPerPixelPhaseEncode": 17.17,
  "BaseResolution": 104,
  "BodyPartExamined": "BRAIN",
  "CoilString": "HC1-7;NC1_2",
  "ConsistencyInfo": "N4_VE11C_LATEST_20160120",
  "ConversionSoftware": "dcm2niix",
  "ConversionSoftwareVersion": "v1.0.20190720  (JP2:OpenJPEG) GCC7.3.0",
  "DerivedVendorReportedEchoSpacing": 0.000560011,
  "DeviceSerialNumber": "167006",
  "DwellTime": 2.1e-06,
  "EchoTime": 0.037,
  "EchoTrainLength": 104,
  "EffectiveEchoSpacing": 0.000560011,
  "FlipAngle": 52,
  "ImageComments": "Unaliased_MB4_PE3_LB",
  "ImageOrientationPatientDICOM": [0.999786, 0.0195556, -0.00678038, -0.0204188, 0.878287, -0.477697],
  "ImageType": [
    "ORIGINAL",
    "PRIMARY",
    "M",
    "MB",
    "ND",
    "MOSAIC"
],
  "ImagingFrequency": 123.26,
  "InPlanePhaseEncodingDirectionDICOM": "COL",
  "InstitutionAddress": "Chemin_Queen-Mary_4565_Montreal_District_CA_H3W_1W5",
  "InstitutionName": "IUGM",
  "InstitutionalDepartmentName": "Department",
  "MRAcquisitionType": "2D",
  "MagneticFieldStrength": 3,
  "Manufacturer": "Siemens",
  "ManufacturersModelName": "Prisma_fit",
  "Modality": "MR",
  "MultibandAccelerationFactor": 4,
  "PartialFourier": 1,
  "PatientPosition": "HFS",
  "PercentPhaseFOV": 100,
  "PhaseEncodingDirection": "j",
  "PhaseEncodingSteps": 104,
  "PhaseResolution": 1,
  "PixelBandwidth": 2290,
  "ProcedureStepDescription": "hcptrt_generic",
  "ProtocolName": "func_task-wm_run-1",
  "PulseSequenceDetails": "%CustomerSeq%_cmrr_mbep2d_bold",
  "ReceiveCoilActiveElements": "HC1-7;NC1,2",
  "ReceiveCoilName": "HeadNeck_64",
  "ReconMatrixPE": 104,
  "RepetitionTime": 1.49,
  "SAR": 0.038552,
  "ScanOptions": "FS",
  "ScanningSequence": "EP",
  "SequenceName": "epfid2d1_104",
  "SequenceVariant": "SK_SS",
  "SeriesDescription": "func_task-wm_run-1",
  "SeriesNumber": 15,
  "ShimSetting": [620, -7190, -8872, 394, -20, -168, -12, -25],
  "SliceThickness": 2,
  "SliceTiming": [0, 0.7825, 0.0975, 0.8825, 0.195, 0.98, 0.2925, 1.0775, 0.3925, 1.175, 0.49, 1.2725, 0.5875, 1.3725, 0.685, 0, 0.7825, 0.0975, 0.8825, 0.195, 0.98, 0.2925, 1.0775, 0.3925, 1.175, 0.49, 1.2725, 0.5875, 1.3725, 0.685, 0, 0.7825, 0.0975, 0.8825, 0.195, 0.98, 0.2925, 1.0775, 0.3925, 1.175, 0.49, 1.2725, 0.5875, 1.3725, 0.685, 0, 0.7825, 0.0975, 0.8825, 0.195, 0.98, 0.2925, 1.0775, 0.3925, 1.175, 0.49, 1.2725, 0.5875, 1.3725, 0.685],
  "SoftwareVersions": "syngo_MR_E11",
  "SpacingBetweenSlices": 2,
  "StationName": "MRC35049",
  "TaskName": "wm",
  "TotalReadoutTime": 0.0576811,
  "TxRefAmp": 250.658,
  "WipMemBlock": "4854baec-8b1e-4724-ac1c-2fc111187b9c||Sequence: R016 ve11c/master r/e634e98; Dec 19 2017 11:00:25 by eja",
  "dcmmeta_affine": [
    [-1.9995715618133545, -0.0408376045525074, 0.006773093715310097, 105.83251190185547],
    [-0.03911126032471657, 1.7565746307373047, -0.9554663300514221, -57.9269905090332],
    [-0.013560755178332329, 0.9553940892219543, 1.756996989250183, -96.5040512084961],
    [0.0, 0.0, 0.0, 1.0]
],
  "dcmmeta_reorient_transform": [
    [0.0, -1.0, 0.0, 103.0],
    [1.0, 0.0, 0.0, 0.0],
    [0.0, 0.0, 1.0, 0.0],
    [0.0, 0.0, 0.0, 1.0]
],
  "dcmmeta_shape": [104, 104, 60, 202],
  "dcmmeta_slice_dim": 2,
  "dcmmeta_version": 0.6,
  "global": {
    "const": {
      "AcquisitionMatrix": [104, 0, 0, 104],
      "AngioFlag": "N",
      "BitsAllocated": 16,
      "BitsStored": 16,
      "BodyPartExamined": "BRAIN",
      "Columns": 832,
      "EchoNumbers": 1,
      "EchoTime": 37.0,
      "EchoTrainLength": 104,
      "FlipAngle": 52.0,
      "HighBit": 15,
      "ImageOrientationPatient": [0.99978577896631, 0.01955562984009, -0.0067803774449, -0.0204188020359, 0.87828731756815, -0.4776970382181],
      "ImagePositionPatient": [-814.60539750874, -776.62986303589, 354.60109423104],
      "ImageType": [
        "ORIGINAL",
        "PRIMARY",
        "M",
        "MB",
        "ND",
        "MOSAIC"
],
      "ImagedNucleus": "1H",
      "ImagingFrequency": 123.259541,
      "InPlanePhaseEncodingDirection": "COL",
      "MRAcquisitionType": "2D",
      "MagneticFieldStrength": 3.0,
      "Manufacturer": "SIEMENS",
      "ManufacturerModelName": "Prisma_fit",
      "Modality": "MR",
      "NumberOfAverages": 1.0,
      "NumberOfPhaseEncodingSteps": 104,
      "PercentPhaseFieldOfView": 100.0,
      "PercentSampling": 100.0,
      "PerformedProcedureStepStartTime": "104603.426000",
      "PhotometricInterpretation": "MONOCHROME2",
      "PixelBandwidth": 2290.0,
      "PixelRepresentation": 0,
      "PixelSpacing": [2.0, 2.0],
      "ProtocolName": "func_task-wm_run-1",
      "RepetitionTime": 1490.0,
      "Rows": 832,
      "SAR": 0.03855199218167,
      "SamplesPerPixel": 1,
      "ScanOptions": "FS",
      "ScanningSequence": "EP",
      "SequenceName": "epfid2d1_104",
      "SequenceVariant": [
        "SK",
        "SS"
],
      "SeriesDescription": "func_task-wm_run-1",
      "SeriesNumber": 15,
      "SeriesTime": "111758.366000",
      "SliceLocation": -56.746613872555,
      "SliceThickness": 2.0,
      "SmallestImagePixelValue": 0,
      "SoftwareVersions": "syngo MR E11",
      "SpacingBetweenSlices": 1.9999999939688,
      "SpecificCharacterSet": "ISO_IR 100",
      "StudyID": "1",
      "StudyTime": "104603.360000",
      "TransmitCoilName": "Body",
      "VariableFlipAngleFlag": "N",
      "WindowCenterWidthExplanation": "Algo1",
      "dBdt": 0.0},
    "slices": {}
  },
  "time": {
    "samples": {
      "AcquisitionNumber": [1, 2, 3, 4, 5, 6, 7, 8, 9, 10, 11, 12, 13, 14, 15, 16, 17, 18, 19, 20, 21, 22, 23, 24, 25, 26, 27, 28, 29, 30, 31, 32, 33, 34, 35, 36, 37, 38, 39, 40, 41, 42, 43, 44, 45, 46, 47, 48, 49, 50, 51, 52, 53, 54, 55, 56, 57, 58, 59, 60, 61, 62, 63, 64, 65, 66, 67, 68, 69, 70, 71, 72, 73, 74, 75, 76, 77, 78, 79, 80, 81, 82, 83, 84, 85, 86, 87, 88, 89, 90, 91, 92, 93, 94, 95, 96, 97, 98, 99, 100, 101, 102, 103, 104, 105, 106, 107, 108, 109, 110, 111, 112, 113, 114, 115, 116, 117, 118, 119, 120, 121, 122, 123, 124, 125, 126, 127, 128, 129, 130, 131, 132, 133, 134, 135, 136, 137, 138, 139, 140, 141, 142, 143, 144, 145, 146, 147, 148, 149, 150, 151, 152, 153, 154, 155, 156, 157, 158, 159, 160, 161, 162, 163, 164, 165, 166, 167, 168, 169, 170, 171, 172, 173, 174, 175, 176, 177, 178, 179, 180, 181, 182, 183, 184, 185, 186, 187, 188, 189, 190, 191, 192, 193, 194, 195, 196, 197, 198, 199, 200, 201, 202],
      "AcquisitionTime": ["111632.752500", "111634.242500", "111635.732500", "111637.222500", "111638.712500", "111640.202500", "111641.692500", "111643.182500", "111644.672500", "111646.162500", "111647.652500", "111649.142500", "111650.632500", "111652.122500", "111653.612500", "111655.102500", "111656.592500", "111658.082500", "111659.572500", "111701.062500", "111702.552500", "111704.042500", "111705.532500", "111707.022500", "111708.512500", "111710.002500", "111711.492500", "111712.982500", "111714.472500", "111715.962500", "111717.452500", "111718.942500", "111720.432500", "111721.922500", "111723.412500", "111724.902500", "111726.392500", "111727.882500", "111729.372500", "111730.862500", "111732.352500", "111733.842500", "111735.332500", "111736.822500", "111738.312500", "111739.802500", "111741.292500", "111742.782500", "111744.272500", "111745.762500", "111747.252500", "111748.742500", "111750.232500", "111751.722500", "111753.212500", "111754.702500", "111756.192500", "111757.682500", "111759.172500", "111800.662500", "111802.152500", "111803.642500", "111805.132500", "111806.622500", "111808.112500", "111809.602500", "111811.092500", "111812.582500", "111814.072500", "111815.562500", "111817.052500", "111818.542500", "111820.032500", "111821.522500", "111823.012500", "111824.502500", "111825.992500", "111827.482500", "111828.972500", "111830.462500", "111831.952500", "111833.442500", "111834.932500", "111836.422500", "111837.912500", "111839.402500", "111840.892500", "111842.382500", "111843.872500", "111845.362500", "111846.852500", "111848.342500", "111849.832500", "111851.322500", "111852.812500", "111854.302500", "111855.792500", "111857.282500", "111858.772500", "111900.262500", "111901.752500", "111903.242500", "111904.732500", "111906.222500", "111907.712500", "111909.202500", "111910.692500", "111912.182500", "111913.672500", "111915.162500", "111916.652500", "111918.142500", "111919.632500", "111921.122500", "111922.612500", "111924.102500", "111925.592500", "111927.082500", "111928.572500", "111930.062500", "111931.552500", "111933.042500", "111934.532500", "111936.022500", "111937.512500", "111939.002500", "111940.492500", "111941.982500", "111943.472500", "111944.962500", "111946.452500", "111947.942500", "111949.432500", "111950.922500", "111952.412500", "111953.902500", "111955.392500", "111956.882500", "111958.372500", "111959.862500", "112001.352500", "112002.842500", "112004.332500", "112005.822500", "112007.312500", "112008.802500", "112010.292500", "112011.782500", "112013.272500", "112014.762500", "112016.252500", "112017.742500", "112019.232500", "112020.722500", "112022.212500", "112023.702500", "112025.192500", "112026.682500", "112028.172500", "112029.662500", "112031.152500", "112032.642500", "112034.132500", "112035.622500", "112037.112500", "112038.602500", "112040.092500", "112041.582500", "112043.072500", "112044.562500", "112046.052500", "112047.542500", "112049.032500", "112050.522500", "112052.012500", "112053.502500", "112054.992500", "112056.482500", "112057.972500", "112059.462500", "112100.952500", "112102.442500", "112103.932500", "112105.422500", "112106.912500", "112108.402500", "112109.892500", "112111.382500", "112112.872500", "112114.362500", "112115.852500", "112117.342500", "112118.832500", "112120.322500", "112121.812500", "112123.302500", "112124.792500", "112126.282500", "112127.772500", "112129.262500", "112130.752500", "112132.242500"],
      "ContentTime": ["111758.369000", "111758.373000", "111758.376000", "111758.379000", "111758.382000", "111758.385000", "111758.388000", "111758.391000", "111758.399000", "111758.403000", "111758.406000", "111758.409000", "111758.413000", "111758.425000", "111758.429000", "111758.432000", "111758.435000", "111758.439000", "111758.442000", "111758.446000", "111758.449000", "111758.454000", "111758.458000", "111758.461000", "111758.464000", "111758.467000", "111758.470000", "111758.475000", "111758.478000", "111758.481000", "111758.484000", "111758.487000", "111758.490000", "111758.493000", "111818.334000", "111818.337000", "111818.340000", "111818.343000", "111818.346000", "111818.349000", "111818.352000", "111818.355000", "111818.358000", "111818.361000", "111818.364000", "111818.367000", "111818.371000", "111818.374000", "111818.377000", "111818.380000", "111818.383000", "111818.394000", "111818.397000", "111818.405000", "111838.334000", "111838.337000", "111838.340000", "111838.343000", "111838.346000", "111838.349000", "111838.356000", "111838.359000", "111838.362000", "111838.365000", "111838.368000", "111838.371000", "111838.373000", "111838.376000", "111838.379000", "111838.382000", "111838.385000", "111838.388000", "111838.391000", "111838.394000", "111858.334000", "111858.337000", "111858.340000", "111858.343000", "111858.346000", "111858.349000", "111858.352000", "111858.355000", "111858.358000", "111858.361000", "111858.364000", "111858.367000", "111858.370000", "111858.373000", "111858.375000", "111858.378000", "111858.381000", "111858.384000", "111858.394000", "111858.397000", "111938.333000", "111938.336000", "111938.339000", "111938.346000", "111938.349000", "111938.352000", "111938.355000", "111938.358000", "111938.360000", "111938.363000", "111938.366000", "111938.369000", "111938.372000", "111938.375000", "111938.378000", "111938.381000", "111938.384000", "111938.387000", "111938.390000", "111938.393000", "111938.396000", "111938.399000", "111938.407000", "111938.410000", "111938.413000", "111938.416000", "111938.419000", "111938.422000", "111938.425000", "111938.428000", "112018.333000", "112018.343000", "112018.346000", "112018.349000", "112018.352000", "112018.355000", "112018.358000", "112018.361000", "112018.364000", "112018.367000", "112018.370000", "112018.373000", "112018.376000", "112018.379000", "112018.382000", "112018.385000", "112018.388000", "112018.391000", "112018.394000", "112018.397000", "112018.400000", "112018.403000", "112018.405000", "112018.408000", "112018.411000", "112018.415000", "112058.334000", "112058.337000", "112058.340000", "112058.343000", "112058.346000", "112058.349000", "112058.352000", "112058.355000", "112058.358000", "112058.361000", "112058.364000", "112058.367000", "112058.370000", "112058.373000", "112058.376000", "112058.379000", "112058.382000", "112058.385000", "112058.397000", "112058.400000", "112058.403000", "112058.406000", "112058.409000", "112058.412000", "112058.415000", "112058.418000", "112058.420000", "112134.462000", "112134.465000", "112134.468000", "112134.471000", "112134.475000", "112134.478000", "112134.481000", "112134.484000", "112134.487000", "112134.496000", "112134.499000", "112134.502000", "112134.505000", "112134.508000", "112134.511000", "112134.514000", "112134.518000", "112134.521000", "112134.524000", "112134.527000", "112134.530000", "112134.533000", "112134.536000", "112134.539000", "112134.542000"],
      "InstanceCreationTime": ["111758.369000", "111758.373000", "111758.376000", "111758.379000", "111758.382000", "111758.385000", "111758.388000", "111758.391000", "111758.399000", "111758.403000", "111758.406000", "111758.409000", "111758.413000", "111758.425000", "111758.429000", "111758.432000", "111758.435000", "111758.439000", "111758.442000", "111758.446000", "111758.449000", "111758.454000", "111758.458000", "111758.461000", "111758.464000", "111758.467000", "111758.470000", "111758.475000", "111758.478000", "111758.481000", "111758.484000", "111758.487000", "111758.490000", "111758.493000", "111818.334000", "111818.337000", "111818.340000", "111818.343000", "111818.346000", "111818.349000", "111818.352000", "111818.355000", "111818.358000", "111818.361000", "111818.364000", "111818.367000", "111818.371000", "111818.374000", "111818.377000", "111818.380000", "111818.383000", "111818.394000", "111818.397000", "111818.405000", "111838.334000", "111838.337000", "111838.340000", "111838.343000", "111838.346000", "111838.349000", "111838.356000", "111838.359000", "111838.362000", "111838.365000", "111838.368000", "111838.371000", "111838.373000", "111838.376000", "111838.379000", "111838.382000", "111838.385000", "111838.388000", "111838.391000", "111838.394000", "111858.334000", "111858.337000", "111858.340000", "111858.343000", "111858.346000", "111858.349000", "111858.352000", "111858.355000", "111858.358000", "111858.361000", "111858.364000", "111858.367000", "111858.370000", "111858.373000", "111858.375000", "111858.378000", "111858.381000", "111858.384000", "111858.394000", "111858.397000", "111938.333000", "111938.336000", "111938.339000", "111938.346000", "111938.349000", "111938.352000", "111938.355000", "111938.358000", "111938.360000", "111938.363000", "111938.366000", "111938.369000", "111938.372000", "111938.375000", "111938.378000", "111938.381000", "111938.384000", "111938.387000", "111938.390000", "111938.393000", "111938.396000", "111938.399000", "111938.407000", "111938.410000", "111938.413000", "111938.416000", "111938.419000", "111938.422000", "111938.425000", "111938.428000", "112018.333000", "112018.343000", "112018.346000", "112018.349000", "112018.352000", "112018.355000", "112018.358000", "112018.361000", "112018.364000", "112018.367000", "112018.370000", "112018.373000", "112018.376000", "112018.379000", "112018.382000", "112018.385000", "112018.388000", "112018.391000", "112018.394000", "112018.397000", "112018.400000", "112018.403000", "112018.405000", "112018.408000", "112018.411000", "112018.415000", "112058.334000", "112058.337000", "112058.340000", "112058.343000", "112058.346000", "112058.349000", "112058.352000", "112058.355000", "112058.358000", "112058.361000", "112058.364000", "112058.367000", "112058.370000", "112058.373000", "112058.376000", "112058.379000", "112058.382000", "112058.385000", "112058.397000", "112058.400000", "112058.403000", "112058.406000", "112058.409000", "112058.412000", "112058.415000", "112058.418000", "112058.420000", "112134.462000", "112134.465000", "112134.468000", "112134.471000", "112134.475000", "112134.478000", "112134.481000", "112134.484000", "112134.487000", "112134.496000", "112134.499000", "112134.502000", "112134.505000", "112134.508000", "112134.511000", "112134.514000", "112134.518000", "112134.521000", "112134.524000", "112134.527000", "112134.530000", "112134.533000", "112134.536000", "112134.539000", "112134.542000"],
      "InstanceNumber": [1, 2, 3, 4, 5, 6, 7, 8, 9, 10, 11, 12, 13, 14, 15, 16, 17, 18, 19, 20, 21, 22, 23, 24, 25, 26, 27, 28, 29, 30, 31, 32, 33, 34, 35, 36, 37, 38, 39, 40, 41, 42, 43, 44, 45, 46, 47, 48, 49, 50, 51, 52, 53, 54, 55, 56, 57, 58, 59, 60, 61, 62, 63, 64, 65, 66, 67, 68, 69, 70, 71, 72, 73, 74, 75, 76, 77, 78, 79, 80, 81, 82, 83, 84, 85, 86, 87, 88, 89, 90, 91, 92, 93, 94, 95, 96, 97, 98, 99, 100, 101, 102, 103, 104, 105, 106, 107, 108, 109, 110, 111, 112, 113, 114, 115, 116, 117, 118, 119, 120, 121, 122, 123, 124, 125, 126, 127, 128, 129, 130, 131, 132, 133, 134, 135, 136, 137, 138, 139, 140, 141, 142, 143, 144, 145, 146, 147, 148, 149, 150, 151, 152, 153, 154, 155, 156, 157, 158, 159, 160, 161, 162, 163, 164, 165, 166, 167, 168, 169, 170, 171, 172, 173, 174, 175, 176, 177, 178, 179, 180, 181, 182, 183, 184, 185, 186, 187, 188, 189, 190, 191, 192, 193, 194, 195, 196, 197, 198, 199, 200, 201, 202],
      "LargestImagePixelValue": [43636, 43213, 42365, 42440, 42007, 41529, 42040, 41072, 42065, 41538, 42473, 41321, 41649, 42040, 41364, 42113, 41299, 42298, 41753, 41159, 41827, 40996, 41819, 41455, 40882, 42037, 40480, 41831, 40577, 41419, 41365, 40636, 42032, 40442, 41433, 41106, 40982, 41868, 41063, 41730, 41174, 41238, 41589, 40970, 41275, 40558, 41967, 40396, 42039, 41083, 41716, 41017, 42226, 40801, 42105, 40844, 41585, 41145, 41545, 41025, 41201, 41462, 41444, 41280, 42293, 41248, 41663, 41283, 41003, 41289, 40358, 41803, 41046, 41171, 41236, 40750, 41082, 40654, 41262, 40891, 40469, 40900, 41032, 40797, 40904, 40859, 41611, 40792, 40994, 41172, 41295, 41158, 40172, 41901, 40730, 41603, 41016, 42510, 41643, 42774, 41589, 42166, 41220, 41769, 41126, 41814, 41206, 41462, 41520, 41247, 41598, 41895, 41376, 41780, 41519, 42032, 40644, 42053, 41436, 41412, 41136, 41461, 41502, 41047, 41862, 41195, 41783, 41450, 40718, 41246, 40555, 41309, 41076, 40521, 41290, 40665, 40600, 40678, 40241, 41641, 40796, 40363, 42988, 43237, 42426, 40967, 40874, 40479, 39991, 41323, 40853, 41464, 41728, 41862, 42433, 41675, 41939, 41519, 41222, 40989, 40788, 41524, 41638, 41584, 42079, 41361, 42153, 41383, 42081, 42118, 41602, 41828, 41486, 42009, 41944, 42279, 42207, 41582, 42267, 41109, 41423, 41478, 40769, 42197, 41815, 41105, 42144, 41253, 40466, 42092, 42130, 42810, 42981, 40422, 40322, 40697, 40498, 40882, 42958, 42433, 42600, 42066],
      "WindowCenter": [10923.0, 10875.0, 10835.0, 10829.0, 10813.0, 10803.0, 10807.0, 10805.0, 10825.0, 10823.0, 10845.0, 10831.0, 10839.0, 10846.0, 10835.0, 10844.0, 10831.0, 10825.0, 10811.0, 10803.0, 10808.0, 10795.0, 10805.0, 10798.0, 10791.0, 10787.0, 10776.0, 10793.0, 10786.0, 10791.0, 10784.0, 10777.0, 10779.0, 10763.0, 10778.0, 10776.0, 10775.0, 10779.0, 10766.0, 10761.0, 10768.0, 10770.0, 10772.0, 10772.0, 10777.0, 10758.0, 10767.0, 10741.0, 10769.0, 10762.0, 10769.0, 10757.0, 10765.0, 10755.0, 10769.0, 10757.0, 10769.0, 10774.0, 10788.0, 10777.0, 10778.0, 10788.0, 10799.0, 10802.0, 10807.0, 10796.0, 10804.0, 10793.0, 10795.0, 10803.0, 10794.0, 10808.0, 10791.0, 10794.0, 10795.0, 10792.0, 10790.0, 10790.0, 10787.0, 10789.0, 10784.0, 10785.0, 10792.0, 10782.0, 10781.0, 10780.0, 10786.0, 10790.0, 10804.0, 10806.0, 10799.0, 10797.0, 10786.0, 10806.0, 10789.0, 10793.0, 10782.0, 10795.0, 10783.0, 10792.0, 10782.0, 10787.0, 10778.0, 10787.0, 10777.0, 10798.0, 10800.0, 10804.0, 10809.0, 10792.0, 10802.0, 10803.0, 10795.0, 10809.0, 10809.0, 10802.0, 10791.0, 10793.0, 10789.0, 10794.0, 10804.0, 10805.0, 10808.0, 10798.0, 10818.0, 10815.0, 10821.0, 10814.0, 10802.0, 10813.0, 10812.0, 10818.0, 10810.0, 10797.0, 10793.0, 10799.0, 10804.0, 10812.0, 10806.0, 10813.0, 10798.0, 10806.0, 10827.0, 10794.0, 10764.0, 10761.0, 10786.0, 10798.0, 10771.0, 10760.0, 10753.0, 10766.0, 10787.0, 10803.0, 10816.0, 10802.0, 10799.0, 10801.0, 10799.0, 10802.0, 10811.0, 10824.0, 10833.0, 10836.0, 10842.0, 10830.0, 10839.0, 10825.0, 10835.0, 10837.0, 10840.0, 10845.0, 10834.0, 10839.0, 10847.0, 10852.0, 10840.0, 10822.0, 10811.0, 10798.0, 10804.0, 10804.0, 10794.0, 10816.0, 10805.0, 10798.0, 10809.0, 10795.0, 10784.0, 10819.0, 10784.0, 10744.0, 10738.0, 10751.0, 10784.0, 10778.0, 10754.0, 10745.0, 10761.0, 10745.0, 10744.0, 10750.0],
      "WindowWidth": [23426.0, 23283.0, 23171.0, 23146.0, 23106.0, 23081.0, 23086.0, 23084.0, 23125.0, 23124.0, 23170.0, 23143.0, 23162.0, 23174.0, 23155.0, 23173.0, 23148.0, 23126.0, 23098.0, 23082.0, 23087.0, 23062.0, 23081.0, 23064.0, 23050.0, 23038.0, 23017.0, 23047.0, 23041.0, 23050.0, 23034.0, 23020.0, 23019.0, 22991.0, 23018.0, 23014.0, 23015.0, 23019.0, 22993.0, 22978.0, 22992.0, 22998.0, 23004.0, 23006.0, 23016.0, 22978.0, 22993.0, 22940.0, 22992.0, 22982.0, 22996.0, 22972.0, 22983.0, 22968.0, 22989.0, 22970.0, 22994.0, 23011.0, 23039.0, 23015.0, 23022.0, 23039.0, 23064.0, 23076.0, 23082.0, 23060.0, 23075.0, 23050.0, 23058.0, 23074.0, 23058.0, 23082.0, 23047.0, 23051.0, 23053.0, 23051.0, 23045.0, 23045.0, 23037.0, 23041.0, 23034.0, 23037.0, 23051.0, 23029.0, 23026.0, 23023.0, 23035.0, 23047.0, 23076.0, 23083.0, 23066.0, 23062.0, 23041.0, 23078.0, 23044.0, 23050.0, 23029.0, 23051.0, 23029.0, 23046.0, 23024.0, 23034.0, 23017.0, 23032.0, 23019.0, 23061.0, 23072.0, 23076.0, 23090.0, 23053.0, 23072.0, 23077.0, 23057.0, 23084.0, 23087.0, 23069.0, 23054.0, 23052.0, 23047.0, 23057.0, 23077.0, 23078.0, 23082.0, 23064.0, 23105.0, 23102.0, 23113.0, 23099.0, 23076.0, 23093.0, 23098.0, 23105.0, 23090.0, 23065.0, 23051.0, 23063.0, 23078.0, 23095.0, 23087.0, 23094.0, 23066.0, 23086.0, 23126.0, 23053.0, 22984.0, 22978.0, 23036.0, 23072.0, 23007.0, 22970.0, 22957.0, 22985.0, 23035.0, 23072.0, 23101.0, 23071.0, 23063.0, 23066.0, 23067.0, 23074.0, 23097.0, 23120.0, 23141.0, 23152.0, 23162.0, 23139.0, 23155.0, 23127.0, 23143.0, 23150.0, 23159.0, 23168.0, 23148.0, 23156.0, 23173.0, 23186.0, 23156.0, 23118.0, 23091.0, 23066.0, 23083.0, 23078.0, 23060.0, 23104.0, 23080.0, 23065.0, 23085.0, 23062.0, 23047.0, 23117.0, 23035.0, 22941.0, 22921.0, 22964.0, 23036.0, 23021.0, 22965.0, 22943.0, 22971.0, 22942.0, 22937.0, 22953.0]
    },
    "slices": {}
  }
}