{
  "AcquisitionMatrixPE": 104,
  "AcquisitionNumber": 1,
  "AcquisitionTime": "11:52:36.075000",
  "BandwidthPerPixelPhaseEncode": 17.17,
  "BaseResolution": 104,
  "BodyPartExamined": "BRAIN",
  "CoilString": "HC1-7;NC1_2",
  "ConsistencyInfo": "N4_VE11C_LATEST_20160120",
  "ConversionSoftware": "dcm2niix",
  "ConversionSoftwareVersion": "v1.0.20190720  (JP2:OpenJPEG) GCC7.3.0",
  "DerivedVendorReportedEchoSpacing": 0.000560011,
  "DeviceSerialNumber": "167006",
  "DwellTime": 2.1e-06,
  "EchoTime": 0.037,
  "EchoTrainLength": 104,
  "EffectiveEchoSpacing": 0.000560011,
  "FlipAngle": 52,
  "ImageComments": "Unaliased_MB4_PE3_LB",
  "ImageOrientationPatientDICOM": [0.999786, 0.0195556, -0.00678038, -0.0204188, 0.878287, -0.477697],
  "ImageType": [
    "ORIGINAL",
    "PRIMARY",
    "M",
    "MB",
    "ND",
    "MOSAIC"
],
  "ImagingFrequency": 123.26,
  "InPlanePhaseEncodingDirectionDICOM": "COL",
  "InstitutionAddress": "Chemin_Queen-Mary_4565_Montreal_District_CA_H3W_1W5",
  "InstitutionName": "IUGM",
  "InstitutionalDepartmentName": "Department",
  "MRAcquisitionType": "2D",
  "MagneticFieldStrength": 3,
  "Manufacturer": "Siemens",
  "ManufacturersModelName": "Prisma_fit",
  "Modality": "MR",
  "MultibandAccelerationFactor": 4,
  "PartialFourier": 1,
  "PatientPosition": "HFS",
  "PercentPhaseFOV": 100,
  "PhaseEncodingDirection": "j",
  "PhaseEncodingSteps": 104,
  "PhaseResolution": 1,
  "PixelBandwidth": 2290,
  "ProcedureStepDescription": "hcptrt_generic",
  "ProtocolName": "func_task-gambling_run-2",
  "PulseSequenceDetails": "%CustomerSeq%_cmrr_mbep2d_bold",
  "ReceiveCoilActiveElements": "HC1-7;NC1,2",
  "ReceiveCoilName": "HeadNeck_64",
  "ReconMatrixPE": 104,
  "RepetitionTime": 1.49,
  "SAR": 0.0383494,
  "ScanOptions": "FS",
  "ScanningSequence": "EP",
  "SequenceName": "epfid2d1_104",
  "SequenceVariant": "SK_SS",
  "SeriesDescription": "func_task-gambling_run-2",
  "SeriesNumber": 33,
  "ShimSetting": [620, -7190, -8872, 394, -20, -168, -12, -25],
  "SliceThickness": 2,
  "SliceTiming": [0, 0.785, 0.0975, 0.8825, 0.1975, 0.98, 0.295, 1.0775, 0.3925, 1.1775, 0.49, 1.275, 0.5875, 1.3725, 0.6875, 0, 0.785, 0.0975, 0.8825, 0.1975, 0.98, 0.295, 1.0775, 0.3925, 1.1775, 0.49, 1.275, 0.5875, 1.3725, 0.6875, 0, 0.785, 0.0975, 0.8825, 0.1975, 0.98, 0.295, 1.0775, 0.3925, 1.1775, 0.49, 1.275, 0.5875, 1.3725, 0.6875, 0, 0.785, 0.0975, 0.8825, 0.1975, 0.98, 0.295, 1.0775, 0.3925, 1.1775, 0.49, 1.275, 0.5875, 1.3725, 0.6875],
  "SoftwareVersions": "syngo_MR_E11",
  "SpacingBetweenSlices": 2,
  "StationName": "MRC35049",
  "TaskName": "gambling",
  "TotalReadoutTime": 0.0576811,
  "TxRefAmp": 250.658,
  "WipMemBlock": "fa64c5a4-3c0c-4c10-a59b-1e147ce5fd3b||Sequence: R016 ve11c/master r/e634e98; Dec 19 2017 11:00:25 by eja",
  "dcmmeta_affine": [
    [-1.9995715618133545, -0.0408376045525074, 0.006773093715310097, 105.83251190185547],
    [-0.03911126032471657, 1.7565746307373047, -0.9554663300514221, -57.9269905090332],
    [-0.013560755178332329, 0.9553940892219543, 1.756996989250183, -96.5040512084961],
    [0.0, 0.0, 0.0, 1.0]
],
  "dcmmeta_reorient_transform": [
    [0.0, -1.0, 0.0, 103.0],
    [1.0, 0.0, 0.0, 0.0],
    [0.0, 0.0, 1.0, 0.0],
    [0.0, 0.0, 0.0, 1.0]
],
  "dcmmeta_shape": [104, 104, 60, 129],
  "dcmmeta_slice_dim": 2,
  "dcmmeta_version": 0.6,
  "global": {
    "const": {
      "AcquisitionMatrix": [104, 0, 0, 104],
      "AngioFlag": "N",
      "BitsAllocated": 16,
      "BitsStored": 16,
      "BodyPartExamined": "BRAIN",
      "Columns": 832,
      "EchoNumbers": 1,
      "EchoTime": 37.0,
      "EchoTrainLength": 104,
      "FlipAngle": 52.0,
      "HighBit": 15,
      "ImageOrientationPatient": [0.99978577896631, 0.01955562984009, -0.0067803774449, -0.0204188020359, 0.87828731756815, -0.4776970382181],
      "ImagePositionPatient": [-814.60539750874, -776.62986303589, 354.60109423104],
      "ImageType": [
        "ORIGINAL",
        "PRIMARY",
        "M",
        "MB",
        "ND",
        "MOSAIC"
],
      "ImagedNucleus": "1H",
      "ImagingFrequency": 123.259555,
      "InPlanePhaseEncodingDirection": "COL",
      "MRAcquisitionType": "2D",
      "MagneticFieldStrength": 3.0,
      "Manufacturer": "SIEMENS",
      "ManufacturerModelName": "Prisma_fit",
      "Modality": "MR",
      "NumberOfAverages": 1.0,
      "NumberOfPhaseEncodingSteps": 104,
      "PercentPhaseFieldOfView": 100.0,
      "PercentSampling": 100.0,
      "PerformedProcedureStepStartTime": "104603.426000",
      "PhotometricInterpretation": "MONOCHROME2",
      "PixelBandwidth": 2290.0,
      "PixelRepresentation": 0,
      "PixelSpacing": [2.0, 2.0],
      "ProtocolName": "func_task-gambling_run-2",
      "RepetitionTime": 1490.0,
      "Rows": 832,
      "SAR": 0.03834941197962,
      "SamplesPerPixel": 1,
      "ScanOptions": "FS",
      "ScanningSequence": "EP",
      "SequenceName": "epfid2d1_104",
      "SequenceVariant": [
        "SK",
        "SS"
],
      "SeriesDescription": "func_task-gambling_run-2",
      "SeriesNumber": 33,
      "SeriesTime": "115358.358000",
      "SliceLocation": -56.746613872555,
      "SliceThickness": 2.0,
      "SmallestImagePixelValue": 0,
      "SoftwareVersions": "syngo MR E11",
      "SpacingBetweenSlices": 1.9999999939688,
      "SpecificCharacterSet": "ISO_IR 100",
      "StudyID": "1",
      "StudyTime": "104603.360000",
      "TransmitCoilName": "Body",
      "VariableFlipAngleFlag": "N",
      "WindowCenterWidthExplanation": "Algo1",
      "dBdt": 0.0},
    "slices": {}
  },
  "time": {
    "samples": {
      "AcquisitionNumber": [1, 2, 3, 4, 5, 6, 7, 8, 9, 10, 11, 12, 13, 14, 15, 16, 17, 18, 19, 20, 21, 22, 23, 24, 25, 26, 27, 28, 29, 30, 31, 32, 33, 34, 35, 36, 37, 38, 39, 40, 41, 42, 43, 44, 45, 46, 47, 48, 49, 50, 51, 52, 53, 54, 55, 56, 57, 58, 59, 60, 61, 62, 63, 64, 65, 66, 67, 68, 69, 70, 71, 72, 73, 74, 75, 76, 77, 78, 79, 80, 81, 82, 83, 84, 85, 86, 87, 88, 89, 90, 91, 92, 93, 94, 95, 96, 97, 98, 99, 100, 101, 102, 103, 104, 105, 106, 107, 108, 109, 110, 111, 112, 113, 114, 115, 116, 117, 118, 119, 120, 121, 122, 123, 124, 125, 126, 127, 128, 129],
      "AcquisitionTime": ["115236.075000", "115237.565000", "115239.055000", "115240.545000", "115242.035000", "115243.525000", "115245.015000", "115246.505000", "115247.995000", "115249.485000", "115250.975000", "115252.465000", "115253.955000", "115255.445000", "115256.935000", "115258.425000", "115259.915000", "115301.405000", "115302.895000", "115304.385000", "115305.875000", "115307.365000", "115308.855000", "115310.345000", "115311.835000", "115313.325000", "115314.815000", "115316.305000", "115317.795000", "115319.285000", "115320.775000", "115322.265000", "115323.755000", "115325.245000", "115326.735000", "115328.225000", "115329.715000", "115331.205000", "115332.695000", "115334.185000", "115335.675000", "115337.165000", "115338.655000", "115340.145000", "115341.635000", "115343.125000", "115344.615000", "115346.105000", "115347.595000", "115349.085000", "115350.575000", "115352.065000", "115353.555000", "115355.045000", "115356.535000", "115358.025000", "115359.515000", "115401.005000", "115402.495000", "115403.985000", "115405.475000", "115406.965000", "115408.455000", "115409.945000", "115411.435000", "115412.925000", "115414.415000", "115415.905000", "115417.395000", "115418.885000", "115420.375000", "115421.865000", "115423.355000", "115424.845000", "115426.335000", "115427.825000", "115429.315000", "115430.805000", "115432.295000", "115433.785000", "115435.275000", "115436.765000", "115438.255000", "115439.745000", "115441.235000", "115442.725000", "115444.215000", "115445.705000", "115447.195000", "115448.685000", "115450.175000", "115451.665000", "115453.155000", "115454.645000", "115456.135000", "115457.625000", "115459.115000", "115500.605000", "115502.095000", "115503.585000", "115505.075000", "115506.565000", "115508.055000", "115509.545000", "115511.035000", "115512.525000", "115514.015000", "115515.505000", "115516.995000", "115518.485000", "115519.975000", "115521.465000", "115522.955000", "115524.445000", "115525.935000", "115527.425000", "115528.915000", "115530.405000", "115531.895000", "115533.385000", "115534.875000", "115536.365000", "115537.855000", "115539.345000", "115540.835000", "115542.325000", "115543.815000", "115545.305000", "115546.795000"],
      "ContentTime": ["115358.360000", "115358.364000", "115358.367000", "115358.370000", "115358.373000", "115358.376000", "115358.379000", "115358.382000", "115358.385000", "115358.388000", "115358.391000", "115358.394000", "115358.397000", "115358.400000", "115358.403000", "115358.406000", "115358.409000", "115358.412000", "115358.415000", "115358.418000", "115358.422000", "115358.425000", "115358.428000", "115358.430000", "115358.433000", "115358.437000", "115358.439000", "115418.333000", "115418.336000", "115418.339000", "115418.342000", "115418.346000", "115418.349000", "115418.352000", "115418.355000", "115418.358000", "115418.361000", "115418.364000", "115418.367000", "115418.370000", "115418.373000", "115418.379000", "115418.382000", "115418.384000", "115418.387000", "115418.390000", "115418.393000", "115438.333000", "115438.336000", "115438.339000", "115438.342000", "115438.345000", "115438.348000", "115438.351000", "115438.354000", "115438.357000", "115438.360000", "115438.363000", "115438.366000", "115438.369000", "115438.372000", "115438.375000", "115438.378000", "115438.381000", "115438.384000", "115438.387000", "115438.390000", "115458.333000", "115458.336000", "115458.339000", "115458.342000", "115458.345000", "115458.348000", "115458.351000", "115458.354000", "115458.357000", "115458.360000", "115458.370000", "115458.373000", "115458.376000", "115458.379000", "115458.382000", "115458.385000", "115458.388000", "115458.390000", "115458.393000", "115458.397000", "115458.399000", "115518.334000", "115518.337000", "115518.341000", "115518.343000", "115518.346000", "115518.349000", "115518.352000", "115518.355000", "115518.358000", "115518.361000", "115518.364000", "115518.367000", "115518.370000", "115518.373000", "115518.376000", "115518.379000", "115518.382000", "115518.385000", "115518.388000", "115518.396000", "115549.352000", "115549.355000", "115549.358000", "115549.361000", "115549.375000", "115549.378000", "115549.381000", "115549.384000", "115549.404000", "115549.407000", "115549.410000", "115549.413000", "115549.416000", "115549.419000", "115549.422000", "115549.425000", "115549.428000", "115549.431000", "115549.434000", "115549.437000", "115549.440000"],
      "InstanceCreationTime": ["115358.360000", "115358.364000", "115358.367000", "115358.370000", "115358.373000", "115358.376000", "115358.379000", "115358.382000", "115358.385000", "115358.388000", "115358.391000", "115358.394000", "115358.397000", "115358.400000", "115358.403000", "115358.406000", "115358.409000", "115358.412000", "115358.415000", "115358.418000", "115358.422000", "115358.425000", "115358.428000", "115358.430000", "115358.433000", "115358.437000", "115358.439000", "115418.333000", "115418.336000", "115418.339000", "115418.342000", "115418.346000", "115418.349000", "115418.352000", "115418.355000", "115418.358000", "115418.361000", "115418.364000", "115418.367000", "115418.370000", "115418.373000", "115418.379000", "115418.382000", "115418.384000", "115418.387000", "115418.390000", "115418.393000", "115438.333000", "115438.336000", "115438.339000", "115438.342000", "115438.345000", "115438.348000", "115438.351000", "115438.354000", "115438.357000", "115438.360000", "115438.363000", "115438.366000", "115438.369000", "115438.372000", "115438.375000", "115438.378000", "115438.381000", "115438.384000", "115438.387000", "115438.390000", "115458.333000", "115458.336000", "115458.339000", "115458.342000", "115458.345000", "115458.348000", "115458.351000", "115458.354000", "115458.357000", "115458.360000", "115458.370000", "115458.373000", "115458.376000", "115458.379000", "115458.382000", "115458.385000", "115458.388000", "115458.390000", "115458.393000", "115458.397000", "115458.399000", "115518.334000", "115518.337000", "115518.341000", "115518.343000", "115518.346000", "115518.349000", "115518.352000", "115518.355000", "115518.358000", "115518.361000", "115518.364000", "115518.367000", "115518.370000", "115518.373000", "115518.376000", "115518.379000", "115518.382000", "115518.385000", "115518.388000", "115518.396000", "115549.352000", "115549.355000", "115549.358000", "115549.361000", "115549.375000", "115549.378000", "115549.381000", "115549.384000", "115549.404000", "115549.407000", "115549.410000", "115549.413000", "115549.416000", "115549.419000", "115549.422000", "115549.425000", "115549.428000", "115549.431000", "115549.434000", "115549.437000", "115549.440000"],
      "InstanceNumber": [1, 2, 3, 4, 5, 6, 7, 8, 9, 10, 11, 12, 13, 14, 15, 16, 17, 18, 19, 20, 21, 22, 23, 24, 25, 26, 27, 28, 29, 30, 31, 32, 33, 34, 35, 36, 37, 38, 39, 40, 41, 42, 43, 44, 45, 46, 47, 48, 49, 50, 51, 52, 53, 54, 55, 56, 57, 58, 59, 60, 61, 62, 63, 64, 65, 66, 67, 68, 69, 70, 71, 72, 73, 74, 75, 76, 77, 78, 79, 80, 81, 82, 83, 84, 85, 86, 87, 88, 89, 90, 91, 92, 93, 94, 95, 96, 97, 98, 99, 100, 101, 102, 103, 104, 105, 106, 107, 108, 109, 110, 111, 112, 113, 114, 115, 116, 117, 118, 119, 120, 121, 122, 123, 124, 125, 126, 127, 128, 129],
      "LargestImagePixelValue": [44273, 43237, 43245, 42997, 42483, 42479, 42610, 42606, 42939, 42514, 42667, 42010, 41902, 42525, 42507, 42499, 42276, 42700, 41856, 42203, 42277, 41890, 42149, 42579, 41897, 42187, 42079, 41947, 42705, 40193, 39719, 41614, 41291, 41361, 41259, 41701, 41735, 41285, 41452, 41606, 41169, 41123, 40774, 41094, 41275, 41299, 41766, 41476, 41387, 41802, 41328, 40996, 41218, 41007, 41161, 40844, 41043, 41425, 41401, 41323, 41345, 40847, 41011, 41429, 41699, 41428, 41250, 41805, 41292, 41744, 41784, 42447, 42015, 41561, 41975, 41584, 41739, 41966, 42316, 42100, 41635, 41915, 41718, 41924, 41854, 41836, 41756, 42228, 40781, 40253, 42988, 42209, 41199, 41688, 42224, 41782, 42024, 43040, 42837, 42564, 42083, 42244, 42323, 42242, 42092, 42048, 42256, 42127, 42530, 42567, 42216, 42278, 41895, 41664, 42164, 42283, 41795, 41323, 41092, 40260, 39538, 40698, 41130, 40273, 40192, 39976, 40300, 39960, 39977],
      "WindowCenter": [10862.0, 10778.0, 10728.0, 10699.0, 10687.0, 10692.0, 10703.0, 10712.0, 10731.0, 10720.0, 10712.0, 10724.0, 10754.0, 10777.0, 10764.0, 10744.0, 10734.0, 10734.0, 10739.0, 10754.0, 10756.0, 10741.0, 10742.0, 10732.0, 10720.0, 10733.0, 10731.0, 10745.0, 10763.0, 10723.0, 10665.0, 10660.0, 10672.0, 10710.0, 10711.0, 10689.0, 10662.0, 10652.0, 10657.0, 10658.0, 10667.0, 10677.0, 10683.0, 10690.0, 10695.0, 10698.0, 10707.0, 10718.0, 10727.0, 10743.0, 10746.0, 10734.0, 10729.0, 10728.0, 10736.0, 10721.0, 10699.0, 10698.0, 10715.0, 10719.0, 10699.0, 10679.0, 10671.0, 10683.0, 10697.0, 10699.0, 10711.0, 10709.0, 10698.0, 10695.0, 10692.0, 10704.0, 10699.0, 10710.0, 10708.0, 10695.0, 10691.0, 10705.0, 10723.0, 10710.0, 10695.0, 10692.0, 10682.0, 10694.0, 10697.0, 10702.0, 10723.0, 10745.0, 10713.0, 10663.0, 10656.0, 10667.0, 10707.0, 10728.0, 10724.0, 10708.0, 10692.0, 10700.0, 10701.0, 10703.0, 10713.0, 10715.0, 10723.0, 10727.0, 10742.0, 10750.0, 10756.0, 10757.0, 10765.0, 10755.0, 10759.0, 10755.0, 10751.0, 10749.0, 10744.0, 10729.0, 10738.0, 10759.0, 10741.0, 10691.0, 10631.0, 10611.0, 10664.0, 10700.0, 10726.0, 10717.0, 10689.0, 10689.0, 10689.0],
      "WindowWidth": [23278.0, 23046.0, 22904.0, 22831.0, 22801.0, 22806.0, 22830.0, 22850.0, 22896.0, 22873.0, 22858.0, 22883.0, 22955.0, 23007.0, 22977.0, 22927.0, 22902.0, 22904.0, 22919.0, 22952.0, 22959.0, 22927.0, 22928.0, 22904.0, 22878.0, 22908.0, 22903.0, 22932.0, 22980.0, 22901.0, 22773.0, 22747.0, 22775.0, 22855.0, 22863.0, 22803.0, 22740.0, 22716.0, 22729.0, 22737.0, 22757.0, 22781.0, 22799.0, 22811.0, 22821.0, 22829.0, 22848.0, 22874.0, 22896.0, 22931.0, 22939.0, 22914.0, 22903.0, 22901.0, 22920.0, 22892.0, 22838.0, 22833.0, 22872.0, 22880.0, 22837.0, 22791.0, 22773.0, 22796.0, 22831.0, 22831.0, 22862.0, 22855.0, 22830.0, 22822.0, 22814.0, 22840.0, 22829.0, 22856.0, 22849.0, 22820.0, 22814.0, 22841.0, 22878.0, 22851.0, 22817.0, 22808.0, 22787.0, 22811.0, 22820.0, 22835.0, 22888.0, 22940.0, 22867.0, 22758.0, 22727.0, 22749.0, 22844.0, 22890.0, 22873.0, 22837.0, 22804.0, 22816.0, 22825.0, 22832.0, 22857.0, 22862.0, 22876.0, 22888.0, 22917.0, 22938.0, 22953.0, 22958.0, 22973.0, 22952.0, 22962.0, 22954.0, 22950.0, 22944.0, 22936.0, 22894.0, 22927.0, 22974.0, 22938.0, 22824.0, 22690.0, 22638.0, 22751.0, 22840.0, 22900.0, 22872.0, 22807.0, 22810.0, 22810.0]
    },
    "slices": {}
  }
}