{
  "AcquisitionMatrixPE": 104,
  "AcquisitionNumber": 1,
  "AcquisitionTime": "12:00:34.827500",
  "BandwidthPerPixelPhaseEncode": 17.17,
  "BaseResolution": 104,
  "BodyPartExamined": "BRAIN",
  "CoilString": "HC1-7;NC1_2",
  "ConsistencyInfo": "N4_VE11C_LATEST_20160120",
  "ConversionSoftware": "dcm2niix",
  "ConversionSoftwareVersion": "v1.0.20190720  (JP2:OpenJPEG) GCC7.3.0",
  "DerivedVendorReportedEchoSpacing": 0.000560011,
  "DeviceSerialNumber": "167006",
  "DwellTime": 2.1e-06,
  "EchoTime": 0.037,
  "EchoTrainLength": 104,
  "EffectiveEchoSpacing": 0.000560011,
  "FlipAngle": 52,
  "ImageComments": "Unaliased_MB4_PE3_LB",
  "ImageOrientationPatientDICOM": [0.999786, 0.0195556, -0.00678038, -0.0204188, 0.878287, -0.477697],
  "ImageType": [
    "ORIGINAL",
    "PRIMARY",
    "M",
    "MB",
    "ND",
    "MOSAIC"
],
  "ImagingFrequency": 123.26,
  "InPlanePhaseEncodingDirectionDICOM": "COL",
  "InstitutionAddress": "Chemin_Queen-Mary_4565_Montreal_District_CA_H3W_1W5",
  "InstitutionName": "IUGM",
  "InstitutionalDepartmentName": "Department",
  "MRAcquisitionType": "2D",
  "MagneticFieldStrength": 3,
  "Manufacturer": "Siemens",
  "ManufacturersModelName": "Prisma_fit",
  "Modality": "MR",
  "MultibandAccelerationFactor": 4,
  "PartialFourier": 1,
  "PatientPosition": "HFS",
  "PercentPhaseFOV": 100,
  "PhaseEncodingDirection": "j",
  "PhaseEncodingSteps": 104,
  "PhaseResolution": 1,
  "PixelBandwidth": 2290,
  "ProcedureStepDescription": "hcptrt_generic",
  "ProtocolName": "func_task-social_run-2",
  "PulseSequenceDetails": "%CustomerSeq%_cmrr_mbep2d_bold",
  "ReceiveCoilActiveElements": "HC1-7;NC1,2",
  "ReceiveCoilName": "HeadNeck_64",
  "ReconMatrixPE": 104,
  "RepetitionTime": 1.49,
  "SAR": 0.0383891,
  "ScanOptions": "FS",
  "ScanningSequence": "EP",
  "SequenceName": "epfid2d1_104",
  "SequenceVariant": "SK_SS",
  "SeriesDescription": "func_task-social_run-2",
  "SeriesNumber": 37,
  "ShimSetting": [620, -7190, -8872, 394, -20, -168, -12, -25],
  "SliceThickness": 2,
  "SliceTiming": [0, 0.785, 0.1, 0.8825, 0.1975, 0.98, 0.295, 1.08, 0.3925, 1.1775, 0.49, 1.275, 0.59, 1.3725, 0.6875, 0, 0.785, 0.1, 0.8825, 0.1975, 0.98, 0.295, 1.08, 0.3925, 1.1775, 0.49, 1.275, 0.59, 1.3725, 0.6875, 0, 0.785, 0.1, 0.8825, 0.1975, 0.98, 0.295, 1.08, 0.3925, 1.1775, 0.49, 1.275, 0.59, 1.3725, 0.6875, 0, 0.785, 0.1, 0.8825, 0.1975, 0.98, 0.295, 1.08, 0.3925, 1.1775, 0.49, 1.275, 0.59, 1.3725, 0.6875],
  "SoftwareVersions": "syngo_MR_E11",
  "SpacingBetweenSlices": 2,
  "StationName": "MRC35049",
  "TaskName": "social",
  "TotalReadoutTime": 0.0576811,
  "TxRefAmp": 250.658,
  "WipMemBlock": "a3081dab-a3d1-4e74-ac7e-dc8d4e474cc5||Sequence: R016 ve11c/master r/e634e98; Dec 19 2017 11:00:25 by eja",
  "dcmmeta_affine": [
    [-1.9995715618133545, -0.0408376045525074, 0.006773093715310097, 105.83251190185547],
    [-0.03911126032471657, 1.7565746307373047, -0.9554663300514221, -57.9269905090332],
    [-0.013560755178332329, 0.9553940892219543, 1.756996989250183, -96.5040512084961],
    [0.0, 0.0, 0.0, 1.0]
],
  "dcmmeta_reorient_transform": [
    [0.0, -1.0, 0.0, 103.0],
    [1.0, 0.0, 0.0, 0.0],
    [0.0, 0.0, 1.0, 0.0],
    [0.0, 0.0, 0.0, 1.0]
],
  "dcmmeta_shape": [104, 104, 60, 139],
  "dcmmeta_slice_dim": 2,
  "dcmmeta_version": 0.6,
  "global": {
    "const": {
      "AcquisitionMatrix": [104, 0, 0, 104],
      "AngioFlag": "N",
      "BitsAllocated": 16,
      "BitsStored": 16,
      "BodyPartExamined": "BRAIN",
      "Columns": 832,
      "EchoNumbers": 1,
      "EchoTime": 37.0,
      "EchoTrainLength": 104,
      "FlipAngle": 52.0,
      "HighBit": 15,
      "ImageOrientationPatient": [0.99978577896631, 0.01955562984009, -0.0067803774449, -0.0204188020359, 0.87828731756815, -0.4776970382181],
      "ImagePositionPatient": [-814.60539750874, -776.62986303589, 354.60109423104],
      "ImageType": [
        "ORIGINAL",
        "PRIMARY",
        "M",
        "MB",
        "ND",
        "MOSAIC"
],
      "ImagedNucleus": "1H",
      "ImagingFrequency": 123.259557,
      "InPlanePhaseEncodingDirection": "COL",
      "MRAcquisitionType": "2D",
      "MagneticFieldStrength": 3.0,
      "Manufacturer": "SIEMENS",
      "ManufacturerModelName": "Prisma_fit",
      "Modality": "MR",
      "NumberOfAverages": 1.0,
      "NumberOfPhaseEncodingSteps": 104,
      "PercentPhaseFieldOfView": 100.0,
      "PercentSampling": 100.0,
      "PerformedProcedureStepStartTime": "104603.426000",
      "PhotometricInterpretation": "MONOCHROME2",
      "PixelBandwidth": 2290.0,
      "PixelRepresentation": 0,
      "PixelSpacing": [2.0, 2.0],
      "ProtocolName": "func_task-social_run-2",
      "RepetitionTime": 1490.0,
      "Rows": 832,
      "SAR": 0.03838913688173,
      "SamplesPerPixel": 1,
      "ScanOptions": "FS",
      "ScanningSequence": "EP",
      "SequenceName": "epfid2d1_104",
      "SequenceVariant": [
        "SK",
        "SS"
],
      "SeriesDescription": "func_task-social_run-2",
      "SeriesNumber": 37,
      "SeriesTime": "120133.436000",
      "SliceLocation": -56.746613872555,
      "SliceThickness": 2.0,
      "SmallestImagePixelValue": 0,
      "SoftwareVersions": "syngo MR E11",
      "SpacingBetweenSlices": 1.9999999939688,
      "SpecificCharacterSet": "ISO_IR 100",
      "StudyID": "1",
      "StudyTime": "104603.360000",
      "TransmitCoilName": "Body",
      "VariableFlipAngleFlag": "N",
      "WindowCenterWidthExplanation": "Algo1",
      "dBdt": 0.0},
    "slices": {}
  },
  "time": {
    "samples": {
      "AcquisitionNumber": [1, 2, 3, 4, 5, 6, 7, 8, 9, 10, 11, 12, 13, 14, 15, 16, 17, 18, 19, 20, 21, 22, 23, 24, 25, 26, 27, 28, 29, 30, 31, 32, 33, 34, 35, 36, 37, 38, 39, 40, 41, 42, 43, 44, 45, 46, 47, 48, 49, 50, 51, 52, 53, 54, 55, 56, 57, 58, 59, 60, 61, 62, 63, 64, 65, 66, 67, 68, 69, 70, 71, 72, 73, 74, 75, 76, 77, 78, 79, 80, 81, 82, 83, 84, 85, 86, 87, 88, 89, 90, 91, 92, 93, 94, 95, 96, 97, 98, 99, 100, 101, 102, 103, 104, 105, 106, 107, 108, 109, 110, 111, 112, 113, 114, 115, 116, 117, 118, 119, 120, 121, 122, 123, 124, 125, 126, 127, 128, 129, 130, 131, 132, 133, 134, 135, 136, 137, 138, 139],
      "AcquisitionTime": ["120034.827500", "120036.317500", "120037.807500", "120039.297500", "120040.787500", "120042.277500", "120043.767500", "120045.257500", "120046.747500", "120048.237500", "120049.727500", "120051.217500", "120052.707500", "120054.197500", "120055.687500", "120057.177500", "120058.667500", "120100.157500", "120101.647500", "120103.137500", "120104.627500", "120106.117500", "120107.607500", "120109.097500", "120110.587500", "120112.077500", "120113.567500", "120115.057500", "120116.547500", "120118.037500", "120119.527500", "120121.017500", "120122.507500", "120123.997500", "120125.487500", "120126.977500", "120128.467500", "120129.957500", "120131.447500", "120132.937500", "120134.427500", "120135.917500", "120137.407500", "120138.897500", "120140.387500", "120141.877500", "120143.367500", "120144.857500", "120146.347500", "120147.837500", "120149.327500", "120150.817500", "120152.307500", "120153.797500", "120155.287500", "120156.777500", "120158.267500", "120159.757500", "120201.247500", "120202.737500", "120204.227500", "120205.717500", "120207.207500", "120208.697500", "120210.187500", "120211.677500", "120213.167500", "120214.657500", "120216.147500", "120217.637500", "120219.127500", "120220.617500", "120222.107500", "120223.597500", "120225.087500", "120226.577500", "120228.067500", "120229.557500", "120231.047500", "120232.537500", "120234.027500", "120235.517500", "120237.007500", "120238.497500", "120239.987500", "120241.477500", "120242.967500", "120244.457500", "120245.947500", "120247.437500", "120248.927500", "120250.417500", "120251.907500", "120253.397500", "120254.887500", "120256.377500", "120257.867500", "120259.357500", "120300.847500", "120302.337500", "120303.827500", "120305.317500", "120306.807500", "120308.297500", "120309.787500", "120311.277500", "120312.767500", "120314.257500", "120315.747500", "120317.237500", "120318.727500", "120320.217500", "120321.707500", "120323.197500", "120324.687500", "120326.177500", "120327.667500", "120329.157500", "120330.647500", "120332.137500", "120333.627500", "120335.117500", "120336.607500", "120338.097500", "120339.587500", "120341.077500", "120342.567500", "120344.057500", "120345.547500", "120347.037500", "120348.527500", "120350.017500", "120351.507500", "120352.997500", "120354.487500", "120355.977500", "120357.467500", "120358.957500", "120400.447500"],
      "ContentTime": ["120133.438000", "120133.443000", "120133.446000", "120153.405000", "120153.408000", "120153.411000", "120153.414000", "120153.417000", "120153.420000", "120153.431000", "120153.434000", "120153.437000", "120153.440000", "120153.443000", "120153.446000", "120153.449000", "120153.461000", "120153.464000", "120153.467000", "120153.470000", "120153.473000", "120153.476000", "120153.479000", "120213.405000", "120213.408000", "120213.411000", "120213.414000", "120213.417000", "120213.420000", "120213.423000", "120213.426000", "120213.429000", "120213.432000", "120213.435000", "120213.438000", "120213.441000", "120213.443000", "120213.446000", "120213.450000", "120213.453000", "120213.455000", "120213.463000", "120213.466000", "120233.405000", "120233.408000", "120233.411000", "120233.420000", "120233.423000", "120233.426000", "120233.429000", "120233.432000", "120233.435000", "120233.438000", "120233.441000", "120233.444000", "120233.447000", "120233.451000", "120233.454000", "120233.457000", "120233.460000", "120233.463000", "120233.466000", "120233.469000", "120233.471000", "120253.416000", "120253.420000", "120253.423000", "120253.426000", "120253.429000", "120253.431000", "120253.435000", "120253.438000", "120253.443000", "120253.446000", "120253.450000", "120253.453000", "120253.456000", "120253.459000", "120253.462000", "120253.466000", "120253.468000", "120253.471000", "120253.475000", "120253.478000", "120313.406000", "120313.409000", "120313.412000", "120313.415000", "120313.418000", "120313.421000", "120313.424000", "120313.427000", "120313.430000", "120313.433000", "120313.436000", "120313.439000", "120313.442000", "120313.445000", "120313.448000", "120313.451000", "120313.454000", "120313.457000", "120313.460000", "120313.463000", "120353.406000", "120353.409000", "120353.412000", "120353.415000", "120353.418000", "120353.421000", "120353.424000", "120353.427000", "120353.430000", "120353.433000", "120353.436000", "120353.439000", "120353.442000", "120353.445000", "120353.448000", "120353.451000", "120353.454000", "120353.458000", "120353.461000", "120353.464000", "120353.467000", "120353.470000", "120353.473000", "120353.476000", "120353.479000", "120353.482000", "120353.485000", "120353.488000", "120402.583000", "120402.586000", "120402.589000", "120402.592000", "120402.601000", "120402.604000", "120402.607000"],
      "InstanceCreationTime": ["120133.438000", "120133.443000", "120133.446000", "120153.405000", "120153.408000", "120153.411000", "120153.414000", "120153.417000", "120153.420000", "120153.431000", "120153.434000", "120153.437000", "120153.440000", "120153.443000", "120153.446000", "120153.449000", "120153.461000", "120153.464000", "120153.467000", "120153.470000", "120153.473000", "120153.476000", "120153.479000", "120213.405000", "120213.408000", "120213.411000", "120213.414000", "120213.417000", "120213.420000", "120213.423000", "120213.426000", "120213.429000", "120213.432000", "120213.435000", "120213.438000", "120213.441000", "120213.443000", "120213.446000", "120213.450000", "120213.453000", "120213.455000", "120213.463000", "120213.466000", "120233.405000", "120233.408000", "120233.411000", "120233.420000", "120233.423000", "120233.426000", "120233.429000", "120233.432000", "120233.435000", "120233.438000", "120233.441000", "120233.444000", "120233.447000", "120233.451000", "120233.454000", "120233.457000", "120233.460000", "120233.463000", "120233.466000", "120233.469000", "120233.471000", "120253.416000", "120253.420000", "120253.423000", "120253.426000", "120253.429000", "120253.431000", "120253.435000", "120253.438000", "120253.443000", "120253.446000", "120253.450000", "120253.453000", "120253.456000", "120253.459000", "120253.462000", "120253.466000", "120253.468000", "120253.471000", "120253.475000", "120253.478000", "120313.406000", "120313.409000", "120313.412000", "120313.415000", "120313.418000", "120313.421000", "120313.424000", "120313.427000", "120313.430000", "120313.433000", "120313.436000", "120313.439000", "120313.442000", "120313.445000", "120313.448000", "120313.451000", "120313.454000", "120313.457000", "120313.460000", "120313.463000", "120353.406000", "120353.409000", "120353.412000", "120353.415000", "120353.418000", "120353.421000", "120353.424000", "120353.427000", "120353.430000", "120353.433000", "120353.436000", "120353.439000", "120353.442000", "120353.445000", "120353.448000", "120353.451000", "120353.454000", "120353.458000", "120353.461000", "120353.464000", "120353.467000", "120353.470000", "120353.473000", "120353.476000", "120353.479000", "120353.482000", "120353.485000", "120353.488000", "120402.583000", "120402.586000", "120402.589000", "120402.592000", "120402.601000", "120402.604000", "120402.607000"],
      "InstanceNumber": [1, 2, 3, 4, 5, 6, 7, 8, 9, 10, 11, 12, 13, 14, 15, 16, 17, 18, 19, 20, 21, 22, 23, 24, 25, 26, 27, 28, 29, 30, 31, 32, 33, 34, 35, 36, 37, 38, 39, 40, 41, 42, 43, 44, 45, 46, 47, 48, 49, 50, 51, 52, 53, 54, 55, 56, 57, 58, 59, 60, 61, 62, 63, 64, 65, 66, 67, 68, 69, 70, 71, 72, 73, 74, 75, 76, 77, 78, 79, 80, 81, 82, 83, 84, 85, 86, 87, 88, 89, 90, 91, 92, 93, 94, 95, 96, 97, 98, 99, 100, 101, 102, 103, 104, 105, 106, 107, 108, 109, 110, 111, 112, 113, 114, 115, 116, 117, 118, 119, 120, 121, 122, 123, 124, 125, 126, 127, 128, 129, 130, 131, 132, 133, 134, 135, 136, 137, 138, 139],
      "LargestImagePixelValue": [43299, 42462, 41940, 41649, 41723, 41195, 41302, 41157, 41429, 42258, 41554, 41534, 41797, 41453, 41373, 40329, 40459, 41009, 41319, 41397, 41823, 41473, 41284, 41576, 41518, 41208, 42043, 41726, 41547, 41912, 41107, 41825, 41462, 41578, 41427, 41378, 41584, 41393, 41081, 41789, 41827, 41560, 41074, 40970, 41443, 41512, 41539, 41426, 41484, 42310, 41161, 42320, 42281, 41389, 41381, 41436, 41764, 40782, 40523, 40919, 40818, 41314, 41321, 42077, 41507, 41293, 40431, 41196, 41523, 42208, 41410, 41287, 41289, 40160, 40268, 40885, 41324, 40897, 40828, 42100, 40167, 39514, 40579, 41543, 41444, 41101, 40737, 41285, 41291, 41294, 41388, 40623, 40423, 40675, 41180, 41473, 41025, 41021, 41028, 41725, 41338, 41534, 41550, 40862, 41026, 40818, 40858, 40673, 41673, 41589, 41144, 41023, 40948, 41426, 41197, 41148, 40822, 41070, 40632, 41104, 40908, 41009, 41100, 41089, 40956, 40528, 41358, 41372, 40905, 41246, 41502, 41186, 41597, 41577, 41108, 41402, 41317, 41411, 41739],
      "WindowCenter": [10807.0, 10788.0, 10733.0, 10675.0, 10657.0, 10645.0, 10636.0, 10642.0, 10666.0, 10698.0, 10685.0, 10648.0, 10624.0, 10646.0, 10703.0, 10743.0, 10730.0, 10700.0, 10669.0, 10658.0, 10667.0, 10662.0, 10667.0, 10674.0, 10683.0, 10693.0, 10672.0, 10632.0, 10593.0, 10597.0, 10613.0, 10666.0, 10690.0, 10684.0, 10666.0, 10645.0, 10629.0, 10619.0, 10627.0, 10649.0, 10691.0, 10711.0, 10719.0, 10704.0, 10690.0, 10664.0, 10661.0, 10657.0, 10679.0, 10715.0, 10713.0, 10688.0, 10637.0, 10584.0, 10590.0, 10620.0, 10693.0, 10733.0, 10758.0, 10748.0, 10706.0, 10685.0, 10658.0, 10655.0, 10647.0, 10659.0, 10680.0, 10720.0, 10718.0, 10685.0, 10640.0, 10623.0, 10667.0, 10716.0, 10733.0, 10708.0, 10689.0, 10674.0, 10671.0, 10702.0, 10680.0, 10630.0, 10608.0, 10629.0, 10671.0, 10693.0, 10658.0, 10625.0, 10602.0, 10599.0, 10595.0, 10600.0, 10619.0, 10644.0, 10634.0, 10608.0, 10603.0, 10645.0, 10706.0, 10710.0, 10662.0, 10616.0, 10583.0, 10565.0, 10571.0, 10595.0, 10626.0, 10623.0, 10600.0, 10577.0, 10609.0, 10674.0, 10702.0, 10680.0, 10638.0, 10604.0, 10584.0, 10587.0, 10608.0, 10635.0, 10620.0, 10596.0, 10594.0, 10633.0, 10692.0, 10708.0, 10681.0, 10648.0, 10610.0, 10591.0, 10597.0, 10597.0, 10622.0, 10669.0, 10694.0, 10699.0, 10704.0, 10688.0, 10656.0],
      "WindowWidth": [23131.0, 23064.0, 22919.0, 22778.0, 22720.0, 22690.0, 22672.0, 22686.0, 22738.0, 22810.0, 22786.0, 22701.0, 22644.0, 22693.0, 22828.0, 22926.0, 22894.0, 22817.0, 22738.0, 22715.0, 22735.0, 22727.0, 22737.0, 22758.0, 22779.0, 22805.0, 22758.0, 22667.0, 22580.0, 22586.0, 22630.0, 22748.0, 22806.0, 22789.0, 22745.0, 22695.0, 22661.0, 22639.0, 22658.0, 22699.0, 22790.0, 22843.0, 22859.0, 22826.0, 22789.0, 22731.0, 22727.0, 22713.0, 22767.0, 22847.0, 22853.0, 22794.0, 22677.0, 22565.0, 22572.0, 22638.0, 22803.0, 22904.0, 22955.0, 22925.0, 22827.0, 22777.0, 22720.0, 22709.0, 22696.0, 22725.0, 22778.0, 22865.0, 22863.0, 22783.0, 22685.0, 22642.0, 22743.0, 22862.0, 22900.0, 22837.0, 22787.0, 22750.0, 22747.0, 22812.0, 22775.0, 22671.0, 22612.0, 22653.0, 22750.0, 22806.0, 22731.0, 22644.0, 22589.0, 22582.0, 22578.0, 22595.0, 22640.0, 22693.0, 22666.0, 22604.0, 22591.0, 22690.0, 22828.0, 22836.0, 22727.0, 22614.0, 22537.0, 22502.0, 22521.0, 22576.0, 22644.0, 22638.0, 22582.0, 22529.0, 22599.0, 22752.0, 22826.0, 22773.0, 22669.0, 22587.0, 22543.0, 22551.0, 22603.0, 22663.0, 22630.0, 22577.0, 22573.0, 22664.0, 22797.0, 22849.0, 22779.0, 22695.0, 22612.0, 22564.0, 22576.0, 22579.0, 22638.0, 22745.0, 22809.0, 22813.0, 22824.0, 22789.0, 22722.0]
    },
    "slices": {}
  }
}