{
  "AcquisitionMatrixPE": 104,
  "AcquisitionNumber": 1,
  "AcquisitionTime": "11:22:39.410000",
  "BandwidthPerPixelPhaseEncode": 17.17,
  "BaseResolution": 104,
  "BodyPartExamined": "BRAIN",
  "CoilString": "HC1-7;NC1_2",
  "ConsistencyInfo": "N4_VE11C_LATEST_20160120",
  "ConversionSoftware": "dcm2niix",
  "ConversionSoftwareVersion": "v1.0.20190720  (JP2:OpenJPEG) GCC7.3.0",
  "DerivedVendorReportedEchoSpacing": 0.000560011,
  "DeviceSerialNumber": "167006",
  "DwellTime": 2.1e-06,
  "EchoTime": 0.037,
  "EchoTrainLength": 104,
  "EffectiveEchoSpacing": 0.000560011,
  "FlipAngle": 52,
  "ImageComments": "Unaliased_MB4_PE3_LB",
  "ImageOrientationPatientDICOM": [0.999786, 0.0195556, -0.00678038, -0.0204188, 0.878287, -0.477697],
  "ImageType": [
    "ORIGINAL",
    "PRIMARY",
    "M",
    "MB",
    "ND",
    "MOSAIC"
],
  "ImagingFrequency": 123.26,
  "InPlanePhaseEncodingDirectionDICOM": "COL",
  "InstitutionAddress": "Chemin_Queen-Mary_4565_Montreal_District_CA_H3W_1W5",
  "InstitutionName": "IUGM",
  "InstitutionalDepartmentName": "Department",
  "MRAcquisitionType": "2D",
  "MagneticFieldStrength": 3,
  "Manufacturer": "Siemens",
  "ManufacturersModelName": "Prisma_fit",
  "Modality": "MR",
  "MultibandAccelerationFactor": 4,
  "PartialFourier": 1,
  "PatientPosition": "HFS",
  "PercentPhaseFOV": 100,
  "PhaseEncodingDirection": "j",
  "PhaseEncodingSteps": 104,
  "PhaseResolution": 1,
  "PixelBandwidth": 2290,
  "ProcedureStepDescription": "hcptrt_generic",
  "ProtocolName": "func_task-motor_run-1",
  "PulseSequenceDetails": "%CustomerSeq%_cmrr_mbep2d_bold",
  "ReceiveCoilActiveElements": "HC1-7;NC1,2",
  "ReceiveCoilName": "HeadNeck_64",
  "ReconMatrixPE": 104,
  "RepetitionTime": 1.49,
  "SAR": 0.038407,
  "ScanOptions": "FS",
  "ScanningSequence": "EP",
  "SequenceName": "epfid2d1_104",
  "SequenceVariant": "SK_SS",
  "SeriesDescription": "func_task-motor_run-1",
  "SeriesNumber": 17,
  "ShimSetting": [620, -7190, -8872, 394, -20, -168, -12, -25],
  "SliceThickness": 2,
  "SliceTiming": [0, 0.7825, 0.0975, 0.88, 0.195, 0.98, 0.2925, 1.0775, 0.39, 1.175, 0.49, 1.2725, 0.5875, 1.37, 0.685, 0, 0.7825, 0.0975, 0.88, 0.195, 0.98, 0.2925, 1.0775, 0.39, 1.175, 0.49, 1.2725, 0.5875, 1.37, 0.685, 0, 0.7825, 0.0975, 0.88, 0.195, 0.98, 0.2925, 1.0775, 0.39, 1.175, 0.49, 1.2725, 0.5875, 1.37, 0.685, 0, 0.7825, 0.0975, 0.88, 0.195, 0.98, 0.2925, 1.0775, 0.39, 1.175, 0.49, 1.2725, 0.5875, 1.37, 0.685],
  "SoftwareVersions": "syngo_MR_E11",
  "SpacingBetweenSlices": 2,
  "StationName": "MRC35049",
  "TaskName": "motor",
  "TotalReadoutTime": 0.0576811,
  "TxRefAmp": 250.658,
  "WipMemBlock": "7c16370e-e262-45a8-ac60-942868facb97||Sequence: R016 ve11c/master r/e634e98; Dec 19 2017 11:00:25 by eja",
  "dcmmeta_affine": [
    [-1.9995715618133545, -0.0408376045525074, 0.006773093715310097, 105.83251190185547],
    [-0.03911126032471657, 1.7565746307373047, -0.9554663300514221, -57.9269905090332],
    [-0.013560755178332329, 0.9553940892219543, 1.756996989250183, -96.5040512084961],
    [0.0, 0.0, 0.0, 1.0]
],
  "dcmmeta_reorient_transform": [
    [0.0, -1.0, 0.0, 103.0],
    [1.0, 0.0, 0.0, 0.0],
    [0.0, 0.0, 1.0, 0.0],
    [0.0, 0.0, 0.0, 1.0]
],
  "dcmmeta_shape": [104, 104, 60, 144],
  "dcmmeta_slice_dim": 2,
  "dcmmeta_version": 0.6,
  "global": {
    "const": {
      "AcquisitionMatrix": [104, 0, 0, 104],
      "AngioFlag": "N",
      "BitsAllocated": 16,
      "BitsStored": 16,
      "BodyPartExamined": "BRAIN",
      "Columns": 832,
      "EchoNumbers": 1,
      "EchoTime": 37.0,
      "EchoTrainLength": 104,
      "FlipAngle": 52.0,
      "HighBit": 15,
      "ImageOrientationPatient": [0.99978577896631, 0.01955562984009, -0.0067803774449, -0.0204188020359, 0.87828731756815, -0.4776970382181],
      "ImagePositionPatient": [-814.60539750874, -776.62986303589, 354.60109423104],
      "ImageType": [
        "ORIGINAL",
        "PRIMARY",
        "M",
        "MB",
        "ND",
        "MOSAIC"
],
      "ImagedNucleus": "1H",
      "ImagingFrequency": 123.259547,
      "InPlanePhaseEncodingDirection": "COL",
      "MRAcquisitionType": "2D",
      "MagneticFieldStrength": 3.0,
      "Manufacturer": "SIEMENS",
      "ManufacturerModelName": "Prisma_fit",
      "Modality": "MR",
      "NumberOfAverages": 1.0,
      "NumberOfPhaseEncodingSteps": 104,
      "PercentPhaseFieldOfView": 100.0,
      "PercentSampling": 100.0,
      "PerformedProcedureStepStartTime": "104603.426000",
      "PhotometricInterpretation": "MONOCHROME2",
      "PixelBandwidth": 2290.0,
      "PixelRepresentation": 0,
      "PixelSpacing": [2.0, 2.0],
      "ProtocolName": "func_task-motor_run-1",
      "RepetitionTime": 1490.0,
      "Rows": 832,
      "SAR": 0.03840702730727,
      "SamplesPerPixel": 1,
      "ScanOptions": "FS",
      "ScanningSequence": "EP",
      "SequenceName": "epfid2d1_104",
      "SequenceVariant": [
        "SK",
        "SS"
],
      "SeriesDescription": "func_task-motor_run-1",
      "SeriesNumber": 17,
      "SeriesTime": "112412.259000",
      "SliceLocation": -56.746613872555,
      "SliceThickness": 2.0,
      "SmallestImagePixelValue": 0,
      "SoftwareVersions": "syngo MR E11",
      "SpacingBetweenSlices": 1.9999999939688,
      "SpecificCharacterSet": "ISO_IR 100",
      "StudyID": "1",
      "StudyTime": "104603.360000",
      "TransmitCoilName": "Body",
      "VariableFlipAngleFlag": "N",
      "WindowCenterWidthExplanation": "Algo1",
      "dBdt": 0.0},
    "slices": {}
  },
  "time": {
    "samples": {
      "AcquisitionNumber": [1, 2, 3, 4, 5, 6, 7, 8, 9, 10, 11, 12, 13, 14, 15, 16, 17, 18, 19, 20, 21, 22, 23, 24, 25, 26, 27, 28, 29, 30, 31, 32, 33, 34, 35, 36, 37, 38, 39, 40, 41, 42, 43, 44, 45, 46, 47, 48, 49, 50, 51, 52, 53, 54, 55, 56, 57, 58, 59, 60, 61, 62, 63, 64, 65, 66, 67, 68, 69, 70, 71, 72, 73, 74, 75, 76, 77, 78, 79, 80, 81, 82, 83, 84, 85, 86, 87, 88, 89, 90, 91, 92, 93, 94, 95, 96, 97, 98, 99, 100, 101, 102, 103, 104, 105, 106, 107, 108, 109, 110, 111, 112, 113, 114, 115, 116, 117, 118, 119, 120, 121, 122, 123, 124, 125, 126, 127, 128, 129, 130, 131, 132, 133, 134, 135, 136, 137, 138, 139, 140, 141, 142, 143, 144],
      "AcquisitionTime": ["112239.410000", "112240.900000", "112242.390000", "112243.880000", "112245.370000", "112246.860000", "112248.350000", "112249.840000", "112251.330000", "112252.820000", "112254.310000", "112255.800000", "112257.290000", "112258.780000", "112300.270000", "112301.760000", "112303.250000", "112304.740000", "112306.230000", "112307.720000", "112309.210000", "112310.700000", "112312.190000", "112313.680000", "112315.170000", "112316.660000", "112318.150000", "112319.640000", "112321.130000", "112322.620000", "112324.110000", "112325.600000", "112327.090000", "112328.580000", "112330.070000", "112331.560000", "112333.050000", "112334.540000", "112336.030000", "112337.520000", "112339.010000", "112340.500000", "112341.990000", "112343.480000", "112344.970000", "112346.460000", "112347.950000", "112349.440000", "112350.930000", "112352.420000", "112353.910000", "112355.400000", "112356.890000", "112358.380000", "112359.870000", "112401.360000", "112402.850000", "112404.340000", "112405.830000", "112407.320000", "112408.810000", "112410.300000", "112411.790000", "112413.280000", "112414.770000", "112416.260000", "112417.750000", "112419.240000", "112420.730000", "112422.220000", "112423.710000", "112425.200000", "112426.690000", "112428.180000", "112429.670000", "112431.160000", "112432.650000", "112434.140000", "112435.630000", "112437.120000", "112438.610000", "112440.100000", "112441.590000", "112443.080000", "112444.570000", "112446.060000", "112447.550000", "112449.040000", "112450.530000", "112452.020000", "112453.510000", "112455.000000", "112456.490000", "112457.980000", "112459.470000", "112500.960000", "112502.450000", "112503.940000", "112505.430000", "112506.920000", "112508.410000", "112509.900000", "112511.390000", "112512.880000", "112514.370000", "112515.860000", "112517.350000", "112518.840000", "112520.330000", "112521.820000", "112523.310000", "112524.800000", "112526.290000", "112527.780000", "112529.270000", "112530.760000", "112532.250000", "112533.740000", "112535.230000", "112536.720000", "112538.210000", "112539.700000", "112541.190000", "112542.680000", "112544.170000", "112545.660000", "112547.150000", "112548.640000", "112550.130000", "112551.620000", "112553.110000", "112554.600000", "112556.090000", "112557.580000", "112559.070000", "112600.560000", "112602.050000", "112603.540000", "112605.030000", "112606.520000", "112608.010000", "112609.500000", "112610.990000", "112612.480000"],
      "ContentTime": ["112412.262000", "112412.266000", "112412.269000", "112412.272000", "112412.275000", "112412.278000", "112412.286000", "112412.288000", "112412.291000", "112412.294000", "112412.297000", "112412.300000", "112412.303000", "112412.306000", "112412.309000", "112412.312000", "112412.315000", "112412.318000", "112412.320000", "112412.323000", "112412.326000", "112412.329000", "112412.332000", "112412.335000", "112412.338000", "112412.341000", "112412.344000", "112412.347000", "112412.350000", "112412.353000", "112412.355000", "112412.358000", "112412.361000", "112412.364000", "112412.367000", "112412.370000", "112432.225000", "112432.228000", "112432.231000", "112432.234000", "112432.237000", "112432.240000", "112432.243000", "112432.246000", "112432.249000", "112432.252000", "112432.255000", "112432.258000", "112432.261000", "112432.264000", "112432.267000", "112432.270000", "112432.273000", "112432.276000", "112432.279000", "112432.282000", "112432.285000", "112452.225000", "112452.228000", "112452.231000", "112452.234000", "112452.237000", "112452.240000", "112452.243000", "112452.246000", "112452.248000", "112452.251000", "112452.254000", "112452.257000", "112452.260000", "112452.263000", "112452.266000", "112452.269000", "112452.272000", "112452.275000", "112452.279000", "112452.282000", "112512.224000", "112512.227000", "112512.230000", "112512.233000", "112512.236000", "112512.239000", "112512.242000", "112512.245000", "112512.248000", "112512.250000", "112512.253000", "112512.256000", "112512.259000", "112512.271000", "112512.274000", "112512.277000", "112512.280000", "112512.283000", "112512.286000", "112512.289000", "112552.225000", "112552.228000", "112552.231000", "112552.234000", "112552.237000", "112552.239000", "112552.261000", "112552.264000", "112552.267000", "112552.269000", "112552.276000", "112552.279000", "112552.281000", "112552.284000", "112552.287000", "112552.290000", "112552.293000", "112552.296000", "112552.299000", "112552.302000", "112552.305000", "112552.308000", "112552.319000", "112552.322000", "112552.325000", "112552.327000", "112552.330000", "112552.333000", "112552.336000", "112552.339000", "112552.342000", "112552.345000", "112614.418000", "112614.421000", "112614.424000", "112614.427000", "112614.430000", "112614.433000", "112614.436000", "112614.440000", "112614.444000", "112614.447000", "112614.450000", "112614.453000", "112614.456000", "112614.459000", "112614.462000"],
      "InstanceCreationTime": ["112412.262000", "112412.266000", "112412.269000", "112412.272000", "112412.275000", "112412.278000", "112412.286000", "112412.288000", "112412.291000", "112412.294000", "112412.297000", "112412.300000", "112412.303000", "112412.306000", "112412.309000", "112412.312000", "112412.315000", "112412.318000", "112412.320000", "112412.323000", "112412.326000", "112412.329000", "112412.332000", "112412.335000", "112412.338000", "112412.341000", "112412.344000", "112412.347000", "112412.350000", "112412.353000", "112412.355000", "112412.358000", "112412.361000", "112412.364000", "112412.367000", "112412.370000", "112432.225000", "112432.228000", "112432.231000", "112432.234000", "112432.237000", "112432.240000", "112432.243000", "112432.246000", "112432.249000", "112432.252000", "112432.255000", "112432.258000", "112432.261000", "112432.264000", "112432.267000", "112432.270000", "112432.273000", "112432.276000", "112432.279000", "112432.282000", "112432.285000", "112452.225000", "112452.228000", "112452.231000", "112452.234000", "112452.237000", "112452.240000", "112452.243000", "112452.246000", "112452.248000", "112452.251000", "112452.254000", "112452.257000", "112452.260000", "112452.263000", "112452.266000", "112452.269000", "112452.272000", "112452.275000", "112452.279000", "112452.282000", "112512.224000", "112512.227000", "112512.230000", "112512.233000", "112512.236000", "112512.239000", "112512.242000", "112512.245000", "112512.248000", "112512.250000", "112512.253000", "112512.256000", "112512.259000", "112512.271000", "112512.274000", "112512.277000", "112512.280000", "112512.283000", "112512.286000", "112512.289000", "112552.225000", "112552.228000", "112552.231000", "112552.234000", "112552.237000", "112552.239000", "112552.261000", "112552.264000", "112552.267000", "112552.269000", "112552.276000", "112552.279000", "112552.281000", "112552.284000", "112552.287000", "112552.290000", "112552.293000", "112552.296000", "112552.299000", "112552.302000", "112552.305000", "112552.308000", "112552.319000", "112552.322000", "112552.325000", "112552.327000", "112552.330000", "112552.333000", "112552.336000", "112552.339000", "112552.342000", "112552.345000", "112614.418000", "112614.421000", "112614.424000", "112614.427000", "112614.430000", "112614.433000", "112614.436000", "112614.440000", "112614.444000", "112614.447000", "112614.450000", "112614.453000", "112614.456000", "112614.459000", "112614.462000"],
      "InstanceNumber": [1, 2, 3, 4, 5, 6, 7, 8, 9, 10, 11, 12, 13, 14, 15, 16, 17, 18, 19, 20, 21, 22, 23, 24, 25, 26, 27, 28, 29, 30, 31, 32, 33, 34, 35, 36, 37, 38, 39, 40, 41, 42, 43, 44, 45, 46, 47, 48, 49, 50, 51, 52, 53, 54, 55, 56, 57, 58, 59, 60, 61, 62, 63, 64, 65, 66, 67, 68, 69, 70, 71, 72, 73, 74, 75, 76, 77, 78, 79, 80, 81, 82, 83, 84, 85, 86, 87, 88, 89, 90, 91, 92, 93, 94, 95, 96, 97, 98, 99, 100, 101, 102, 103, 104, 105, 106, 107, 108, 109, 110, 111, 112, 113, 114, 115, 116, 117, 118, 119, 120, 121, 122, 123, 124, 125, 126, 127, 128, 129, 130, 131, 132, 133, 134, 135, 136, 137, 138, 139, 140, 141, 142, 143, 144],
      "LargestImagePixelValue": [43737, 42779, 41743, 41279, 41963, 41614, 41859, 41789, 41510, 41728, 41676, 41776, 42127, 42036, 41737, 41760, 41898, 41885, 41163, 40387, 40903, 40789, 40634, 41059, 41024, 40629, 40849, 42270, 40971, 40545, 40466, 40411, 41753, 41401, 41929, 41555, 41390, 41470, 41283, 41594, 41398, 40970, 41245, 41279, 41397, 40803, 41040, 41679, 41389, 41456, 41344, 41342, 40917, 40974, 41067, 40800, 41207, 40449, 41361, 41514, 41073, 41581, 41322, 41731, 41462, 41234, 41641, 40822, 40452, 40640, 40969, 40768, 40416, 41065, 40807, 40936, 40939, 40969, 41435, 41124, 41638, 41687, 41365, 41534, 40900, 41193, 40947, 40964, 41378, 41157, 41182, 40690, 40654, 40348, 40508, 40808, 40692, 40782, 40219, 41641, 41253, 41853, 41341, 41061, 40793, 40766, 40819, 40978, 41534, 41689, 41945, 41330, 41254, 41330, 41043, 41605, 41349, 41114, 41483, 41132, 40345, 41489, 41391, 41350, 40476, 41022, 40918, 41716, 41946, 40898, 42224, 42520, 43106, 42148, 42918, 42770, 43252, 42801, 42786, 42579, 42443, 43116, 42980, 42926],
      "WindowCenter": [10949.0, 10891.0, 10869.0, 10873.0, 10882.0, 10867.0, 10857.0, 10852.0, 10851.0, 10860.0, 10871.0, 10892.0, 10890.0, 10873.0, 10864.0, 10862.0, 10854.0, 10851.0, 10856.0, 10844.0, 10850.0, 10843.0, 10834.0, 10831.0, 10831.0, 10817.0, 10824.0, 10837.0, 10822.0, 10823.0, 10818.0, 10827.0, 10835.0, 10830.0, 10830.0, 10826.0, 10829.0, 10824.0, 10828.0, 10834.0, 10843.0, 10838.0, 10840.0, 10838.0, 10830.0, 10815.0, 10814.0, 10816.0, 10820.0, 10836.0, 10839.0, 10823.0, 10805.0, 10797.0, 10803.0, 10822.0, 10835.0, 10819.0, 10821.0, 10827.0, 10796.0, 10808.0, 10818.0, 10823.0, 10820.0, 10801.0, 10801.0, 10795.0, 10802.0, 10814.0, 10811.0, 10804.0, 10800.0, 10813.0, 10829.0, 10832.0, 10825.0, 10827.0, 10841.0, 10845.0, 10857.0, 10854.0, 10847.0, 10846.0, 10848.0, 10868.0, 10870.0, 10863.0, 10842.0, 10832.0, 10815.0, 10807.0, 10804.0, 10805.0, 10812.0, 10813.0, 10813.0, 10818.0, 10809.0, 10850.0, 10849.0, 10824.0, 10796.0, 10804.0, 10826.0, 10834.0, 10816.0, 10792.0, 10796.0, 10803.0, 10811.0, 10816.0, 10825.0, 10827.0, 10820.0, 10824.0, 10826.0, 10840.0, 10854.0, 10870.0, 10857.0, 10866.0, 10865.0, 10865.0, 10849.0, 10857.0, 10844.0, 10855.0, 10861.0, 10844.0, 10849.0, 10847.0, 10853.0, 10839.0, 10834.0, 10815.0, 10819.0, 10828.0, 10845.0, 10854.0, 10854.0, 10860.0, 10847.0, 10837.0],
      "WindowWidth": [23488.0, 23330.0, 23262.0, 23264.0, 23276.0, 23238.0, 23213.0, 23196.0, 23196.0, 23216.0, 23243.0, 23290.0, 23285.0, 23243.0, 23222.0, 23215.0, 23200.0, 23193.0, 23207.0, 23186.0, 23200.0, 23181.0, 23160.0, 23154.0, 23155.0, 23128.0, 23145.0, 23166.0, 23137.0, 23138.0, 23130.0, 23148.0, 23162.0, 23151.0, 23150.0, 23142.0, 23154.0, 23138.0, 23150.0, 23160.0, 23182.0, 23173.0, 23178.0, 23169.0, 23153.0, 23119.0, 23121.0, 23125.0, 23133.0, 23168.0, 23176.0, 23140.0, 23099.0, 23081.0, 23092.0, 23139.0, 23164.0, 23133.0, 23130.0, 23144.0, 23078.0, 23101.0, 23123.0, 23131.0, 23129.0, 23083.0, 23080.0, 23066.0, 23087.0, 23110.0, 23100.0, 23087.0, 23083.0, 23110.0, 23141.0, 23153.0, 23141.0, 23147.0, 23178.0, 23183.0, 23214.0, 23209.0, 23193.0, 23193.0, 23195.0, 23243.0, 23246.0, 23233.0, 23180.0, 23155.0, 23116.0, 23100.0, 23092.0, 23093.0, 23107.0, 23108.0, 23110.0, 23124.0, 23102.0, 23195.0, 23195.0, 23134.0, 23071.0, 23088.0, 23138.0, 23155.0, 23111.0, 23056.0, 23061.0, 23079.0, 23097.0, 23112.0, 23134.0, 23139.0, 23123.0, 23132.0, 23137.0, 23170.0, 23201.0, 23242.0, 23217.0, 23231.0, 23229.0, 23233.0, 23200.0, 23216.0, 23187.0, 23207.0, 23224.0, 23186.0, 23199.0, 23190.0, 23194.0, 23166.0, 23148.0, 23106.0, 23112.0, 23135.0, 23173.0, 23196.0, 23199.0, 23210.0, 23186.0, 23159.0]
    },
    "slices": {}
  }
}