{
  "AcquisitionMatrixPE": 104,
  "AcquisitionNumber": 1,
  "AcquisitionTime": "11:27:56.012500",
  "BandwidthPerPixelPhaseEncode": 17.17,
  "BaseResolution": 104,
  "BodyPartExamined": "BRAIN",
  "CoilString": "HC1-7;NC1_2",
  "ConsistencyInfo": "N4_VE11C_LATEST_20160120",
  "ConversionSoftware": "dcm2niix",
  "ConversionSoftwareVersion": "v1.0.20190720  (JP2:OpenJPEG) GCC7.3.0",
  "DerivedVendorReportedEchoSpacing": 0.000560011,
  "DeviceSerialNumber": "167006",
  "DwellTime": 2.1e-06,
  "EchoTime": 0.037,
  "EchoTrainLength": 104,
  "EffectiveEchoSpacing": 0.000560011,
  "FlipAngle": 52,
  "ImageComments": "Unaliased_MB4_PE3_LB",
  "ImageOrientationPatientDICOM": [0.999786, 0.0195556, -0.00678038, -0.0204188, 0.878287, -0.477697],
  "ImageType": [
    "ORIGINAL",
    "PRIMARY",
    "M",
    "MB",
    "ND",
    "MOSAIC"
],
  "ImagingFrequency": 123.26,
  "InPlanePhaseEncodingDirectionDICOM": "COL",
  "InstitutionAddress": "Chemin_Queen-Mary_4565_Montreal_District_CA_H3W_1W5",
  "InstitutionName": "IUGM",
  "InstitutionalDepartmentName": "Department",
  "MRAcquisitionType": "2D",
  "MagneticFieldStrength": 3,
  "Manufacturer": "Siemens",
  "ManufacturersModelName": "Prisma_fit",
  "Modality": "MR",
  "MultibandAccelerationFactor": 4,
  "PartialFourier": 1,
  "PatientPosition": "HFS",
  "PercentPhaseFOV": 100,
  "PhaseEncodingDirection": "j",
  "PhaseEncodingSteps": 104,
  "PhaseResolution": 1,
  "PixelBandwidth": 2290,
  "ProcedureStepDescription": "hcptrt_generic",
  "ProtocolName": "func_task-social_run-1",
  "PulseSequenceDetails": "%CustomerSeq%_cmrr_mbep2d_bold",
  "ReceiveCoilActiveElements": "HC1-7;NC1,2",
  "ReceiveCoilName": "HeadNeck_64",
  "ReconMatrixPE": 104,
  "RepetitionTime": 1.49,
  "SAR": 0.0383891,
  "ScanOptions": "FS",
  "ScanningSequence": "EP",
  "SequenceName": "epfid2d1_104",
  "SequenceVariant": "SK_SS",
  "SeriesDescription": "func_task-social_run-1",
  "SeriesNumber": 21,
  "ShimSetting": [620, -7190, -8872, 394, -20, -168, -12, -25],
  "SliceThickness": 2,
  "SliceTiming": [0, 0.7825, 0.0975, 0.8825, 0.195, 0.98, 0.2925, 1.0775, 0.3925, 1.175, 0.49, 1.2725, 0.5875, 1.3725, 0.685, 0, 0.7825, 0.0975, 0.8825, 0.195, 0.98, 0.2925, 1.0775, 0.3925, 1.175, 0.49, 1.2725, 0.5875, 1.3725, 0.685, 0, 0.7825, 0.0975, 0.8825, 0.195, 0.98, 0.2925, 1.0775, 0.3925, 1.175, 0.49, 1.2725, 0.5875, 1.3725, 0.685, 0, 0.7825, 0.0975, 0.8825, 0.195, 0.98, 0.2925, 1.0775, 0.3925, 1.175, 0.49, 1.2725, 0.5875, 1.3725, 0.685],
  "SoftwareVersions": "syngo_MR_E11",
  "SpacingBetweenSlices": 2,
  "StationName": "MRC35049",
  "TaskName": "social",
  "TotalReadoutTime": 0.0576811,
  "TxRefAmp": 250.658,
  "WipMemBlock": "e3d60eeb-1ced-4d6f-8220-e9b306cdf65d||Sequence: R016 ve11c/master r/e634e98; Dec 19 2017 11:00:25 by eja",
  "dcmmeta_affine": [
    [-1.9995715618133545, -0.0408376045525074, 0.006773093715310097, 105.83251190185547],
    [-0.03911126032471657, 1.7565746307373047, -0.9554663300514221, -57.9269905090332],
    [-0.013560755178332329, 0.9553940892219543, 1.756996989250183, -96.5040512084961],
    [0.0, 0.0, 0.0, 1.0]
],
  "dcmmeta_reorient_transform": [
    [0.0, -1.0, 0.0, 103.0],
    [1.0, 0.0, 0.0, 0.0],
    [0.0, 0.0, 1.0, 0.0],
    [0.0, 0.0, 0.0, 1.0]
],
  "dcmmeta_shape": [104, 104, 60, 139],
  "dcmmeta_slice_dim": 2,
  "dcmmeta_version": 0.6,
  "global": {
    "const": {
      "AcquisitionMatrix": [104, 0, 0, 104],
      "AngioFlag": "N",
      "BitsAllocated": 16,
      "BitsStored": 16,
      "BodyPartExamined": "BRAIN",
      "Columns": 832,
      "EchoNumbers": 1,
      "EchoTime": 37.0,
      "EchoTrainLength": 104,
      "FlipAngle": 52.0,
      "HighBit": 15,
      "ImageOrientationPatient": [0.99978577896631, 0.01955562984009, -0.0067803774449, -0.0204188020359, 0.87828731756815, -0.4776970382181],
      "ImagePositionPatient": [-814.60539750874, -776.62986303589, 354.60109423104],
      "ImageType": [
        "ORIGINAL",
        "PRIMARY",
        "M",
        "MB",
        "ND",
        "MOSAIC"
],
      "ImagedNucleus": "1H",
      "ImagingFrequency": 123.259546,
      "InPlanePhaseEncodingDirection": "COL",
      "MRAcquisitionType": "2D",
      "MagneticFieldStrength": 3.0,
      "Manufacturer": "SIEMENS",
      "ManufacturerModelName": "Prisma_fit",
      "Modality": "MR",
      "NumberOfAverages": 1.0,
      "NumberOfPhaseEncodingSteps": 104,
      "PercentPhaseFieldOfView": 100.0,
      "PercentSampling": 100.0,
      "PerformedProcedureStepStartTime": "104603.426000",
      "PhotometricInterpretation": "MONOCHROME2",
      "PixelBandwidth": 2290.0,
      "PixelRepresentation": 0,
      "PixelSpacing": [2.0, 2.0],
      "ProtocolName": "func_task-social_run-1",
      "RepetitionTime": 1490.0,
      "Rows": 832,
      "SAR": 0.03838913688173,
      "SamplesPerPixel": 1,
      "ScanOptions": "FS",
      "ScanningSequence": "EP",
      "SequenceName": "epfid2d1_104",
      "SequenceVariant": [
        "SK",
        "SS"
],
      "SeriesDescription": "func_task-social_run-1",
      "SeriesNumber": 21,
      "SeriesTime": "112918.358000",
      "SliceLocation": -56.746613872555,
      "SliceThickness": 2.0,
      "SmallestImagePixelValue": 0,
      "SoftwareVersions": "syngo MR E11",
      "SpacingBetweenSlices": 1.9999999939688,
      "SpecificCharacterSet": "ISO_IR 100",
      "StudyID": "1",
      "StudyTime": "104603.360000",
      "TransmitCoilName": "Body",
      "VariableFlipAngleFlag": "N",
      "WindowCenterWidthExplanation": "Algo1",
      "dBdt": 0.0},
    "slices": {}
  },
  "time": {
    "samples": {
      "AcquisitionNumber": [1, 2, 3, 4, 5, 6, 7, 8, 9, 10, 11, 12, 13, 14, 15, 16, 17, 18, 19, 20, 21, 22, 23, 24, 25, 26, 27, 28, 29, 30, 31, 32, 33, 34, 35, 36, 37, 38, 39, 40, 41, 42, 43, 44, 45, 46, 47, 48, 49, 50, 51, 52, 53, 54, 55, 56, 57, 58, 59, 60, 61, 62, 63, 64, 65, 66, 67, 68, 69, 70, 71, 72, 73, 74, 75, 76, 77, 78, 79, 80, 81, 82, 83, 84, 85, 86, 87, 88, 89, 90, 91, 92, 93, 94, 95, 96, 97, 98, 99, 100, 101, 102, 103, 104, 105, 106, 107, 108, 109, 110, 111, 112, 113, 114, 115, 116, 117, 118, 119, 120, 121, 122, 123, 124, 125, 126, 127, 128, 129, 130, 131, 132, 133, 134, 135, 136, 137, 138, 139],
      "AcquisitionTime": ["112756.012500", "112757.502500", "112758.992500", "112800.482500", "112801.972500", "112803.462500", "112804.952500", "112806.442500", "112807.932500", "112809.422500", "112810.912500", "112812.402500", "112813.892500", "112815.382500", "112816.872500", "112818.362500", "112819.852500", "112821.342500", "112822.832500", "112824.322500", "112825.812500", "112827.302500", "112828.792500", "112830.282500", "112831.772500", "112833.262500", "112834.752500", "112836.242500", "112837.732500", "112839.222500", "112840.712500", "112842.202500", "112843.692500", "112845.182500", "112846.672500", "112848.162500", "112849.652500", "112851.142500", "112852.632500", "112854.122500", "112855.612500", "112857.102500", "112858.592500", "112900.082500", "112901.572500", "112903.062500", "112904.552500", "112906.042500", "112907.532500", "112909.022500", "112910.512500", "112912.002500", "112913.492500", "112914.982500", "112916.472500", "112917.962500", "112919.452500", "112920.942500", "112922.432500", "112923.922500", "112925.412500", "112926.902500", "112928.392500", "112929.882500", "112931.372500", "112932.862500", "112934.352500", "112935.842500", "112937.332500", "112938.822500", "112940.312500", "112941.802500", "112943.292500", "112944.782500", "112946.272500", "112947.762500", "112949.252500", "112950.742500", "112952.232500", "112953.722500", "112955.212500", "112956.702500", "112958.192500", "112959.682500", "113001.172500", "113002.662500", "113004.152500", "113005.642500", "113007.132500", "113008.622500", "113010.112500", "113011.602500", "113013.092500", "113014.582500", "113016.072500", "113017.562500", "113019.052500", "113020.542500", "113022.032500", "113023.522500", "113025.012500", "113026.502500", "113027.992500", "113029.482500", "113030.972500", "113032.462500", "113033.952500", "113035.442500", "113036.932500", "113038.422500", "113039.912500", "113041.402500", "113042.892500", "113044.382500", "113045.872500", "113047.362500", "113048.852500", "113050.342500", "113051.832500", "113053.322500", "113054.812500", "113056.302500", "113057.792500", "113059.282500", "113100.772500", "113102.262500", "113103.752500", "113105.242500", "113106.732500", "113108.222500", "113109.712500", "113111.202500", "113112.692500", "113114.182500", "113115.672500", "113117.162500", "113118.652500", "113120.142500", "113121.632500"],
      "ContentTime": ["112918.361000", "112918.365000", "112918.368000", "112918.371000", "112918.374000", "112918.382000", "112918.390000", "112918.393000", "112918.395000", "112918.398000", "112918.401000", "112918.404000", "112918.407000", "112918.410000", "112918.413000", "112918.416000", "112918.436000", "112918.439000", "112918.442000", "112918.444000", "112918.447000", "112918.450000", "112918.453000", "112918.456000", "112918.459000", "112918.462000", "112918.465000", "112918.468000", "112918.471000", "112938.334000", "112938.337000", "112938.340000", "112938.343000", "112938.346000", "112938.349000", "112938.352000", "112938.354000", "112938.357000", "112938.360000", "112938.363000", "112938.366000", "112938.369000", "112938.372000", "112938.375000", "112938.378000", "112938.381000", "112938.384000", "112938.387000", "112938.389000", "112938.392000", "112958.334000", "112958.337000", "112958.340000", "112958.343000", "112958.346000", "112958.349000", "112958.352000", "112958.355000", "112958.357000", "112958.360000", "112958.363000", "112958.366000", "112958.369000", "112958.372000", "112958.375000", "112958.378000", "112958.381000", "112958.384000", "112958.386000", "112958.389000", "113018.334000", "113018.337000", "113018.340000", "113018.343000", "113018.346000", "113018.349000", "113018.352000", "113018.355000", "113018.358000", "113018.361000", "113018.364000", "113018.366000", "113018.369000", "113018.372000", "113018.375000", "113018.378000", "113018.381000", "113018.384000", "113018.387000", "113018.390000", "113058.333000", "113058.336000", "113058.339000", "113058.342000", "113058.345000", "113058.348000", "113058.351000", "113058.354000", "113058.357000", "113058.360000", "113058.363000", "113058.366000", "113058.369000", "113058.372000", "113058.375000", "113058.378000", "113058.381000", "113058.384000", "113058.387000", "113058.390000", "113058.393000", "113058.395000", "113058.398000", "113058.401000", "113058.404000", "113058.407000", "113058.410000", "113058.413000", "113058.416000", "113058.419000", "113058.422000", "113123.825000", "113123.828000", "113123.831000", "113123.834000", "113123.837000", "113123.840000", "113123.843000", "113123.846000", "113123.849000", "113123.852000", "113123.855000", "113123.859000", "113123.862000", "113123.865000", "113123.868000", "113123.871000", "113123.874000", "113123.877000"],
      "InstanceCreationTime": ["112918.361000", "112918.365000", "112918.368000", "112918.371000", "112918.374000", "112918.382000", "112918.390000", "112918.393000", "112918.395000", "112918.398000", "112918.401000", "112918.404000", "112918.407000", "112918.410000", "112918.413000", "112918.416000", "112918.436000", "112918.439000", "112918.442000", "112918.444000", "112918.447000", "112918.450000", "112918.453000", "112918.456000", "112918.459000", "112918.462000", "112918.465000", "112918.468000", "112918.471000", "112938.334000", "112938.337000", "112938.340000", "112938.343000", "112938.346000", "112938.349000", "112938.352000", "112938.354000", "112938.357000", "112938.360000", "112938.363000", "112938.366000", "112938.369000", "112938.372000", "112938.375000", "112938.378000", "112938.381000", "112938.384000", "112938.387000", "112938.389000", "112938.392000", "112958.334000", "112958.337000", "112958.340000", "112958.343000", "112958.346000", "112958.349000", "112958.352000", "112958.355000", "112958.357000", "112958.360000", "112958.363000", "112958.366000", "112958.369000", "112958.372000", "112958.375000", "112958.378000", "112958.381000", "112958.384000", "112958.386000", "112958.389000", "113018.334000", "113018.337000", "113018.340000", "113018.343000", "113018.346000", "113018.349000", "113018.352000", "113018.355000", "113018.358000", "113018.361000", "113018.364000", "113018.366000", "113018.369000", "113018.372000", "113018.375000", "113018.378000", "113018.381000", "113018.384000", "113018.387000", "113018.390000", "113058.333000", "113058.336000", "113058.339000", "113058.342000", "113058.345000", "113058.348000", "113058.351000", "113058.354000", "113058.357000", "113058.360000", "113058.363000", "113058.366000", "113058.369000", "113058.372000", "113058.375000", "113058.378000", "113058.381000", "113058.384000", "113058.387000", "113058.390000", "113058.393000", "113058.395000", "113058.398000", "113058.401000", "113058.404000", "113058.407000", "113058.410000", "113058.413000", "113058.416000", "113058.419000", "113058.422000", "113123.825000", "113123.828000", "113123.831000", "113123.834000", "113123.837000", "113123.840000", "113123.843000", "113123.846000", "113123.849000", "113123.852000", "113123.855000", "113123.859000", "113123.862000", "113123.865000", "113123.868000", "113123.871000", "113123.874000", "113123.877000"],
      "InstanceNumber": [1, 2, 3, 4, 5, 6, 7, 8, 9, 10, 11, 12, 13, 14, 15, 16, 17, 18, 19, 20, 21, 22, 23, 24, 25, 26, 27, 28, 29, 30, 31, 32, 33, 34, 35, 36, 37, 38, 39, 40, 41, 42, 43, 44, 45, 46, 47, 48, 49, 50, 51, 52, 53, 54, 55, 56, 57, 58, 59, 60, 61, 62, 63, 64, 65, 66, 67, 68, 69, 70, 71, 72, 73, 74, 75, 76, 77, 78, 79, 80, 81, 82, 83, 84, 85, 86, 87, 88, 89, 90, 91, 92, 93, 94, 95, 96, 97, 98, 99, 100, 101, 102, 103, 104, 105, 106, 107, 108, 109, 110, 111, 112, 113, 114, 115, 116, 117, 118, 119, 120, 121, 122, 123, 124, 125, 126, 127, 128, 129, 130, 131, 132, 133, 134, 135, 136, 137, 138, 139],
      "LargestImagePixelValue": [44194, 44003, 43160, 43479, 42611, 42667, 42787, 42641, 43125, 43421, 42559, 42609, 42697, 42850, 42769, 42445, 42692, 42682, 42897, 42931, 42923, 42971, 42978, 42752, 43014, 42547, 42830, 42948, 42744, 42809, 42967, 42448, 42724, 42631, 42706, 42585, 42907, 42583, 43264, 42578, 42612, 42689, 42428, 42674, 42800, 42987, 42173, 42568, 42240, 42931, 42542, 42687, 42388, 42318, 42047, 42642, 42794, 42493, 42105, 42217, 42863, 42496, 42814, 42298, 42898, 42479, 42884, 43085, 42781, 42451, 42217, 42420, 42608, 42964, 42874, 42519, 42533, 42307, 43003, 42510, 42744, 42428, 42473, 42440, 42114, 41938, 42456, 42544, 42375, 43063, 42877, 42727, 42576, 43155, 42699, 42951, 42573, 42634, 42882, 42358, 41041, 41290, 41433, 40952, 40560, 41003, 40779, 40397, 40788, 40490, 40303, 40225, 40012, 40088, 41082, 40809, 41142, 40936, 40953, 41241, 41746, 41614, 41775, 41767, 41671, 41247, 40740, 41538, 40710, 41258, 41025, 40990, 41469, 41673, 42155, 41951, 42061, 42186, 41920],
      "WindowCenter": [10875.0, 10834.0, 10805.0, 10817.0, 10806.0, 10805.0, 10802.0, 10796.0, 10815.0, 10834.0, 10840.0, 10843.0, 10841.0, 10834.0, 10840.0, 10840.0, 10835.0, 10832.0, 10829.0, 10819.0, 10820.0, 10841.0, 10851.0, 10849.0, 10831.0, 10808.0, 10800.0, 10800.0, 10794.0, 10800.0, 10798.0, 10785.0, 10788.0, 10790.0, 10787.0, 10784.0, 10783.0, 10784.0, 10791.0, 10785.0, 10785.0, 10778.0, 10776.0, 10769.0, 10780.0, 10781.0, 10784.0, 10794.0, 10788.0, 10792.0, 10776.0, 10765.0, 10748.0, 10739.0, 10741.0, 10763.0, 10780.0, 10782.0, 10776.0, 10769.0, 10771.0, 10763.0, 10769.0, 10768.0, 10783.0, 10787.0, 10793.0, 10790.0, 10774.0, 10771.0, 10766.0, 10765.0, 10775.0, 10790.0, 10791.0, 10785.0, 10777.0, 10760.0, 10768.0, 10770.0, 10780.0, 10781.0, 10774.0, 10765.0, 10758.0, 10760.0, 10772.0, 10774.0, 10776.0, 10782.0, 10781.0, 10782.0, 10777.0, 10783.0, 10784.0, 10791.0, 10790.0, 10784.0, 10787.0, 10781.0, 10777.0, 10765.0, 10758.0, 10750.0, 10746.0, 10763.0, 10753.0, 10753.0, 10751.0, 10766.0, 10778.0, 10783.0, 10761.0, 10759.0, 10764.0, 10759.0, 10758.0, 10759.0, 10766.0, 10767.0, 10771.0, 10782.0, 10788.0, 10786.0, 10779.0, 10755.0, 10749.0, 10768.0, 10775.0, 10782.0, 10774.0, 10760.0, 10759.0, 10754.0, 10766.0, 10770.0, 10788.0, 10789.0, 10778.0],
      "WindowWidth": [23309.0, 23188.0, 23103.0, 23119.0, 23091.0, 23084.0, 23076.0, 23063.0, 23103.0, 23146.0, 23166.0, 23173.0, 23167.0, 23151.0, 23162.0, 23164.0, 23153.0, 23144.0, 23135.0, 23114.0, 23116.0, 23167.0, 23188.0, 23182.0, 23138.0, 23087.0, 23067.0, 23069.0, 23057.0, 23069.0, 23062.0, 23034.0, 23039.0, 23045.0, 23043.0, 23036.0, 23034.0, 23037.0, 23052.0, 23039.0, 23039.0, 23025.0, 23019.0, 23006.0, 23024.0, 23025.0, 23035.0, 23056.0, 23044.0, 23049.0, 23014.0, 22988.0, 22953.0, 22933.0, 22939.0, 22985.0, 23022.0, 23026.0, 23016.0, 23002.0, 23004.0, 22987.0, 23000.0, 23002.0, 23035.0, 23045.0, 23057.0, 23046.0, 23012.0, 23004.0, 22995.0, 22994.0, 23015.0, 23043.0, 23049.0, 23035.0, 23018.0, 22982.0, 22993.0, 22999.0, 23020.0, 23023.0, 23010.0, 22990.0, 22976.0, 22981.0, 23005.0, 23012.0, 23016.0, 23031.0, 23028.0, 23030.0, 23021.0, 23034.0, 23036.0, 23048.0, 23046.0, 23032.0, 23033.0, 23024.0, 23026.0, 23000.0, 22985.0, 22976.0, 22956.0, 22996.0, 22971.0, 22971.0, 22964.0, 22996.0, 23028.0, 23046.0, 22996.0, 22993.0, 22993.0, 22985.0, 22982.0, 22985.0, 22998.0, 23001.0, 23008.0, 23033.0, 23046.0, 23038.0, 23030.0, 22972.0, 22961.0, 23000.0, 23019.0, 23032.0, 23012.0, 22983.0, 22975.0, 22967.0, 22989.0, 23000.0, 23048.0, 23041.0, 23016.0]
    },
    "slices": {}
  }
}