{
  "AcquisitionMatrixPE": 104,
  "AcquisitionNumber": 1,
  "AcquisitionTime": "11:02:56.272500",
  "BandwidthPerPixelPhaseEncode": 17.17,
  "BaseResolution": 104,
  "BodyPartExamined": "BRAIN",
  "CoilString": "HC1-7;NC1_2",
  "ConsistencyInfo": "N4_VE11C_LATEST_20160120",
  "ConversionSoftware": "dcm2niix",
  "ConversionSoftwareVersion": "v1.0.20190720  (JP2:OpenJPEG) GCC7.3.0",
  "DerivedVendorReportedEchoSpacing": 0.000560011,
  "DeviceSerialNumber": "167006",
  "DwellTime": 2.1e-06,
  "EchoTime": 0.037,
  "EchoTrainLength": 104,
  "EffectiveEchoSpacing": 0.000560011,
  "FlipAngle": 52,
  "ImageComments": "Unaliased_MB4_PE3_LB",
  "ImageOrientationPatientDICOM": [0.999786, 0.0195556, -0.00678038, -0.0204188, 0.878287, -0.477697],
  "ImageType": [
    "ORIGINAL",
    "PRIMARY",
    "M",
    "MB",
    "ND",
    "MOSAIC"
],
  "ImagingFrequency": 123.26,
  "InPlanePhaseEncodingDirectionDICOM": "COL",
  "InstitutionAddress": "Chemin_Queen-Mary_4565_Montreal_District_CA_H3W_1W5",
  "InstitutionName": "IUGM",
  "InstitutionalDepartmentName": "Department",
  "MRAcquisitionType": "2D",
  "MagneticFieldStrength": 3,
  "Manufacturer": "Siemens",
  "ManufacturersModelName": "Prisma_fit",
  "Modality": "MR",
  "MultibandAccelerationFactor": 4,
  "PartialFourier": 1,
  "PatientPosition": "HFS",
  "PercentPhaseFOV": 100,
  "PhaseEncodingDirection": "j",
  "PhaseEncodingSteps": 104,
  "PhaseResolution": 1,
  "PixelBandwidth": 2290,
  "ProcedureStepDescription": "hcptrt_generic",
  "ProtocolName": "func_task-gambling_run-1",
  "PulseSequenceDetails": "%CustomerSeq%_cmrr_mbep2d_bold",
  "ReceiveCoilActiveElements": "HC1-7;NC1,2",
  "ReceiveCoilName": "HeadNeck_64",
  "ReconMatrixPE": 104,
  "RepetitionTime": 1.49,
  "SAR": 0.0383494,
  "ScanOptions": "FS",
  "ScanningSequence": "EP",
  "SequenceName": "epfid2d1_104",
  "SequenceVariant": "SK_SS",
  "SeriesDescription": "func_task-gambling_run-1",
  "SeriesNumber": 9,
  "ShimSetting": [620, -7190, -8872, 394, -20, -168, -12, -25],
  "SliceThickness": 2,
  "SliceTiming": [0, 0.7825, 0.0975, 0.88, 0.195, 0.98, 0.2925, 1.0775, 0.39, 1.175, 0.49, 1.2725, 0.5875, 1.37, 0.685, 0, 0.7825, 0.0975, 0.88, 0.195, 0.98, 0.2925, 1.0775, 0.39, 1.175, 0.49, 1.2725, 0.5875, 1.37, 0.685, 0, 0.7825, 0.0975, 0.88, 0.195, 0.98, 0.2925, 1.0775, 0.39, 1.175, 0.49, 1.2725, 0.5875, 1.37, 0.685, 0, 0.7825, 0.0975, 0.88, 0.195, 0.98, 0.2925, 1.0775, 0.39, 1.175, 0.49, 1.2725, 0.5875, 1.37, 0.685],
  "SoftwareVersions": "syngo_MR_E11",
  "SpacingBetweenSlices": 2,
  "StationName": "MRC35049",
  "TaskName": "gambling",
  "TotalReadoutTime": 0.0576811,
  "TxRefAmp": 250.658,
  "WipMemBlock": "71b2902d-0a93-4dc4-ae18-ee2450e5a8af||Sequence: R016 ve11c/master r/e634e98; Dec 19 2017 11:00:25 by eja",
  "dcmmeta_affine": [
    [-1.9995715618133545, -0.0408376045525074, 0.006773093715310097, 105.83251190185547],
    [-0.03911126032471657, 1.7565746307373047, -0.9554663300514221, -57.9269905090332],
    [-0.013560755178332329, 0.9553940892219543, 1.756996989250183, -96.5040512084961],
    [0.0, 0.0, 0.0, 1.0]
],
  "dcmmeta_reorient_transform": [
    [0.0, -1.0, 0.0, 103.0],
    [1.0, 0.0, 0.0, 0.0],
    [0.0, 0.0, 1.0, 0.0],
    [0.0, 0.0, 0.0, 1.0]
],
  "dcmmeta_shape": [104, 104, 60, 129],
  "dcmmeta_slice_dim": 2,
  "dcmmeta_version": 0.6,
  "global": {
    "const": {
      "AcquisitionMatrix": [104, 0, 0, 104],
      "AngioFlag": "N",
      "BitsAllocated": 16,
      "BitsStored": 16,
      "BodyPartExamined": "BRAIN",
      "Columns": 832,
      "EchoNumbers": 1,
      "EchoTime": 37.0,
      "EchoTrainLength": 104,
      "FlipAngle": 52.0,
      "HighBit": 15,
      "ImageOrientationPatient": [0.99978577896631, 0.01955562984009, -0.0067803774449, -0.0204188020359, 0.87828731756815, -0.4776970382181],
      "ImagePositionPatient": [-814.60539750874, -776.62986303589, 354.60109423104],
      "ImageType": [
        "ORIGINAL",
        "PRIMARY",
        "M",
        "MB",
        "ND",
        "MOSAIC"
],
      "ImagedNucleus": "1H",
      "ImagingFrequency": 123.259538,
      "InPlanePhaseEncodingDirection": "COL",
      "MRAcquisitionType": "2D",
      "MagneticFieldStrength": 3.0,
      "Manufacturer": "SIEMENS",
      "ManufacturerModelName": "Prisma_fit",
      "Modality": "MR",
      "NumberOfAverages": 1.0,
      "NumberOfPhaseEncodingSteps": 104,
      "PercentPhaseFieldOfView": 100.0,
      "PercentSampling": 100.0,
      "PerformedProcedureStepStartTime": "104603.426000",
      "PhotometricInterpretation": "MONOCHROME2",
      "PixelBandwidth": 2290.0,
      "PixelRepresentation": 0,
      "PixelSpacing": [2.0, 2.0],
      "ProtocolName": "func_task-gambling_run-1",
      "RepetitionTime": 1490.0,
      "Rows": 832,
      "SAR": 0.03834941197962,
      "SamplesPerPixel": 1,
      "ScanOptions": "FS",
      "ScanningSequence": "EP",
      "SequenceName": "epfid2d1_104",
      "SequenceVariant": [
        "SK",
        "SS"
],
      "SeriesDescription": "func_task-gambling_run-1",
      "SeriesNumber": 9,
      "SeriesTime": "110418.375000",
      "SliceLocation": -56.746613872555,
      "SliceThickness": 2.0,
      "SmallestImagePixelValue": 0,
      "SoftwareVersions": "syngo MR E11",
      "SpacingBetweenSlices": 1.9999999939688,
      "SpecificCharacterSet": "ISO_IR 100",
      "StudyID": "1",
      "StudyTime": "104603.360000",
      "TransmitCoilName": "Body",
      "VariableFlipAngleFlag": "N",
      "WindowCenterWidthExplanation": "Algo1",
      "dBdt": 0.0},
    "slices": {}
  },
  "time": {
    "samples": {
      "AcquisitionNumber": [1, 2, 3, 4, 5, 6, 7, 8, 9, 10, 11, 12, 13, 14, 15, 16, 17, 18, 19, 20, 21, 22, 23, 24, 25, 26, 27, 28, 29, 30, 31, 32, 33, 34, 35, 36, 37, 38, 39, 40, 41, 42, 43, 44, 45, 46, 47, 48, 49, 50, 51, 52, 53, 54, 55, 56, 57, 58, 59, 60, 61, 62, 63, 64, 65, 66, 67, 68, 69, 70, 71, 72, 73, 74, 75, 76, 77, 78, 79, 80, 81, 82, 83, 84, 85, 86, 87, 88, 89, 90, 91, 92, 93, 94, 95, 96, 97, 98, 99, 100, 101, 102, 103, 104, 105, 106, 107, 108, 109, 110, 111, 112, 113, 114, 115, 116, 117, 118, 119, 120, 121, 122, 123, 124, 125, 126, 127, 128, 129],
      "AcquisitionTime": ["110256.272500", "110257.762500", "110259.252500", "110300.742500", "110302.232500", "110303.722500", "110305.212500", "110306.702500", "110308.192500", "110309.682500", "110311.172500", "110312.662500", "110314.152500", "110315.642500", "110317.132500", "110318.622500", "110320.112500", "110321.602500", "110323.092500", "110324.582500", "110326.072500", "110327.562500", "110329.052500", "110330.542500", "110332.032500", "110333.522500", "110335.012500", "110336.502500", "110337.992500", "110339.482500", "110340.972500", "110342.462500", "110343.952500", "110345.442500", "110346.932500", "110348.422500", "110349.912500", "110351.402500", "110352.892500", "110354.382500", "110355.872500", "110357.362500", "110358.852500", "110400.342500", "110401.832500", "110403.322500", "110404.812500", "110406.302500", "110407.792500", "110409.282500", "110410.772500", "110412.262500", "110413.752500", "110415.242500", "110416.732500", "110418.222500", "110419.712500", "110421.202500", "110422.692500", "110424.182500", "110425.672500", "110427.162500", "110428.652500", "110430.142500", "110431.632500", "110433.122500", "110434.612500", "110436.102500", "110437.592500", "110439.082500", "110440.572500", "110442.062500", "110443.552500", "110445.042500", "110446.532500", "110448.022500", "110449.512500", "110451.002500", "110452.492500", "110453.982500", "110455.472500", "110456.962500", "110458.452500", "110459.942500", "110501.432500", "110502.922500", "110504.412500", "110505.902500", "110507.392500", "110508.882500", "110510.372500", "110511.862500", "110513.352500", "110514.842500", "110516.332500", "110517.822500", "110519.312500", "110520.802500", "110522.292500", "110523.782500", "110525.272500", "110526.762500", "110528.252500", "110529.742500", "110531.232500", "110532.722500", "110534.212500", "110535.702500", "110537.192500", "110538.682500", "110540.172500", "110541.662500", "110543.152500", "110544.642500", "110546.132500", "110547.622500", "110549.112500", "110550.602500", "110552.092500", "110553.582500", "110555.072500", "110556.562500", "110558.052500", "110559.542500", "110601.032500", "110602.522500", "110604.012500", "110605.502500", "110606.992500"],
      "ContentTime": ["110418.378000", "110418.381000", "110418.384000", "110418.387000", "110418.390000", "110418.393000", "110418.396000", "110418.399000", "110418.402000", "110418.410000", "110418.413000", "110418.416000", "110418.419000", "110418.422000", "110418.425000", "110418.428000", "110418.431000", "110418.434000", "110418.437000", "110418.440000", "110418.443000", "110418.446000", "110418.448000", "110418.451000", "110418.454000", "110418.457000", "110418.460000", "110438.334000", "110438.337000", "110438.340000", "110438.343000", "110438.346000", "110438.349000", "110438.357000", "110438.360000", "110438.363000", "110438.366000", "110438.369000", "110438.372000", "110438.375000", "110438.378000", "110438.381000", "110438.384000", "110438.386000", "110438.389000", "110438.392000", "110438.395000", "110458.334000", "110458.337000", "110458.340000", "110458.343000", "110458.346000", "110458.349000", "110458.352000", "110458.355000", "110458.358000", "110458.361000", "110458.363000", "110458.366000", "110458.369000", "110458.372000", "110458.375000", "110458.384000", "110458.387000", "110458.390000", "110458.393000", "110458.396000", "110518.334000", "110518.337000", "110518.340000", "110518.343000", "110518.346000", "110518.349000", "110518.352000", "110518.355000", "110518.358000", "110518.361000", "110518.376000", "110518.379000", "110518.382000", "110518.384000", "110518.387000", "110518.403000", "110518.406000", "110518.409000", "110518.412000", "110518.415000", "110538.333000", "110538.336000", "110538.339000", "110538.342000", "110538.345000", "110538.348000", "110538.351000", "110538.353000", "110538.356000", "110538.359000", "110538.362000", "110538.365000", "110538.368000", "110538.371000", "110538.374000", "110538.377000", "110538.380000", "110538.383000", "110538.386000", "110538.389000", "110609.273000", "110609.276000", "110609.279000", "110609.282000", "110609.285000", "110609.288000", "110609.300000", "110609.303000", "110609.306000", "110609.309000", "110609.312000", "110609.315000", "110609.318000", "110609.321000", "110609.324000", "110609.327000", "110609.330000", "110609.333000", "110609.336000", "110609.338000", "110609.348000", "110609.351000"],
      "InstanceCreationTime": ["110418.378000", "110418.381000", "110418.384000", "110418.387000", "110418.390000", "110418.393000", "110418.396000", "110418.399000", "110418.402000", "110418.410000", "110418.413000", "110418.416000", "110418.419000", "110418.422000", "110418.425000", "110418.428000", "110418.431000", "110418.434000", "110418.437000", "110418.440000", "110418.443000", "110418.446000", "110418.448000", "110418.451000", "110418.454000", "110418.457000", "110418.460000", "110438.334000", "110438.337000", "110438.340000", "110438.343000", "110438.346000", "110438.349000", "110438.357000", "110438.360000", "110438.363000", "110438.366000", "110438.369000", "110438.372000", "110438.375000", "110438.378000", "110438.381000", "110438.384000", "110438.386000", "110438.389000", "110438.392000", "110438.395000", "110458.334000", "110458.337000", "110458.340000", "110458.343000", "110458.346000", "110458.349000", "110458.352000", "110458.355000", "110458.358000", "110458.361000", "110458.363000", "110458.366000", "110458.369000", "110458.372000", "110458.375000", "110458.384000", "110458.387000", "110458.390000", "110458.393000", "110458.396000", "110518.334000", "110518.337000", "110518.340000", "110518.343000", "110518.346000", "110518.349000", "110518.352000", "110518.355000", "110518.358000", "110518.361000", "110518.376000", "110518.379000", "110518.382000", "110518.384000", "110518.387000", "110518.403000", "110518.406000", "110518.409000", "110518.412000", "110518.415000", "110538.333000", "110538.336000", "110538.339000", "110538.342000", "110538.345000", "110538.348000", "110538.351000", "110538.353000", "110538.356000", "110538.359000", "110538.362000", "110538.365000", "110538.368000", "110538.371000", "110538.374000", "110538.377000", "110538.380000", "110538.383000", "110538.386000", "110538.389000", "110609.273000", "110609.276000", "110609.279000", "110609.282000", "110609.285000", "110609.288000", "110609.300000", "110609.303000", "110609.306000", "110609.309000", "110609.312000", "110609.315000", "110609.318000", "110609.321000", "110609.324000", "110609.327000", "110609.330000", "110609.333000", "110609.336000", "110609.338000", "110609.348000", "110609.351000"],
      "InstanceNumber": [1, 2, 3, 4, 5, 6, 7, 8, 9, 10, 11, 12, 13, 14, 15, 16, 17, 18, 19, 20, 21, 22, 23, 24, 25, 26, 27, 28, 29, 30, 31, 32, 33, 34, 35, 36, 37, 38, 39, 40, 41, 42, 43, 44, 45, 46, 47, 48, 49, 50, 51, 52, 53, 54, 55, 56, 57, 58, 59, 60, 61, 62, 63, 64, 65, 66, 67, 68, 69, 70, 71, 72, 73, 74, 75, 76, 77, 78, 79, 80, 81, 82, 83, 84, 85, 86, 87, 88, 89, 90, 91, 92, 93, 94, 95, 96, 97, 98, 99, 100, 101, 102, 103, 104, 105, 106, 107, 108, 109, 110, 111, 112, 113, 114, 115, 116, 117, 118, 119, 120, 121, 122, 123, 124, 125, 126, 127, 128, 129],
      "LargestImagePixelValue": [43565, 43325, 41940, 40997, 40034, 40024, 40235, 40401, 40605, 40878, 40797, 40734, 41724, 41468, 40755, 40820, 39925, 42111, 40722, 41880, 41217, 41980, 41327, 41291, 41071, 41131, 41008, 41506, 41812, 41239, 41558, 41260, 41750, 41262, 41468, 41885, 41163, 41791, 41317, 41462, 41455, 41604, 41470, 41374, 41008, 41590, 41517, 41322, 41532, 41216, 41669, 41608, 41701, 41322, 41601, 41384, 41363, 41800, 41761, 41564, 41716, 41830, 41740, 41259, 41759, 41045, 41259, 41771, 41247, 41326, 41247, 41423, 41172, 41476, 41310, 41394, 41074, 41427, 40519, 41158, 41081, 40452, 41296, 40261, 40643, 40330, 40175, 42368, 43367, 42331, 41213, 40611, 40119, 40488, 40455, 41436, 41233, 41664, 41434, 41468, 41599, 41663, 41867, 40802, 41688, 41185, 41524, 41106, 40594, 40910, 40743, 40911, 40951, 40456, 40826, 40701, 40948, 40824, 41177, 41098, 41527, 40906, 40989, 41044, 41610, 41467, 41684, 41802, 41574],
      "WindowCenter": [10894.0, 10833.0, 10798.0, 10838.0, 10859.0, 10849.0, 10824.0, 10801.0, 10798.0, 10797.0, 10806.0, 10813.0, 10832.0, 10841.0, 10833.0, 10850.0, 10856.0, 10882.0, 10865.0, 10881.0, 10884.0, 10889.0, 10885.0, 10883.0, 10871.0, 10861.0, 10843.0, 10838.0, 10842.0, 10848.0, 10854.0, 10856.0, 10847.0, 10829.0, 10827.0, 10830.0, 10834.0, 10852.0, 10857.0, 10854.0, 10852.0, 10834.0, 10824.0, 10816.0, 10817.0, 10825.0, 10833.0, 10836.0, 10832.0, 10828.0, 10825.0, 10825.0, 10822.0, 10818.0, 10822.0, 10819.0, 10815.0, 10833.0, 10832.0, 10819.0, 10817.0, 10821.0, 10817.0, 10815.0, 10833.0, 10830.0, 10817.0, 10811.0, 10807.0, 10824.0, 10826.0, 10820.0, 10811.0, 10810.0, 10794.0, 10802.0, 10819.0, 10830.0, 10834.0, 10838.0, 10826.0, 10819.0, 10824.0, 10820.0, 10826.0, 10818.0, 10830.0, 10880.0, 10850.0, 10796.0, 10790.0, 10826.0, 10846.0, 10836.0, 10807.0, 10802.0, 10801.0, 10805.0, 10817.0, 10832.0, 10840.0, 10834.0, 10837.0, 10828.0, 10848.0, 10854.0, 10862.0, 10861.0, 10860.0, 10856.0, 10847.0, 10836.0, 10836.0, 10826.0, 10843.0, 10841.0, 10848.0, 10837.0, 10826.0, 10809.0, 10817.0, 10809.0, 10818.0, 10813.0, 10821.0, 10821.0, 10824.0, 10818.0, 10805.0],
      "WindowWidth": [23361.0, 23187.0, 23089.0, 23178.0, 23229.0, 23205.0, 23137.0, 23078.0, 23070.0, 23067.0, 23092.0, 23107.0, 23146.0, 23167.0, 23156.0, 23192.0, 23214.0, 23262.0, 23230.0, 23259.0, 23269.0, 23276.0, 23273.0, 23265.0, 23240.0, 23215.0, 23173.0, 23160.0, 23165.0, 23180.0, 23194.0, 23199.0, 23180.0, 23140.0, 23133.0, 23137.0, 23149.0, 23190.0, 23203.0, 23195.0, 23188.0, 23148.0, 23125.0, 23107.0, 23113.0, 23130.0, 23149.0, 23153.0, 23144.0, 23135.0, 23128.0, 23129.0, 23120.0, 23113.0, 23117.0, 23115.0, 23104.0, 23146.0, 23141.0, 23114.0, 23108.0, 23114.0, 23107.0, 23101.0, 23140.0, 23136.0, 23107.0, 23091.0, 23082.0, 23120.0, 23123.0, 23110.0, 23089.0, 23087.0, 23052.0, 23070.0, 23109.0, 23133.0, 23144.0, 23150.0, 23126.0, 23109.0, 23119.0, 23115.0, 23127.0, 23113.0, 23139.0, 23252.0, 23178.0, 23057.0, 23044.0, 23129.0, 23179.0, 23151.0, 23080.0, 23066.0, 23062.0, 23072.0, 23105.0, 23138.0, 23157.0, 23143.0, 23146.0, 23133.0, 23172.0, 23189.0, 23208.0, 23209.0, 23208.0, 23193.0, 23177.0, 23150.0, 23152.0, 23130.0, 23168.0, 23162.0, 23177.0, 23153.0, 23125.0, 23087.0, 23104.0, 23090.0, 23108.0, 23097.0, 23117.0, 23111.0, 23121.0, 23103.0, 23079.0]
    },
    "slices": {}
  }
}