{
  "AcquisitionMatrixPE": 104,
  "AcquisitionNumber": 1,
  "AcquisitionTime": "15:56:52.112500",
  "BandwidthPerPixelPhaseEncode": 17.17,
  "BaseResolution": 104,
  "BodyPartExamined": "BRAIN",
  "CoilString": "HC1-7;NC1_2",
  "ConsistencyInfo": "N4_VE11C_LATEST_20160120",
  "ConversionSoftware": "dcm2niix",
  "ConversionSoftwareVersion": "v1.0.20190720  (JP2:OpenJPEG) GCC7.3.0",
  "DerivedVendorReportedEchoSpacing": 0.000560011,
  "DeviceSerialNumber": "167006",
  "DwellTime": 2.1e-06,
  "EchoTime": 0.037,
  "EchoTrainLength": 104,
  "EffectiveEchoSpacing": 0.000560011,
  "FlipAngle": 52,
  "ImageComments": "Unaliased_MB4_PE3_LB",
  "ImageOrientationPatientDICOM": [0.995736, 0.087498, 0.0292249, -0.073297, 0.942773, -0.325279],
  "ImageType": [
    "ORIGINAL",
    "PRIMARY",
    "M",
    "MB",
    "ND",
    "MOSAIC"
],
  "ImagingFrequency": 123.26,
  "InPlanePhaseEncodingDirectionDICOM": "COL",
  "InstitutionAddress": "Chemin_Queen-Mary_4565_Montreal_District_CA_H3W_1W5",
  "InstitutionName": "IUGM",
  "InstitutionalDepartmentName": "Department",
  "MRAcquisitionType": "2D",
  "MagneticFieldStrength": 3,
  "Manufacturer": "Siemens",
  "ManufacturersModelName": "Prisma_fit",
  "Modality": "MR",
  "MultibandAccelerationFactor": 4,
  "PartialFourier": 1,
  "PatientPosition": "HFS",
  "PercentPhaseFOV": 100,
  "PhaseEncodingDirection": "j",
  "PhaseEncodingSteps": 104,
  "PhaseResolution": 1,
  "PixelBandwidth": 2290,
  "ProcedureStepDescription": "hcptrt_generic",
  "ProtocolName": "func_task-language_run-1",
  "PulseSequenceDetails": "%CustomerSeq%_cmrr_mbep2d_bold",
  "ReceiveCoilActiveElements": "HC1-7;NC1,2",
  "ReceiveCoilName": "HeadNeck_64",
  "ReconMatrixPE": 104,
  "RepetitionTime": 1.49,
  "SAR": 0.0373033,
  "ScanOptions": "FS",
  "ScanningSequence": "EP",
  "SequenceName": "epfid2d1_104",
  "SequenceVariant": "SK_SS",
  "SeriesDescription": "func_task-language_run-1",
  "SeriesNumber": 23,
  "ShimSetting": [636, -7197, -8846, 721, 110, 16, -29, -4],
  "SliceThickness": 2,
  "SliceTiming": [0, 0.785, 0.1, 0.8825, 0.1975, 0.98, 0.295, 1.08, 0.3925, 1.1775, 0.49, 1.275, 0.59, 1.3725, 0.6875, 0, 0.785, 0.1, 0.8825, 0.1975, 0.98, 0.295, 1.08, 0.3925, 1.1775, 0.49, 1.275, 0.59, 1.3725, 0.6875, 0, 0.785, 0.1, 0.8825, 0.1975, 0.98, 0.295, 1.08, 0.3925, 1.1775, 0.49, 1.275, 0.59, 1.3725, 0.6875, 0, 0.785, 0.1, 0.8825, 0.1975, 0.98, 0.295, 1.08, 0.3925, 1.1775, 0.49, 1.275, 0.59, 1.3725, 0.6875],
  "SoftwareVersions": "syngo_MR_E11",
  "SpacingBetweenSlices": 2,
  "StationName": "MRC35049",
  "TaskName": "language",
  "TotalReadoutTime": 0.0576811,
  "TxRefAmp": 249.029,
  "WipMemBlock": "13cdd35c-acea-41a8-97da-811c0e46994c||Sequence: R016 ve11c/master r/e634e98; Dec 19 2017 11:00:25 by eja",
  "dcmmeta_affine": [
    [-1.991471767425537, -0.1465940773487091, 0.11202745139598846, 110.2690200805664],
    [-0.17499597370624542, 1.885546088218689, -0.6435002088546753, -52.006839752197266],
    [0.05844980105757713, 0.6505584120750427, 1.890332579612732, -68.66020202636719],
    [0.0, 0.0, 0.0, 1.0]
],
  "dcmmeta_reorient_transform": [
    [0.0, -1.0, 0.0, 103.0],
    [1.0, 0.0, 0.0, 0.0],
    [0.0, 0.0, 1.0, 0.0],
    [0.0, 0.0, 0.0, 1.0]
],
  "dcmmeta_shape": [104, 104, 60, 159],
  "dcmmeta_slice_dim": 2,
  "dcmmeta_version": 0.6,
  "global": {
    "const": {
      "AcquisitionMatrix": [104, 0, 0, 104],
      "AngioFlag": "N",
      "BitsAllocated": 16,
      "BitsStored": 16,
      "BodyPartExamined": "BRAIN",
      "Columns": 832,
      "EchoNumbers": 1,
      "EchoTime": 37.0,
      "EchoTrainLength": 104,
      "FlipAngle": 52.0,
      "HighBit": 15,
      "ImageOrientationPatient": [0.99573591222867, 0.08749798992107, 0.02922490133268, -0.0732970373283, 0.9427730287731, -0.3252792039724],
      "ImagePositionPatient": [-766.70533346129, -892.24170474715, 213.87484276008],
      "ImageType": [
        "ORIGINAL",
        "PRIMARY",
        "M",
        "MB",
        "ND",
        "MOSAIC"
],
      "ImagedNucleus": "1H",
      "ImagingFrequency": 123.259587,
      "InPlanePhaseEncodingDirection": "COL",
      "MRAcquisitionType": "2D",
      "MagneticFieldStrength": 3.0,
      "Manufacturer": "SIEMENS",
      "ManufacturerModelName": "Prisma_fit",
      "Modality": "MR",
      "NumberOfAverages": 1.0,
      "NumberOfPhaseEncodingSteps": 104,
      "PercentPhaseFieldOfView": 100.0,
      "PercentSampling": 100.0,
      "PerformedProcedureStepStartTime": "145216.338000",
      "PhotometricInterpretation": "MONOCHROME2",
      "PixelBandwidth": 2290.0,
      "PixelRepresentation": 0,
      "PixelSpacing": [2.0, 2.0],
      "ProtocolName": "func_task-language_run-1",
      "RepetitionTime": 1490.0,
      "Rows": 832,
      "SAR": 0.0373033241088,
      "SamplesPerPixel": 1,
      "ScanOptions": "FS",
      "ScanningSequence": "EP",
      "SequenceName": "epfid2d1_104",
      "SequenceVariant": [
        "SK",
        "SS"
],
      "SeriesDescription": "func_task-language_run-1",
      "SeriesNumber": 23,
      "SeriesTime": "155812.735000",
      "SliceLocation": -41.985528603896,
      "SliceThickness": 2.0,
      "SmallestImagePixelValue": 0,
      "SoftwareVersions": "syngo MR E11",
      "SpacingBetweenSlices": 2.0000000251884,
      "SpecificCharacterSet": "ISO_IR 100",
      "StudyID": "1",
      "StudyTime": "145216.282000",
      "TransmitCoilName": "Body",
      "VariableFlipAngleFlag": "N",
      "WindowCenterWidthExplanation": "Algo1",
      "dBdt": 0.0},
    "slices": {}
  },
  "time": {
    "samples": {
      "AcquisitionNumber": [1, 2, 3, 4, 5, 6, 7, 8, 9, 10, 11, 12, 13, 14, 15, 16, 17, 18, 19, 20, 21, 22, 23, 24, 25, 26, 27, 28, 29, 30, 31, 32, 33, 34, 35, 36, 37, 38, 39, 40, 41, 42, 43, 44, 45, 46, 47, 48, 49, 50, 51, 52, 53, 54, 55, 56, 57, 58, 59, 60, 61, 62, 63, 64, 65, 66, 67, 68, 69, 70, 71, 72, 73, 74, 75, 76, 77, 78, 79, 80, 81, 82, 83, 84, 85, 86, 87, 88, 89, 90, 91, 92, 93, 94, 95, 96, 97, 98, 99, 100, 101, 102, 103, 104, 105, 106, 107, 108, 109, 110, 111, 112, 113, 114, 115, 116, 117, 118, 119, 120, 121, 122, 123, 124, 125, 126, 127, 128, 129, 130, 131, 132, 133, 134, 135, 136, 137, 138, 139, 140, 141, 142, 143, 144, 145, 146, 147, 148, 149, 150, 151, 152, 153, 154, 155, 156, 157, 158, 159],
      "AcquisitionTime": ["155652.112500", "155653.602500", "155655.092500", "155656.582500", "155658.072500", "155659.562500", "155701.052500", "155702.542500", "155704.032500", "155705.522500", "155707.012500", "155708.502500", "155709.992500", "155711.482500", "155712.972500", "155714.462500", "155715.952500", "155717.442500", "155718.932500", "155720.422500", "155721.912500", "155723.402500", "155724.892500", "155726.382500", "155727.872500", "155729.362500", "155730.852500", "155732.342500", "155733.832500", "155735.322500", "155736.812500", "155738.302500", "155739.792500", "155741.282500", "155742.772500", "155744.262500", "155745.752500", "155747.242500", "155748.732500", "155750.222500", "155751.712500", "155753.202500", "155754.692500", "155756.182500", "155757.672500", "155759.162500", "155800.652500", "155802.142500", "155803.632500", "155805.122500", "155806.612500", "155808.102500", "155809.592500", "155811.082500", "155812.572500", "155814.062500", "155815.552500", "155817.042500", "155818.532500", "155820.022500", "155821.512500", "155823.002500", "155824.492500", "155825.982500", "155827.472500", "155828.962500", "155830.452500", "155831.942500", "155833.432500", "155834.922500", "155836.412500", "155837.902500", "155839.392500", "155840.882500", "155842.372500", "155843.862500", "155845.352500", "155846.842500", "155848.332500", "155849.822500", "155851.312500", "155852.802500", "155854.292500", "155855.782500", "155857.272500", "155858.762500", "155900.252500", "155901.742500", "155903.232500", "155904.722500", "155906.212500", "155907.702500", "155909.192500", "155910.682500", "155912.172500", "155913.662500", "155915.152500", "155916.642500", "155918.132500", "155919.622500", "155921.112500", "155922.602500", "155924.092500", "155925.582500", "155927.072500", "155928.562500", "155930.052500", "155931.542500", "155933.032500", "155934.522500", "155936.012500", "155937.502500", "155938.992500", "155940.482500", "155941.972500", "155943.462500", "155944.952500", "155946.442500", "155947.932500", "155949.422500", "155950.912500", "155952.402500", "155953.892500", "155955.382500", "155956.872500", "155958.362500", "155959.852500", "160001.342500", "160002.832500", "160004.322500", "160005.812500", "160007.302500", "160008.792500", "160010.282500", "160011.772500", "160013.262500", "160014.752500", "160016.242500", "160017.732500", "160019.222500", "160020.712500", "160022.202500", "160023.692500", "160025.182500", "160026.672500", "160028.162500", "160029.652500", "160031.142500", "160032.632500", "160034.122500", "160035.612500", "160037.102500", "160038.592500", "160040.082500", "160041.572500", "160043.062500", "160044.552500", "160046.042500", "160047.532500"],
      "ContentTime": ["155812.737000", "155812.741000", "155812.745000", "155812.760000", "155812.763000", "155812.774000", "155812.777000", "155812.780000", "155812.783000", "155812.786000", "155812.789000", "155812.792000", "155812.795000", "155812.797000", "155812.800000", "155812.803000", "155812.806000", "155812.809000", "155812.812000", "155812.815000", "155812.818000", "155812.821000", "155812.824000", "155812.827000", "155812.830000", "155812.833000", "155812.835000", "155832.700000", "155832.703000", "155832.708000", "155832.711000", "155832.714000", "155832.717000", "155832.720000", "155832.723000", "155832.732000", "155832.735000", "155832.738000", "155832.741000", "155832.744000", "155832.747000", "155832.750000", "155832.753000", "155832.756000", "155832.759000", "155832.762000", "155832.765000", "155832.767000", "155852.699000", "155852.702000", "155852.705000", "155852.713000", "155852.716000", "155852.719000", "155852.722000", "155852.725000", "155852.728000", "155852.731000", "155852.734000", "155852.737000", "155852.739000", "155852.742000", "155852.745000", "155852.748000", "155852.751000", "155852.754000", "155852.757000", "155852.760000", "155912.699000", "155912.702000", "155912.705000", "155912.708000", "155912.711000", "155912.714000", "155912.717000", "155912.720000", "155912.723000", "155912.726000", "155912.729000", "155912.731000", "155912.734000", "155912.737000", "155912.740000", "155912.743000", "155912.746000", "155912.749000", "155912.752000", "155912.755000", "155952.700000", "155952.703000", "155952.706000", "155952.709000", "155952.712000", "155952.715000", "155952.718000", "155952.721000", "155952.724000", "155952.727000", "155952.730000", "155952.733000", "155952.736000", "155952.739000", "155952.742000", "155952.745000", "155952.748000", "155952.751000", "155952.753000", "155952.756000", "155952.759000", "155952.762000", "155952.765000", "155952.768000", "155952.771000", "155952.774000", "155952.777000", "155952.780000", "155952.783000", "155952.786000", "155952.789000", "155952.792000", "155952.795000", "160032.700000", "160032.703000", "160032.706000", "160032.709000", "160032.712000", "160032.715000", "160032.718000", "160032.721000", "160032.724000", "160032.727000", "160032.731000", "160032.734000", "160032.737000", "160032.740000", "160032.744000", "160032.747000", "160032.750000", "160032.753000", "160032.755000", "160032.758000", "160032.761000", "160032.764000", "160032.767000", "160032.770000", "160032.773000", "160032.776000", "160049.342000", "160049.346000", "160049.349000", "160049.352000", "160049.355000", "160049.358000", "160049.361000", "160049.364000", "160049.367000", "160049.370000", "160049.373000", "160049.376000"],
      "InstanceCreationTime": ["155812.737000", "155812.741000", "155812.745000", "155812.760000", "155812.763000", "155812.774000", "155812.777000", "155812.780000", "155812.783000", "155812.786000", "155812.789000", "155812.792000", "155812.795000", "155812.797000", "155812.800000", "155812.803000", "155812.806000", "155812.809000", "155812.812000", "155812.815000", "155812.818000", "155812.821000", "155812.824000", "155812.827000", "155812.830000", "155812.833000", "155812.835000", "155832.700000", "155832.703000", "155832.708000", "155832.711000", "155832.714000", "155832.717000", "155832.720000", "155832.723000", "155832.732000", "155832.735000", "155832.738000", "155832.741000", "155832.744000", "155832.747000", "155832.750000", "155832.753000", "155832.756000", "155832.759000", "155832.762000", "155832.765000", "155832.767000", "155852.699000", "155852.702000", "155852.705000", "155852.713000", "155852.716000", "155852.719000", "155852.722000", "155852.725000", "155852.728000", "155852.731000", "155852.734000", "155852.737000", "155852.739000", "155852.742000", "155852.745000", "155852.748000", "155852.751000", "155852.754000", "155852.757000", "155852.760000", "155912.699000", "155912.702000", "155912.705000", "155912.708000", "155912.711000", "155912.714000", "155912.717000", "155912.720000", "155912.723000", "155912.726000", "155912.729000", "155912.731000", "155912.734000", "155912.737000", "155912.740000", "155912.743000", "155912.746000", "155912.749000", "155912.752000", "155912.755000", "155952.700000", "155952.703000", "155952.706000", "155952.709000", "155952.712000", "155952.715000", "155952.718000", "155952.721000", "155952.724000", "155952.727000", "155952.730000", "155952.733000", "155952.736000", "155952.739000", "155952.742000", "155952.745000", "155952.748000", "155952.751000", "155952.753000", "155952.756000", "155952.759000", "155952.762000", "155952.765000", "155952.768000", "155952.771000", "155952.774000", "155952.777000", "155952.780000", "155952.783000", "155952.786000", "155952.789000", "155952.792000", "155952.795000", "160032.700000", "160032.703000", "160032.706000", "160032.709000", "160032.712000", "160032.715000", "160032.718000", "160032.721000", "160032.724000", "160032.727000", "160032.731000", "160032.734000", "160032.737000", "160032.740000", "160032.744000", "160032.747000", "160032.750000", "160032.753000", "160032.755000", "160032.758000", "160032.761000", "160032.764000", "160032.767000", "160032.770000", "160032.773000", "160032.776000", "160049.342000", "160049.346000", "160049.349000", "160049.352000", "160049.355000", "160049.358000", "160049.361000", "160049.364000", "160049.367000", "160049.370000", "160049.373000", "160049.376000"],
      "InstanceNumber": [1, 2, 3, 4, 5, 6, 7, 8, 9, 10, 11, 12, 13, 14, 15, 16, 17, 18, 19, 20, 21, 22, 23, 24, 25, 26, 27, 28, 29, 30, 31, 32, 33, 34, 35, 36, 37, 38, 39, 40, 41, 42, 43, 44, 45, 46, 47, 48, 49, 50, 51, 52, 53, 54, 55, 56, 57, 58, 59, 60, 61, 62, 63, 64, 65, 66, 67, 68, 69, 70, 71, 72, 73, 74, 75, 76, 77, 78, 79, 80, 81, 82, 83, 84, 85, 86, 87, 88, 89, 90, 91, 92, 93, 94, 95, 96, 97, 98, 99, 100, 101, 102, 103, 104, 105, 106, 107, 108, 109, 110, 111, 112, 113, 114, 115, 116, 117, 118, 119, 120, 121, 122, 123, 124, 125, 126, 127, 128, 129, 130, 131, 132, 133, 134, 135, 136, 137, 138, 139, 140, 141, 142, 143, 144, 145, 146, 147, 148, 149, 150, 151, 152, 153, 154, 155, 156, 157, 158, 159],
      "LargestImagePixelValue": [41936, 41495, 40359, 40796, 40593, 40690, 40431, 40232, 40488, 39839, 40340, 40036, 40907, 40222, 40335, 40184, 40531, 40161, 39865, 39941, 40321, 40432, 40283, 40416, 40143, 40140, 40768, 40987, 40311, 40057, 40717, 40849, 40413, 40365, 40283, 40465, 40629, 40578, 40247, 40386, 40592, 40298, 40434, 40797, 40765, 40410, 39776, 39997, 40342, 40280, 40779, 40310, 40650, 40802, 40393, 39826, 40003, 41661, 41504, 40484, 40776, 40092, 40598, 40881, 40457, 40506, 41356, 41594, 40328, 40770, 40186, 40687, 40891, 40852, 40686, 40864, 40848, 40957, 40730, 40938, 40240, 40249, 40539, 40372, 40959, 40845, 41801, 40107, 40309, 40278, 40315, 40257, 40322, 40236, 40373, 40399, 40330, 39886, 39729, 40198, 40609, 40200, 39834, 40059, 39878, 40429, 40611, 40071, 40146, 40002, 39961, 40188, 40054, 40718, 40306, 40169, 40096, 40419, 39945, 39784, 39943, 40396, 40530, 39395, 39566, 40713, 40249, 40365, 40040, 40180, 40541, 40057, 40721, 40184, 40537, 40627, 40582, 40094, 40611, 40754, 40244, 39819, 40418, 39785, 40269, 40504, 40289, 40114, 39881, 39724, 39548, 40299, 40379, 39999, 40147, 40943, 40057, 40398, 40077],
      "WindowCenter": [10269.0, 10206.0, 10163.0, 10164.0, 10192.0, 10201.0, 10194.0, 10203.0, 10202.0, 10176.0, 10191.0, 10189.0, 10191.0, 10180.0, 10189.0, 10207.0, 10193.0, 10168.0, 10179.0, 10181.0, 10191.0, 10176.0, 10195.0, 10213.0, 10187.0, 10169.0, 10182.0, 10182.0, 10181.0, 10185.0, 10193.0, 10201.0, 10180.0, 10160.0, 10168.0, 10157.0, 10163.0, 10186.0, 10220.0, 10224.0, 10212.0, 10193.0, 10202.0, 10215.0, 10213.0, 10211.0, 10201.0, 10174.0, 10166.0, 10155.0, 10163.0, 10183.0, 10181.0, 10173.0, 10175.0, 10181.0, 10176.0, 10179.0, 10166.0, 10165.0, 10191.0, 10192.0, 10185.0, 10173.0, 10166.0, 10186.0, 10218.0, 10208.0, 10191.0, 10194.0, 10180.0, 10170.0, 10167.0, 10188.0, 10204.0, 10203.0, 10196.0, 10184.0, 10170.0, 10187.0, 10188.0, 10200.0, 10195.0, 10177.0, 10166.0, 10174.0, 10177.0, 10169.0, 10204.0, 10194.0, 10191.0, 10174.0, 10179.0, 10187.0, 10208.0, 10208.0, 10188.0, 10175.0, 10164.0, 10175.0, 10202.0, 10197.0, 10181.0, 10170.0, 10167.0, 10207.0, 10205.0, 10183.0, 10173.0, 10178.0, 10180.0, 10170.0, 10170.0, 10201.0, 10216.0, 10206.0, 10185.0, 10180.0, 10189.0, 10188.0, 10179.0, 10177.0, 10201.0, 10199.0, 10189.0, 10193.0, 10192.0, 10188.0, 10180.0, 10170.0, 10168.0, 10170.0, 10175.0, 10198.0, 10213.0, 10203.0, 10195.0, 10198.0, 10196.0, 10178.0, 10184.0, 10182.0, 10177.0, 10161.0, 10181.0, 10185.0, 10169.0, 10169.0, 10162.0, 10151.0, 10160.0, 10177.0, 10185.0, 10190.0, 10181.0, 10193.0, 10179.0, 10184.0, 10197.0],
      "WindowWidth": [21756.0, 21590.0, 21488.0, 21483.0, 21548.0, 21565.0, 21548.0, 21570.0, 21564.0, 21525.0, 21542.0, 21540.0, 21541.0, 21527.0, 21543.0, 21587.0, 21541.0, 21488.0, 21524.0, 21523.0, 21541.0, 21507.0, 21553.0, 21596.0, 21532.0, 21488.0, 21519.0, 21516.0, 21513.0, 21530.0, 21546.0, 21560.0, 21518.0, 21471.0, 21493.0, 21464.0, 21476.0, 21526.0, 21610.0, 21619.0, 21595.0, 21547.0, 21566.0, 21593.0, 21593.0, 21585.0, 21568.0, 21504.0, 21484.0, 21460.0, 21477.0, 21521.0, 21515.0, 21500.0, 21503.0, 21524.0, 21508.0, 21508.0, 21477.0, 21481.0, 21542.0, 21553.0, 21526.0, 21495.0, 21482.0, 21533.0, 21602.0, 21578.0, 21558.0, 21546.0, 21520.0, 21497.0, 21485.0, 21531.0, 21575.0, 21569.0, 21560.0, 21522.0, 21495.0, 21546.0, 21549.0, 21568.0, 21551.0, 21506.0, 21480.0, 21499.0, 21505.0, 21493.0, 21576.0, 21556.0, 21555.0, 21514.0, 21523.0, 21543.0, 21592.0, 21585.0, 21536.0, 21514.0, 21487.0, 21503.0, 21568.0, 21554.0, 21518.0, 21496.0, 21487.0, 21598.0, 21575.0, 21525.0, 21503.0, 21512.0, 21520.0, 21493.0, 21502.0, 21574.0, 21609.0, 21576.0, 21541.0, 21521.0, 21544.0, 21535.0, 21515.0, 21513.0, 21566.0, 21563.0, 21536.0, 21542.0, 21542.0, 21532.0, 21515.0, 21490.0, 21489.0, 21494.0, 21500.0, 21569.0, 21594.0, 21566.0, 21549.0, 21560.0, 21556.0, 21508.0, 21525.0, 21524.0, 21507.0, 21472.0, 21534.0, 21527.0, 21489.0, 21489.0, 21476.0, 21445.0, 21469.0, 21509.0, 21523.0, 21543.0, 21520.0, 21553.0, 21515.0, 21522.0, 21559.0]
    },
    "slices": {}
  }
}