{
  "AcquisitionMatrixPE": 104,
  "AcquisitionNumber": 1,
  "AcquisitionTime": "15:46:11.790000",
  "BandwidthPerPixelPhaseEncode": 17.17,
  "BaseResolution": 104,
  "BodyPartExamined": "BRAIN",
  "CoilString": "HC1-7;NC1_2",
  "ConsistencyInfo": "N4_VE11C_LATEST_20160120",
  "ConversionSoftware": "dcm2niix",
  "ConversionSoftwareVersion": "v1.0.20190720  (JP2:OpenJPEG) GCC7.3.0",
  "DerivedVendorReportedEchoSpacing": 0.000560011,
  "DeviceSerialNumber": "167006",
  "DwellTime": 2.1e-06,
  "EchoTime": 0.037,
  "EchoTrainLength": 104,
  "EffectiveEchoSpacing": 0.000560011,
  "FlipAngle": 52,
  "ImageComments": "Unaliased_MB4_PE3_LB",
  "ImageOrientationPatientDICOM": [0.995736, 0.087498, 0.0292249, -0.073297, 0.942773, -0.325279],
  "ImageType": [
    "ORIGINAL",
    "PRIMARY",
    "M",
    "MB",
    "ND",
    "MOSAIC"
],
  "ImagingFrequency": 123.26,
  "InPlanePhaseEncodingDirectionDICOM": "COL",
  "InstitutionAddress": "Chemin_Queen-Mary_4565_Montreal_District_CA_H3W_1W5",
  "InstitutionName": "IUGM",
  "InstitutionalDepartmentName": "Department",
  "MRAcquisitionType": "2D",
  "MagneticFieldStrength": 3,
  "Manufacturer": "Siemens",
  "ManufacturersModelName": "Prisma_fit",
  "Modality": "MR",
  "MultibandAccelerationFactor": 4,
  "PartialFourier": 1,
  "PatientPosition": "HFS",
  "PercentPhaseFOV": 100,
  "PhaseEncodingDirection": "j",
  "PhaseEncodingSteps": 104,
  "PhaseResolution": 1,
  "PixelBandwidth": 2290,
  "ProcedureStepDescription": "hcptrt_generic",
  "ProtocolName": "func_task-motor_run-1",
  "PulseSequenceDetails": "%CustomerSeq%_cmrr_mbep2d_bold",
  "ReceiveCoilActiveElements": "HC1-7;NC1,2",
  "ReceiveCoilName": "HeadNeck_64",
  "ReconMatrixPE": 104,
  "RepetitionTime": 1.49,
  "SAR": 0.0372575,
  "ScanOptions": "FS",
  "ScanningSequence": "EP",
  "SequenceName": "epfid2d1_104",
  "SequenceVariant": "SK_SS",
  "SeriesDescription": "func_task-motor_run-1",
  "SeriesNumber": 19,
  "ShimSetting": [636, -7197, -8846, 721, 110, 16, -29, -4],
  "SliceThickness": 2,
  "SliceTiming": [0, 0.7825, 0.0975, 0.88, 0.195, 0.98, 0.2925, 1.0775, 0.39, 1.175, 0.49, 1.2725, 0.5875, 1.37, 0.685, 0, 0.7825, 0.0975, 0.88, 0.195, 0.98, 0.2925, 1.0775, 0.39, 1.175, 0.49, 1.2725, 0.5875, 1.37, 0.685, 0, 0.7825, 0.0975, 0.88, 0.195, 0.98, 0.2925, 1.0775, 0.39, 1.175, 0.49, 1.2725, 0.5875, 1.37, 0.685, 0, 0.7825, 0.0975, 0.88, 0.195, 0.98, 0.2925, 1.0775, 0.39, 1.175, 0.49, 1.2725, 0.5875, 1.37, 0.685],
  "SoftwareVersions": "syngo_MR_E11",
  "SpacingBetweenSlices": 2,
  "StationName": "MRC35049",
  "TaskName": "motor",
  "TotalReadoutTime": 0.0576811,
  "TxRefAmp": 249.029,
  "WipMemBlock": "955b6989-b205-4a13-a39e-c1501666dcd7||Sequence: R016 ve11c/master r/e634e98; Dec 19 2017 11:00:25 by eja",
  "dcmmeta_affine": [
    [-1.991471767425537, -0.1465940773487091, 0.11202745139598846, 110.2690200805664],
    [-0.17499597370624542, 1.885546088218689, -0.6435002088546753, -52.006839752197266],
    [0.05844980105757713, 0.6505584120750427, 1.890332579612732, -68.66020202636719],
    [0.0, 0.0, 0.0, 1.0]
],
  "dcmmeta_reorient_transform": [
    [0.0, -1.0, 0.0, 103.0],
    [1.0, 0.0, 0.0, 0.0],
    [0.0, 0.0, 1.0, 0.0],
    [0.0, 0.0, 0.0, 1.0]
],
  "dcmmeta_shape": [104, 104, 60, 144],
  "dcmmeta_slice_dim": 2,
  "dcmmeta_version": 0.6,
  "global": {
    "const": {
      "AcquisitionMatrix": [104, 0, 0, 104],
      "AngioFlag": "N",
      "BitsAllocated": 16,
      "BitsStored": 16,
      "BodyPartExamined": "BRAIN",
      "Columns": 832,
      "EchoNumbers": 1,
      "EchoTime": 37.0,
      "EchoTrainLength": 104,
      "FlipAngle": 52.0,
      "HighBit": 15,
      "ImageOrientationPatient": [0.99573591222867, 0.08749798992107, 0.02922490133268, -0.0732970373283, 0.9427730287731, -0.3252792039724],
      "ImagePositionPatient": [-766.70533346129, -892.24170474715, 213.87484276008],
      "ImageType": [
        "ORIGINAL",
        "PRIMARY",
        "M",
        "MB",
        "ND",
        "MOSAIC"
],
      "ImagedNucleus": "1H",
      "ImagingFrequency": 123.259581,
      "InPlanePhaseEncodingDirection": "COL",
      "MRAcquisitionType": "2D",
      "MagneticFieldStrength": 3.0,
      "Manufacturer": "SIEMENS",
      "ManufacturerModelName": "Prisma_fit",
      "Modality": "MR",
      "NumberOfAverages": 1.0,
      "NumberOfPhaseEncodingSteps": 104,
      "PercentPhaseFieldOfView": 100.0,
      "PercentSampling": 100.0,
      "PerformedProcedureStepStartTime": "145216.338000",
      "PhotometricInterpretation": "MONOCHROME2",
      "PixelBandwidth": 2290.0,
      "PixelRepresentation": 0,
      "PixelSpacing": [2.0, 2.0],
      "ProtocolName": "func_task-motor_run-1",
      "RepetitionTime": 1490.0,
      "Rows": 832,
      "SAR": 0.03725753742158,
      "SamplesPerPixel": 1,
      "ScanOptions": "FS",
      "ScanningSequence": "EP",
      "SequenceName": "epfid2d1_104",
      "SequenceVariant": [
        "SK",
        "SS"
],
      "SeriesDescription": "func_task-motor_run-1",
      "SeriesNumber": 19,
      "SeriesTime": "154737.075000",
      "SliceLocation": -41.985528603896,
      "SliceThickness": 2.0,
      "SmallestImagePixelValue": 0,
      "SoftwareVersions": "syngo MR E11",
      "SpacingBetweenSlices": 2.0000000251884,
      "SpecificCharacterSet": "ISO_IR 100",
      "StudyID": "1",
      "StudyTime": "145216.282000",
      "TransmitCoilName": "Body",
      "VariableFlipAngleFlag": "N",
      "WindowCenterWidthExplanation": "Algo1",
      "dBdt": 0.0},
    "slices": {}
  },
  "time": {
    "samples": {
      "AcquisitionNumber": [1, 2, 3, 4, 5, 6, 7, 8, 9, 10, 11, 12, 13, 14, 15, 16, 17, 18, 19, 20, 21, 22, 23, 24, 25, 26, 27, 28, 29, 30, 31, 32, 33, 34, 35, 36, 37, 38, 39, 40, 41, 42, 43, 44, 45, 46, 47, 48, 49, 50, 51, 52, 53, 54, 55, 56, 57, 58, 59, 60, 61, 62, 63, 64, 65, 66, 67, 68, 69, 70, 71, 72, 73, 74, 75, 76, 77, 78, 79, 80, 81, 82, 83, 84, 85, 86, 87, 88, 89, 90, 91, 92, 93, 94, 95, 96, 97, 98, 99, 100, 101, 102, 103, 104, 105, 106, 107, 108, 109, 110, 111, 112, 113, 114, 115, 116, 117, 118, 119, 120, 121, 122, 123, 124, 125, 126, 127, 128, 129, 130, 131, 132, 133, 134, 135, 136, 137, 138, 139, 140, 141, 142, 143, 144],
      "AcquisitionTime": ["154611.790000", "154613.280000", "154614.770000", "154616.260000", "154617.750000", "154619.240000", "154620.730000", "154622.220000", "154623.710000", "154625.200000", "154626.690000", "154628.180000", "154629.670000", "154631.160000", "154632.650000", "154634.140000", "154635.630000", "154637.120000", "154638.610000", "154640.100000", "154641.590000", "154643.080000", "154644.570000", "154646.060000", "154647.550000", "154649.040000", "154650.530000", "154652.020000", "154653.510000", "154655.000000", "154656.490000", "154657.980000", "154659.470000", "154700.960000", "154702.450000", "154703.940000", "154705.430000", "154706.920000", "154708.410000", "154709.900000", "154711.390000", "154712.880000", "154714.370000", "154715.860000", "154717.350000", "154718.840000", "154720.330000", "154721.820000", "154723.310000", "154724.800000", "154726.290000", "154727.780000", "154729.270000", "154730.760000", "154732.250000", "154733.740000", "154735.230000", "154736.720000", "154738.210000", "154739.700000", "154741.190000", "154742.680000", "154744.170000", "154745.660000", "154747.150000", "154748.640000", "154750.130000", "154751.620000", "154753.110000", "154754.600000", "154756.090000", "154757.580000", "154759.070000", "154800.560000", "154802.050000", "154803.540000", "154805.030000", "154806.520000", "154808.010000", "154809.500000", "154810.990000", "154812.480000", "154813.970000", "154815.460000", "154816.950000", "154818.440000", "154819.930000", "154821.420000", "154822.910000", "154824.400000", "154825.890000", "154827.380000", "154828.870000", "154830.360000", "154831.850000", "154833.340000", "154834.830000", "154836.320000", "154837.810000", "154839.300000", "154840.790000", "154842.280000", "154843.770000", "154845.260000", "154846.750000", "154848.240000", "154849.730000", "154851.220000", "154852.710000", "154854.200000", "154855.690000", "154857.180000", "154858.670000", "154900.160000", "154901.650000", "154903.140000", "154904.630000", "154906.120000", "154907.610000", "154909.100000", "154910.590000", "154912.080000", "154913.570000", "154915.060000", "154916.550000", "154918.040000", "154919.530000", "154921.020000", "154922.510000", "154924.000000", "154925.490000", "154926.980000", "154928.470000", "154929.960000", "154931.450000", "154932.940000", "154934.430000", "154935.920000", "154937.410000", "154938.900000", "154940.390000", "154941.880000", "154943.370000", "154944.860000"],
      "ContentTime": ["154737.077000", "154737.081000", "154737.084000", "154737.087000", "154737.090000", "154737.093000", "154737.096000", "154737.105000", "154737.107000", "154737.110000", "154737.113000", "154737.116000", "154737.119000", "154737.122000", "154737.125000", "154737.128000", "154737.131000", "154737.134000", "154737.137000", "154737.140000", "154737.143000", "154737.146000", "154737.149000", "154737.152000", "154737.168000", "154737.171000", "154737.174000", "154737.215000", "154737.218000", "154737.221000", "154757.037000", "154757.040000", "154757.051000", "154757.054000", "154757.057000", "154757.060000", "154757.063000", "154757.065000", "154757.068000", "154757.071000", "154757.074000", "154757.077000", "154757.080000", "154757.083000", "154757.086000", "154757.089000", "154757.092000", "154757.095000", "154757.098000", "154757.100000", "154817.037000", "154817.040000", "154817.043000", "154817.053000", "154817.056000", "154817.059000", "154817.067000", "154817.069000", "154817.072000", "154817.075000", "154817.078000", "154817.081000", "154817.084000", "154817.087000", "154817.090000", "154817.093000", "154817.096000", "154817.099000", "154817.102000", "154817.105000", "154837.037000", "154837.047000", "154837.050000", "154837.053000", "154837.056000", "154837.059000", "154837.062000", "154837.065000", "154837.068000", "154837.071000", "154837.074000", "154837.077000", "154837.080000", "154837.083000", "154837.086000", "154837.088000", "154837.092000", "154837.094000", "154837.097000", "154837.100000", "154857.037000", "154857.040000", "154857.043000", "154857.046000", "154857.049000", "154857.062000", "154857.065000", "154857.068000", "154857.071000", "154857.074000", "154857.077000", "154857.080000", "154857.083000", "154857.086000", "154857.089000", "154857.092000", "154857.095000", "154857.098000", "154857.101000", "154857.104000", "154937.037000", "154937.040000", "154937.050000", "154937.053000", "154937.056000", "154937.059000", "154937.062000", "154937.065000", "154937.068000", "154937.072000", "154937.075000", "154937.078000", "154937.081000", "154937.085000", "154937.089000", "154937.092000", "154937.096000", "154937.099000", "154937.102000", "154937.105000", "154937.108000", "154937.111000", "154937.114000", "154937.117000", "154937.120000", "154937.123000", "154937.131000", "154947.178000", "154947.181000", "154947.184000", "154947.187000", "154947.190000", "154947.193000", "154947.196000"],
      "InstanceCreationTime": ["154737.077000", "154737.081000", "154737.084000", "154737.087000", "154737.090000", "154737.093000", "154737.096000", "154737.105000", "154737.107000", "154737.110000", "154737.113000", "154737.116000", "154737.119000", "154737.122000", "154737.125000", "154737.128000", "154737.131000", "154737.134000", "154737.137000", "154737.140000", "154737.143000", "154737.146000", "154737.149000", "154737.152000", "154737.168000", "154737.171000", "154737.174000", "154737.215000", "154737.218000", "154737.221000", "154757.037000", "154757.040000", "154757.051000", "154757.054000", "154757.057000", "154757.060000", "154757.063000", "154757.065000", "154757.068000", "154757.071000", "154757.074000", "154757.077000", "154757.080000", "154757.083000", "154757.086000", "154757.089000", "154757.092000", "154757.095000", "154757.098000", "154757.100000", "154817.037000", "154817.040000", "154817.043000", "154817.053000", "154817.056000", "154817.059000", "154817.067000", "154817.069000", "154817.072000", "154817.075000", "154817.078000", "154817.081000", "154817.084000", "154817.087000", "154817.090000", "154817.093000", "154817.096000", "154817.099000", "154817.102000", "154817.105000", "154837.037000", "154837.047000", "154837.050000", "154837.053000", "154837.056000", "154837.059000", "154837.062000", "154837.065000", "154837.068000", "154837.071000", "154837.074000", "154837.077000", "154837.080000", "154837.083000", "154837.086000", "154837.088000", "154837.092000", "154837.094000", "154837.097000", "154837.100000", "154857.037000", "154857.040000", "154857.043000", "154857.046000", "154857.049000", "154857.062000", "154857.065000", "154857.068000", "154857.071000", "154857.074000", "154857.077000", "154857.080000", "154857.083000", "154857.086000", "154857.089000", "154857.092000", "154857.095000", "154857.098000", "154857.101000", "154857.104000", "154937.037000", "154937.040000", "154937.050000", "154937.053000", "154937.056000", "154937.059000", "154937.062000", "154937.065000", "154937.068000", "154937.072000", "154937.075000", "154937.078000", "154937.081000", "154937.085000", "154937.089000", "154937.092000", "154937.096000", "154937.099000", "154937.102000", "154937.105000", "154937.108000", "154937.111000", "154937.114000", "154937.117000", "154937.120000", "154937.123000", "154937.131000", "154947.178000", "154947.181000", "154947.184000", "154947.187000", "154947.190000", "154947.193000", "154947.196000"],
      "InstanceNumber": [1, 2, 3, 4, 5, 6, 7, 8, 9, 10, 11, 12, 13, 14, 15, 16, 17, 18, 19, 20, 21, 22, 23, 24, 25, 26, 27, 28, 29, 30, 31, 32, 33, 34, 35, 36, 37, 38, 39, 40, 41, 42, 43, 44, 45, 46, 47, 48, 49, 50, 51, 52, 53, 54, 55, 56, 57, 58, 59, 60, 61, 62, 63, 64, 65, 66, 67, 68, 69, 70, 71, 72, 73, 74, 75, 76, 77, 78, 79, 80, 81, 82, 83, 84, 85, 86, 87, 88, 89, 90, 91, 92, 93, 94, 95, 96, 97, 98, 99, 100, 101, 102, 103, 104, 105, 106, 107, 108, 109, 110, 111, 112, 113, 114, 115, 116, 117, 118, 119, 120, 121, 122, 123, 124, 125, 126, 127, 128, 129, 130, 131, 132, 133, 134, 135, 136, 137, 138, 139, 140, 141, 142, 143, 144],
      "LargestImagePixelValue": [43534, 42005, 41751, 41565, 40364, 40857, 40656, 40074, 39876, 40731, 40406, 40601, 40942, 40407, 40379, 40823, 40412, 40433, 40819, 41308, 40414, 40710, 40968, 40747, 40663, 40284, 40777, 40922, 40482, 40682, 40595, 40924, 40082, 40417, 40392, 40102, 40146, 40389, 41095, 40186, 40606, 40901, 40191, 40595, 41088, 40730, 40922, 40568, 39905, 40630, 40443, 40039, 40791, 40373, 40645, 41131, 40271, 40850, 41293, 40586, 40355, 40547, 40370, 40625, 40745, 40432, 40654, 40960, 41223, 40531, 40302, 40797, 40300, 40661, 40790, 40559, 40819, 40966, 40562, 41024, 40074, 40467, 40755, 40488, 40879, 40698, 40402, 40955, 40650, 40487, 41361, 40670, 41177, 41086, 40745, 41135, 41403, 41016, 41160, 40830, 40724, 40890, 40625, 40856, 40417, 40558, 40748, 40404, 40335, 40754, 40663, 40396, 40430, 41199, 41083, 41135, 40537, 41163, 40990, 40631, 41018, 40851, 40475, 41261, 41211, 40733, 41005, 40734, 40699, 40871, 40590, 40405, 40595, 40758, 40696, 40870, 40838, 40700, 41449, 40207, 40316, 40728, 40673, 40493],
      "WindowCenter": [10312.0, 10274.0, 10244.0, 10232.0, 10231.0, 10252.0, 10244.0, 10240.0, 10243.0, 10242.0, 10236.0, 10267.0, 10272.0, 10263.0, 10258.0, 10251.0, 10240.0, 10255.0, 10261.0, 10257.0, 10248.0, 10257.0, 10255.0, 10245.0, 10239.0, 10265.0, 10270.0, 10255.0, 10244.0, 10256.0, 10263.0, 10254.0, 10248.0, 10258.0, 10242.0, 10231.0, 10248.0, 10257.0, 10262.0, 10265.0, 10265.0, 10247.0, 10248.0, 10257.0, 10252.0, 10247.0, 10247.0, 10237.0, 10241.0, 10255.0, 10248.0, 10245.0, 10240.0, 10227.0, 10229.0, 10232.0, 10220.0, 10241.0, 10242.0, 10238.0, 10248.0, 10238.0, 10229.0, 10237.0, 10237.0, 10237.0, 10253.0, 10244.0, 10240.0, 10240.0, 10242.0, 10232.0, 10240.0, 10239.0, 10235.0, 10244.0, 10258.0, 10268.0, 10273.0, 10270.0, 10249.0, 10256.0, 10253.0, 10247.0, 10252.0, 10238.0, 10258.0, 10257.0, 10248.0, 10248.0, 10234.0, 10219.0, 10241.0, 10244.0, 10246.0, 10252.0, 10243.0, 10246.0, 10233.0, 10222.0, 10223.0, 10232.0, 10251.0, 10246.0, 10235.0, 10241.0, 10229.0, 10222.0, 10253.0, 10277.0, 10270.0, 10269.0, 10278.0, 10272.0, 10238.0, 10226.0, 10228.0, 10232.0, 10233.0, 10262.0, 10265.0, 10248.0, 10239.0, 10240.0, 10222.0, 10225.0, 10241.0, 10234.0, 10239.0, 10236.0, 10227.0, 10230.0, 10238.0, 10228.0, 10220.0, 10231.0, 10223.0, 10224.0, 10237.0, 10199.0, 10211.0, 10231.0, 10222.0, 10202.0],
      "WindowWidth": [21846.0, 21760.0, 21672.0, 21641.0, 21642.0, 21686.0, 21664.0, 21655.0, 21665.0, 21658.0, 21644.0, 21715.0, 21728.0, 21707.0, 21699.0, 21678.0, 21667.0, 21692.0, 21704.0, 21690.0, 21675.0, 21697.0, 21687.0, 21663.0, 21655.0, 21718.0, 21738.0, 21691.0, 21665.0, 21702.0, 21708.0, 21685.0, 21677.0, 21702.0, 21665.0, 21638.0, 21677.0, 21696.0, 21702.0, 21713.0, 21711.0, 21669.0, 21677.0, 21702.0, 21681.0, 21674.0, 21674.0, 21647.0, 21662.0, 21690.0, 21672.0, 21670.0, 21655.0, 21622.0, 21632.0, 21632.0, 21609.0, 21654.0, 21656.0, 21651.0, 21675.0, 21652.0, 21631.0, 21654.0, 21652.0, 21649.0, 21687.0, 21663.0, 21646.0, 21656.0, 21662.0, 21639.0, 21665.0, 21657.0, 21642.0, 21665.0, 21695.0, 21717.0, 21730.0, 21718.0, 21674.0, 21691.0, 21680.0, 21672.0, 21681.0, 21652.0, 21705.0, 21696.0, 21674.0, 21676.0, 21638.0, 21609.0, 21663.0, 21664.0, 21673.0, 21682.0, 21659.0, 21681.0, 21638.0, 21607.0, 21612.0, 21632.0, 21678.0, 21666.0, 21647.0, 21658.0, 21630.0, 21622.0, 21687.0, 21749.0, 21728.0, 21724.0, 21746.0, 21725.0, 21649.0, 21620.0, 21628.0, 21634.0, 21635.0, 21705.0, 21711.0, 21670.0, 21652.0, 21650.0, 21609.0, 21622.0, 21657.0, 21639.0, 21664.0, 21645.0, 21619.0, 21630.0, 21652.0, 21632.0, 21610.0, 21630.0, 21609.0, 21609.0, 21659.0, 21568.0, 21594.0, 21639.0, 21617.0, 21571.0]
    },
    "slices": {}
  }
}