{
  "AcquisitionMatrixPE": 104,
  "AcquisitionNumber": 1,
  "AcquisitionTime": "15:34:31.635000",
  "BandwidthPerPixelPhaseEncode": 17.17,
  "BaseResolution": 104,
  "BodyPartExamined": "BRAIN",
  "CoilString": "HC1-7;NC1_2",
  "ConsistencyInfo": "N4_VE11C_LATEST_20160120",
  "ConversionSoftware": "dcm2niix",
  "ConversionSoftwareVersion": "v1.0.20190720  (JP2:OpenJPEG) GCC7.3.0",
  "DerivedVendorReportedEchoSpacing": 0.000560011,
  "DeviceSerialNumber": "167006",
  "DwellTime": 2.1e-06,
  "EchoTime": 0.037,
  "EchoTrainLength": 104,
  "EffectiveEchoSpacing": 0.000560011,
  "FlipAngle": 52,
  "ImageComments": "Unaliased_MB4_PE3_LB",
  "ImageOrientationPatientDICOM": [0.995736, 0.087498, 0.0292249, -0.073297, 0.942773, -0.325279],
  "ImageType": [
    "ORIGINAL",
    "PRIMARY",
    "M",
    "MB",
    "ND",
    "MOSAIC"
],
  "ImagingFrequency": 123.26,
  "InPlanePhaseEncodingDirectionDICOM": "COL",
  "InstitutionAddress": "Chemin_Queen-Mary_4565_Montreal_District_CA_H3W_1W5",
  "InstitutionName": "IUGM",
  "InstitutionalDepartmentName": "Department",
  "MRAcquisitionType": "2D",
  "MagneticFieldStrength": 3,
  "Manufacturer": "Siemens",
  "ManufacturersModelName": "Prisma_fit",
  "Modality": "MR",
  "MultibandAccelerationFactor": 4,
  "PartialFourier": 1,
  "PatientPosition": "HFS",
  "PercentPhaseFOV": 100,
  "PhaseEncodingDirection": "j",
  "PhaseEncodingSteps": 104,
  "PhaseResolution": 1,
  "PixelBandwidth": 2290,
  "ProcedureStepDescription": "hcptrt_generic",
  "ProtocolName": "func_task-gambling_run-1",
  "PulseSequenceDetails": "%CustomerSeq%_cmrr_mbep2d_bold",
  "ReceiveCoilActiveElements": "HC1-7;NC1,2",
  "ReceiveCoilName": "HeadNeck_64",
  "ReconMatrixPE": 104,
  "RepetitionTime": 1.49,
  "SAR": 0.0372016,
  "ScanOptions": "FS",
  "ScanningSequence": "EP",
  "SequenceName": "epfid2d1_104",
  "SequenceVariant": "SK_SS",
  "SeriesDescription": "func_task-gambling_run-1",
  "SeriesNumber": 13,
  "ShimSetting": [636, -7197, -8846, 721, 110, 16, -29, -4],
  "SliceThickness": 2,
  "SliceTiming": [0, 0.7825, 0.0975, 0.88, 0.195, 0.98, 0.2925, 1.0775, 0.39, 1.175, 0.49, 1.2725, 0.5875, 1.37, 0.685, 0, 0.7825, 0.0975, 0.88, 0.195, 0.98, 0.2925, 1.0775, 0.39, 1.175, 0.49, 1.2725, 0.5875, 1.37, 0.685, 0, 0.7825, 0.0975, 0.88, 0.195, 0.98, 0.2925, 1.0775, 0.39, 1.175, 0.49, 1.2725, 0.5875, 1.37, 0.685, 0, 0.7825, 0.0975, 0.88, 0.195, 0.98, 0.2925, 1.0775, 0.39, 1.175, 0.49, 1.2725, 0.5875, 1.37, 0.685],
  "SoftwareVersions": "syngo_MR_E11",
  "SpacingBetweenSlices": 2,
  "StationName": "MRC35049",
  "TaskName": "gambling",
  "TotalReadoutTime": 0.0576811,
  "TxRefAmp": 249.029,
  "WipMemBlock": "af7a903e-c8a5-477a-8be6-6e7b4c199881||Sequence: R016 ve11c/master r/e634e98; Dec 19 2017 11:00:25 by eja",
  "dcmmeta_affine": [
    [-1.991471767425537, -0.1465940773487091, 0.11202745139598846, 110.2690200805664],
    [-0.17499597370624542, 1.885546088218689, -0.6435002088546753, -52.006839752197266],
    [0.05844980105757713, 0.6505584120750427, 1.890332579612732, -68.66020202636719],
    [0.0, 0.0, 0.0, 1.0]
],
  "dcmmeta_reorient_transform": [
    [0.0, -1.0, 0.0, 103.0],
    [1.0, 0.0, 0.0, 0.0],
    [0.0, 0.0, 1.0, 0.0],
    [0.0, 0.0, 0.0, 1.0]
],
  "dcmmeta_shape": [104, 104, 60, 129],
  "dcmmeta_slice_dim": 2,
  "dcmmeta_version": 0.6,
  "global": {
    "const": {
      "AcquisitionMatrix": [104, 0, 0, 104],
      "AngioFlag": "N",
      "BitsAllocated": 16,
      "BitsStored": 16,
      "BodyPartExamined": "BRAIN",
      "Columns": 832,
      "EchoNumbers": 1,
      "EchoTime": 37.0,
      "EchoTrainLength": 104,
      "FlipAngle": 52.0,
      "HighBit": 15,
      "ImageOrientationPatient": [0.99573591222867, 0.08749798992107, 0.02922490133268, -0.0732970373283, 0.9427730287731, -0.3252792039724],
      "ImagePositionPatient": [-766.70533346129, -892.24170474715, 213.87484276008],
      "ImageType": [
        "ORIGINAL",
        "PRIMARY",
        "M",
        "MB",
        "ND",
        "MOSAIC"
],
      "ImagedNucleus": "1H",
      "ImagingFrequency": 123.259576,
      "InPlanePhaseEncodingDirection": "COL",
      "MRAcquisitionType": "2D",
      "MagneticFieldStrength": 3.0,
      "Manufacturer": "SIEMENS",
      "ManufacturerModelName": "Prisma_fit",
      "Modality": "MR",
      "NumberOfAverages": 1.0,
      "NumberOfPhaseEncodingSteps": 104,
      "PercentPhaseFieldOfView": 100.0,
      "PercentSampling": 100.0,
      "PerformedProcedureStepStartTime": "145216.338000",
      "PhotometricInterpretation": "MONOCHROME2",
      "PixelBandwidth": 2290.0,
      "PixelRepresentation": 0,
      "PixelSpacing": [2.0, 2.0],
      "ProtocolName": "func_task-gambling_run-1",
      "RepetitionTime": 1490.0,
      "Rows": 832,
      "SAR": 0.03720164632229,
      "SamplesPerPixel": 1,
      "ScanOptions": "FS",
      "ScanningSequence": "EP",
      "SequenceName": "epfid2d1_104",
      "SequenceVariant": [
        "SK",
        "SS"
],
      "SeriesDescription": "func_task-gambling_run-1",
      "SeriesNumber": 13,
      "SeriesTime": "153557.071000",
      "SliceLocation": -41.985528603896,
      "SliceThickness": 2.0,
      "SmallestImagePixelValue": 0,
      "SoftwareVersions": "syngo MR E11",
      "SpacingBetweenSlices": 2.0000000251884,
      "SpecificCharacterSet": "ISO_IR 100",
      "StudyID": "1",
      "StudyTime": "145216.282000",
      "TransmitCoilName": "Body",
      "VariableFlipAngleFlag": "N",
      "WindowCenterWidthExplanation": "Algo1",
      "dBdt": 0.0},
    "slices": {}
  },
  "time": {
    "samples": {
      "AcquisitionNumber": [1, 2, 3, 4, 5, 6, 7, 8, 9, 10, 11, 12, 13, 14, 15, 16, 17, 18, 19, 20, 21, 22, 23, 24, 25, 26, 27, 28, 29, 30, 31, 32, 33, 34, 35, 36, 37, 38, 39, 40, 41, 42, 43, 44, 45, 46, 47, 48, 49, 50, 51, 52, 53, 54, 55, 56, 57, 58, 59, 60, 61, 62, 63, 64, 65, 66, 67, 68, 69, 70, 71, 72, 73, 74, 75, 76, 77, 78, 79, 80, 81, 82, 83, 84, 85, 86, 87, 88, 89, 90, 91, 92, 93, 94, 95, 96, 97, 98, 99, 100, 101, 102, 103, 104, 105, 106, 107, 108, 109, 110, 111, 112, 113, 114, 115, 116, 117, 118, 119, 120, 121, 122, 123, 124, 125, 126, 127, 128, 129],
      "AcquisitionTime": ["153431.635000", "153433.125000", "153434.615000", "153436.105000", "153437.595000", "153439.085000", "153440.575000", "153442.065000", "153443.555000", "153445.045000", "153446.535000", "153448.025000", "153449.515000", "153451.005000", "153452.495000", "153453.985000", "153455.475000", "153456.965000", "153458.455000", "153459.945000", "153501.435000", "153502.925000", "153504.415000", "153505.905000", "153507.395000", "153508.885000", "153510.375000", "153511.865000", "153513.355000", "153514.845000", "153516.335000", "153517.825000", "153519.315000", "153520.805000", "153522.295000", "153523.785000", "153525.275000", "153526.765000", "153528.255000", "153529.745000", "153531.235000", "153532.725000", "153534.215000", "153535.705000", "153537.195000", "153538.685000", "153540.175000", "153541.665000", "153543.155000", "153544.645000", "153546.135000", "153547.625000", "153549.115000", "153550.605000", "153552.095000", "153553.585000", "153555.075000", "153556.565000", "153558.055000", "153559.545000", "153601.035000", "153602.525000", "153604.015000", "153605.505000", "153606.995000", "153608.485000", "153609.975000", "153611.465000", "153612.955000", "153614.445000", "153615.935000", "153617.425000", "153618.915000", "153620.405000", "153621.895000", "153623.385000", "153624.875000", "153626.365000", "153627.855000", "153629.345000", "153630.835000", "153632.325000", "153633.815000", "153635.305000", "153636.795000", "153638.285000", "153639.775000", "153641.265000", "153642.755000", "153644.245000", "153645.735000", "153647.225000", "153648.715000", "153650.205000", "153651.695000", "153653.185000", "153654.675000", "153656.165000", "153657.655000", "153659.145000", "153700.635000", "153702.125000", "153703.615000", "153705.105000", "153706.595000", "153708.085000", "153709.575000", "153711.065000", "153712.555000", "153714.045000", "153715.535000", "153717.025000", "153718.515000", "153720.005000", "153721.495000", "153722.985000", "153724.475000", "153725.965000", "153727.455000", "153728.945000", "153730.435000", "153731.925000", "153733.415000", "153734.905000", "153736.395000", "153737.885000", "153739.375000", "153740.865000", "153742.355000"],
      "ContentTime": ["153557.075000", "153557.078000", "153557.081000", "153557.084000", "153557.087000", "153557.090000", "153557.093000", "153557.096000", "153557.099000", "153557.102000", "153557.105000", "153557.108000", "153557.111000", "153557.113000", "153557.122000", "153557.125000", "153557.128000", "153557.131000", "153557.134000", "153557.137000", "153557.140000", "153557.143000", "153557.151000", "153557.154000", "153557.157000", "153557.160000", "153557.163000", "153557.166000", "153557.169000", "153617.038000", "153617.041000", "153617.044000", "153617.047000", "153617.050000", "153617.053000", "153617.056000", "153617.065000", "153617.068000", "153617.071000", "153617.074000", "153617.077000", "153617.080000", "153617.083000", "153617.086000", "153617.089000", "153617.092000", "153617.095000", "153617.098000", "153617.100000", "153637.037000", "153637.040000", "153637.043000", "153637.046000", "153637.050000", "153637.053000", "153637.056000", "153637.059000", "153637.062000", "153637.065000", "153637.068000", "153637.071000", "153637.074000", "153637.077000", "153637.080000", "153637.083000", "153637.086000", "153637.089000", "153637.092000", "153637.095000", "153657.037000", "153657.040000", "153657.043000", "153657.046000", "153657.049000", "153657.052000", "153657.055000", "153657.058000", "153657.061000", "153657.063000", "153657.066000", "153657.069000", "153657.072000", "153657.082000", "153657.085000", "153657.088000", "153657.091000", "153657.094000", "153657.096000", "153657.099000", "153657.102000", "153717.037000", "153717.040000", "153717.043000", "153717.046000", "153717.049000", "153717.052000", "153717.055000", "153717.065000", "153717.068000", "153717.071000", "153717.074000", "153717.077000", "153717.080000", "153717.103000", "153717.106000", "153717.109000", "153717.112000", "153717.114000", "153717.117000", "153717.120000", "153744.837000", "153744.841000", "153744.844000", "153744.847000", "153744.850000", "153744.853000", "153744.856000", "153744.859000", "153744.862000", "153744.865000", "153744.868000", "153744.871000", "153744.874000", "153744.877000", "153744.880000", "153744.884000", "153744.887000", "153744.890000", "153744.892000"],
      "InstanceCreationTime": ["153557.075000", "153557.078000", "153557.081000", "153557.084000", "153557.087000", "153557.090000", "153557.093000", "153557.096000", "153557.099000", "153557.102000", "153557.105000", "153557.108000", "153557.111000", "153557.113000", "153557.122000", "153557.125000", "153557.128000", "153557.131000", "153557.134000", "153557.137000", "153557.140000", "153557.143000", "153557.151000", "153557.154000", "153557.157000", "153557.160000", "153557.163000", "153557.166000", "153557.169000", "153617.038000", "153617.041000", "153617.044000", "153617.047000", "153617.050000", "153617.053000", "153617.056000", "153617.065000", "153617.068000", "153617.071000", "153617.074000", "153617.077000", "153617.080000", "153617.083000", "153617.086000", "153617.089000", "153617.092000", "153617.095000", "153617.098000", "153617.100000", "153637.037000", "153637.040000", "153637.043000", "153637.046000", "153637.050000", "153637.053000", "153637.056000", "153637.059000", "153637.062000", "153637.065000", "153637.068000", "153637.071000", "153637.074000", "153637.077000", "153637.080000", "153637.083000", "153637.086000", "153637.089000", "153637.092000", "153637.095000", "153657.037000", "153657.040000", "153657.043000", "153657.046000", "153657.049000", "153657.052000", "153657.055000", "153657.058000", "153657.061000", "153657.063000", "153657.066000", "153657.069000", "153657.072000", "153657.082000", "153657.085000", "153657.088000", "153657.091000", "153657.094000", "153657.096000", "153657.099000", "153657.102000", "153717.037000", "153717.040000", "153717.043000", "153717.046000", "153717.049000", "153717.052000", "153717.055000", "153717.065000", "153717.068000", "153717.071000", "153717.074000", "153717.077000", "153717.080000", "153717.103000", "153717.106000", "153717.109000", "153717.112000", "153717.114000", "153717.117000", "153717.120000", "153744.837000", "153744.841000", "153744.844000", "153744.847000", "153744.850000", "153744.853000", "153744.856000", "153744.859000", "153744.862000", "153744.865000", "153744.868000", "153744.871000", "153744.874000", "153744.877000", "153744.880000", "153744.884000", "153744.887000", "153744.890000", "153744.892000"],
      "InstanceNumber": [1, 2, 3, 4, 5, 6, 7, 8, 9, 10, 11, 12, 13, 14, 15, 16, 17, 18, 19, 20, 21, 22, 23, 24, 25, 26, 27, 28, 29, 30, 31, 32, 33, 34, 35, 36, 37, 38, 39, 40, 41, 42, 43, 44, 45, 46, 47, 48, 49, 50, 51, 52, 53, 54, 55, 56, 57, 58, 59, 60, 61, 62, 63, 64, 65, 66, 67, 68, 69, 70, 71, 72, 73, 74, 75, 76, 77, 78, 79, 80, 81, 82, 83, 84, 85, 86, 87, 88, 89, 90, 91, 92, 93, 94, 95, 96, 97, 98, 99, 100, 101, 102, 103, 104, 105, 106, 107, 108, 109, 110, 111, 112, 113, 114, 115, 116, 117, 118, 119, 120, 121, 122, 123, 124, 125, 126, 127, 128, 129],
      "LargestImagePixelValue": [43740, 42322, 42344, 41893, 40832, 40423, 40615, 40763, 40145, 40478, 39823, 40288, 40554, 40818, 40087, 40423, 40876, 40478, 41089, 40519, 40474, 40154, 40633, 41835, 40827, 40958, 41430, 42029, 40985, 40499, 41772, 41218, 40650, 40831, 41441, 40461, 40324, 41240, 41582, 41438, 40483, 41021, 41394, 40468, 41466, 41624, 41617, 41807, 41571, 40973, 41452, 41564, 41167, 41877, 41608, 40660, 41278, 41126, 40702, 41047, 41147, 40157, 40576, 40604, 40023, 40305, 40936, 41015, 40238, 40628, 41073, 40920, 40799, 41136, 40458, 40728, 40868, 41468, 40379, 40652, 40883, 40869, 40666, 40889, 40755, 41421, 40825, 40412, 41125, 40818, 41391, 41854, 41620, 41142, 41047, 41364, 40311, 40982, 40958, 40442, 40600, 40762, 41145, 40276, 40954, 41158, 40996, 40620, 41354, 41174, 41376, 41427, 41725, 41016, 40624, 40289, 41101, 40476, 40654, 41102, 41667, 41154, 40678, 41478, 41075, 40854, 40514, 40650, 40598],
      "WindowCenter": [10345.0, 10307.0, 10292.0, 10269.0, 10244.0, 10248.0, 10280.0, 10272.0, 10252.0, 10237.0, 10238.0, 10264.0, 10265.0, 10255.0, 10242.0, 10266.0, 10273.0, 10256.0, 10242.0, 10234.0, 10256.0, 10252.0, 10246.0, 10230.0, 10222.0, 10244.0, 10260.0, 10248.0, 10227.0, 10235.0, 10236.0, 10222.0, 10225.0, 10236.0, 10236.0, 10213.0, 10229.0, 10241.0, 10238.0, 10229.0, 10234.0, 10250.0, 10243.0, 10221.0, 10245.0, 10246.0, 10249.0, 10250.0, 10246.0, 10245.0, 10247.0, 10238.0, 10243.0, 10247.0, 10238.0, 10227.0, 10222.0, 10230.0, 10245.0, 10254.0, 10253.0, 10250.0, 10248.0, 10230.0, 10213.0, 10230.0, 10234.0, 10233.0, 10235.0, 10247.0, 10243.0, 10234.0, 10233.0, 10240.0, 10236.0, 10260.0, 10263.0, 10266.0, 10247.0, 10246.0, 10236.0, 10241.0, 10245.0, 10254.0, 10265.0, 10260.0, 10236.0, 10228.0, 10234.0, 10225.0, 10242.0, 10244.0, 10232.0, 10234.0, 10225.0, 10231.0, 10245.0, 10262.0, 10254.0, 10239.0, 10254.0, 10248.0, 10242.0, 10250.0, 10265.0, 10247.0, 10225.0, 10220.0, 10231.0, 10224.0, 10228.0, 10240.0, 10240.0, 10243.0, 10247.0, 10233.0, 10219.0, 10204.0, 10221.0, 10226.0, 10230.0, 10223.0, 10240.0, 10251.0, 10228.0, 10230.0, 10232.0, 10224.0, 10222.0],
      "WindowWidth": [21928.0, 21826.0, 21777.0, 21726.0, 21662.0, 21676.0, 21746.0, 21726.0, 21688.0, 21647.0, 21651.0, 21714.0, 21718.0, 21689.0, 21662.0, 21718.0, 21733.0, 21693.0, 21656.0, 21641.0, 21692.0, 21686.0, 21668.0, 21626.0, 21611.0, 21667.0, 21705.0, 21669.0, 21621.0, 21639.0, 21638.0, 21607.0, 21624.0, 21653.0, 21638.0, 21593.0, 21634.0, 21654.0, 21645.0, 21623.0, 21642.0, 21678.0, 21666.0, 21619.0, 21664.0, 21667.0, 21676.0, 21676.0, 21666.0, 21669.0, 21665.0, 21643.0, 21663.0, 21665.0, 21643.0, 21626.0, 21609.0, 21632.0, 21671.0, 21691.0, 21686.0, 21685.0, 21675.0, 21632.0, 21597.0, 21640.0, 21639.0, 21638.0, 21645.0, 21677.0, 21660.0, 21639.0, 21638.0, 21652.0, 21647.0, 21700.0, 21714.0, 21714.0, 21673.0, 21674.0, 21646.0, 21655.0, 21667.0, 21690.0, 21712.0, 21699.0, 21642.0, 21624.0, 21649.0, 21619.0, 21659.0, 21655.0, 21629.0, 21635.0, 21617.0, 21628.0, 21667.0, 21705.0, 21684.0, 21652.0, 21688.0, 21678.0, 21656.0, 21690.0, 21716.0, 21671.0, 21616.0, 21612.0, 21630.0, 21620.0, 21622.0, 21656.0, 21649.0, 21656.0, 21672.0, 21640.0, 21606.0, 21577.0, 21617.0, 21629.0, 21630.0, 21613.0, 21665.0, 21678.0, 21628.0, 21646.0, 21647.0, 21627.0, 21620.0]
    },
    "slices": {}
  }
}