{
  "AcquisitionMatrixPE": 104,
  "AcquisitionNumber": 1,
  "AcquisitionTime": "16:01:52.237500",
  "BandwidthPerPixelPhaseEncode": 17.17,
  "BaseResolution": 104,
  "BodyPartExamined": "BRAIN",
  "CoilString": "HC1-7;NC1_2",
  "ConsistencyInfo": "N4_VE11C_LATEST_20160120",
  "ConversionSoftware": "dcm2niix",
  "ConversionSoftwareVersion": "v1.0.20190720  (JP2:OpenJPEG) GCC7.3.0",
  "DerivedVendorReportedEchoSpacing": 0.000560011,
  "DeviceSerialNumber": "167006",
  "DwellTime": 2.1e-06,
  "EchoTime": 0.037,
  "EchoTrainLength": 104,
  "EffectiveEchoSpacing": 0.000560011,
  "FlipAngle": 52,
  "ImageComments": "Unaliased_MB4_PE3_LB",
  "ImageOrientationPatientDICOM": [0.995736, 0.087498, 0.0292249, -0.073297, 0.942773, -0.325279],
  "ImageType": [
    "ORIGINAL",
    "PRIMARY",
    "M",
    "MB",
    "ND",
    "MOSAIC"
],
  "ImagingFrequency": 123.26,
  "InPlanePhaseEncodingDirectionDICOM": "COL",
  "InstitutionAddress": "Chemin_Queen-Mary_4565_Montreal_District_CA_H3W_1W5",
  "InstitutionName": "IUGM",
  "InstitutionalDepartmentName": "Department",
  "MRAcquisitionType": "2D",
  "MagneticFieldStrength": 3,
  "Manufacturer": "Siemens",
  "ManufacturersModelName": "Prisma_fit",
  "Modality": "MR",
  "MultibandAccelerationFactor": 4,
  "PartialFourier": 1,
  "PatientPosition": "HFS",
  "PercentPhaseFOV": 100,
  "PhaseEncodingDirection": "j",
  "PhaseEncodingSteps": 104,
  "PhaseResolution": 1,
  "PixelBandwidth": 2290,
  "ProcedureStepDescription": "hcptrt_generic",
  "ProtocolName": "func_task-social_run-1",
  "PulseSequenceDetails": "%CustomerSeq%_cmrr_mbep2d_bold",
  "ReceiveCoilActiveElements": "HC1-7;NC1,2",
  "ReceiveCoilName": "HeadNeck_64",
  "ReconMatrixPE": 104,
  "RepetitionTime": 1.49,
  "SAR": 0.0372402,
  "ScanOptions": "FS",
  "ScanningSequence": "EP",
  "SequenceName": "epfid2d1_104",
  "SequenceVariant": "SK_SS",
  "SeriesDescription": "func_task-social_run-1",
  "SeriesNumber": 25,
  "ShimSetting": [636, -7197, -8846, 721, 110, 16, -29, -4],
  "SliceThickness": 2,
  "SliceTiming": [0, 0.785, 0.0975, 0.8825, 0.195, 0.98, 0.295, 1.0775, 0.3925, 1.175, 0.49, 1.275, 0.5875, 1.3725, 0.685, 0, 0.785, 0.0975, 0.8825, 0.195, 0.98, 0.295, 1.0775, 0.3925, 1.175, 0.49, 1.275, 0.5875, 1.3725, 0.685, 0, 0.785, 0.0975, 0.8825, 0.195, 0.98, 0.295, 1.0775, 0.3925, 1.175, 0.49, 1.275, 0.5875, 1.3725, 0.685, 0, 0.785, 0.0975, 0.8825, 0.195, 0.98, 0.295, 1.0775, 0.3925, 1.175, 0.49, 1.275, 0.5875, 1.3725, 0.685],
  "SoftwareVersions": "syngo_MR_E11",
  "SpacingBetweenSlices": 2,
  "StationName": "MRC35049",
  "TaskName": "social",
  "TotalReadoutTime": 0.0576811,
  "TxRefAmp": 249.029,
  "WipMemBlock": "6ea65fc1-1661-4721-986b-2825849835b8||Sequence: R016 ve11c/master r/e634e98; Dec 19 2017 11:00:25 by eja",
  "dcmmeta_affine": [
    [-1.991471767425537, -0.1465940773487091, 0.11202745139598846, 110.2690200805664],
    [-0.17499597370624542, 1.885546088218689, -0.6435002088546753, -52.006839752197266],
    [0.05844980105757713, 0.6505584120750427, 1.890332579612732, -68.66020202636719],
    [0.0, 0.0, 0.0, 1.0]
],
  "dcmmeta_reorient_transform": [
    [0.0, -1.0, 0.0, 103.0],
    [1.0, 0.0, 0.0, 0.0],
    [0.0, 0.0, 1.0, 0.0],
    [0.0, 0.0, 0.0, 1.0]
],
  "dcmmeta_shape": [104, 104, 60, 139],
  "dcmmeta_slice_dim": 2,
  "dcmmeta_version": 0.6,
  "global": {
    "const": {
      "AcquisitionMatrix": [104, 0, 0, 104],
      "AngioFlag": "N",
      "BitsAllocated": 16,
      "BitsStored": 16,
      "BodyPartExamined": "BRAIN",
      "Columns": 832,
      "EchoNumbers": 1,
      "EchoTime": 37.0,
      "EchoTrainLength": 104,
      "FlipAngle": 52.0,
      "HighBit": 15,
      "ImageOrientationPatient": [0.99573591222867, 0.08749798992107, 0.02922490133268, -0.0732970373283, 0.9427730287731, -0.3252792039724],
      "ImagePositionPatient": [-766.70533346129, -892.24170474715, 213.87484276008],
      "ImageType": [
        "ORIGINAL",
        "PRIMARY",
        "M",
        "MB",
        "ND",
        "MOSAIC"
],
      "ImagedNucleus": "1H",
      "ImagingFrequency": 123.259588,
      "InPlanePhaseEncodingDirection": "COL",
      "MRAcquisitionType": "2D",
      "MagneticFieldStrength": 3.0,
      "Manufacturer": "SIEMENS",
      "ManufacturerModelName": "Prisma_fit",
      "Modality": "MR",
      "NumberOfAverages": 1.0,
      "NumberOfPhaseEncodingSteps": 104,
      "PercentPhaseFieldOfView": 100.0,
      "PercentSampling": 100.0,
      "PerformedProcedureStepStartTime": "145216.338000",
      "PhotometricInterpretation": "MONOCHROME2",
      "PixelBandwidth": 2290.0,
      "PixelRepresentation": 0,
      "PixelSpacing": [2.0, 2.0],
      "ProtocolName": "func_task-social_run-1",
      "RepetitionTime": 1490.0,
      "Rows": 832,
      "SAR": 0.03724018132687,
      "SamplesPerPixel": 1,
      "ScanOptions": "FS",
      "ScanningSequence": "EP",
      "SequenceName": "epfid2d1_104",
      "SequenceVariant": [
        "SK",
        "SS"
],
      "SeriesDescription": "func_task-social_run-1",
      "SeriesNumber": 25,
      "SeriesTime": "160257.081000",
      "SliceLocation": -41.985528603896,
      "SliceThickness": 2.0,
      "SmallestImagePixelValue": 0,
      "SoftwareVersions": "syngo MR E11",
      "SpacingBetweenSlices": 2.0000000251884,
      "SpecificCharacterSet": "ISO_IR 100",
      "StudyID": "1",
      "StudyTime": "145216.282000",
      "TransmitCoilName": "Body",
      "VariableFlipAngleFlag": "N",
      "WindowCenterWidthExplanation": "Algo1",
      "dBdt": 0.0},
    "slices": {}
  },
  "time": {
    "samples": {
      "AcquisitionNumber": [1, 2, 3, 4, 5, 6, 7, 8, 9, 10, 11, 12, 13, 14, 15, 16, 17, 18, 19, 20, 21, 22, 23, 24, 25, 26, 27, 28, 29, 30, 31, 32, 33, 34, 35, 36, 37, 38, 39, 40, 41, 42, 43, 44, 45, 46, 47, 48, 49, 50, 51, 52, 53, 54, 55, 56, 57, 58, 59, 60, 61, 62, 63, 64, 65, 66, 67, 68, 69, 70, 71, 72, 73, 74, 75, 76, 77, 78, 79, 80, 81, 82, 83, 84, 85, 86, 87, 88, 89, 90, 91, 92, 93, 94, 95, 96, 97, 98, 99, 100, 101, 102, 103, 104, 105, 106, 107, 108, 109, 110, 111, 112, 113, 114, 115, 116, 117, 118, 119, 120, 121, 122, 123, 124, 125, 126, 127, 128, 129, 130, 131, 132, 133, 134, 135, 136, 137, 138, 139],
      "AcquisitionTime": ["160152.237500", "160153.727500", "160155.217500", "160156.707500", "160158.197500", "160159.687500", "160201.177500", "160202.667500", "160204.157500", "160205.647500", "160207.137500", "160208.627500", "160210.117500", "160211.607500", "160213.097500", "160214.587500", "160216.077500", "160217.567500", "160219.057500", "160220.547500", "160222.037500", "160223.527500", "160225.017500", "160226.507500", "160227.997500", "160229.487500", "160230.977500", "160232.467500", "160233.957500", "160235.447500", "160236.937500", "160238.427500", "160239.917500", "160241.407500", "160242.897500", "160244.387500", "160245.877500", "160247.367500", "160248.857500", "160250.347500", "160251.837500", "160253.327500", "160254.817500", "160256.307500", "160257.797500", "160259.287500", "160300.777500", "160302.267500", "160303.757500", "160305.247500", "160306.737500", "160308.227500", "160309.717500", "160311.207500", "160312.697500", "160314.187500", "160315.677500", "160317.167500", "160318.657500", "160320.147500", "160321.637500", "160323.127500", "160324.617500", "160326.107500", "160327.597500", "160329.087500", "160330.577500", "160332.067500", "160333.557500", "160335.047500", "160336.537500", "160338.027500", "160339.517500", "160341.007500", "160342.497500", "160343.987500", "160345.477500", "160346.967500", "160348.457500", "160349.947500", "160351.437500", "160352.927500", "160354.417500", "160355.907500", "160357.397500", "160358.887500", "160400.377500", "160401.867500", "160403.357500", "160404.847500", "160406.337500", "160407.827500", "160409.317500", "160410.807500", "160412.297500", "160413.787500", "160415.277500", "160416.767500", "160418.257500", "160419.747500", "160421.237500", "160422.727500", "160424.217500", "160425.707500", "160427.197500", "160428.687500", "160430.177500", "160431.667500", "160433.157500", "160434.647500", "160436.137500", "160437.627500", "160439.117500", "160440.607500", "160442.097500", "160443.587500", "160445.077500", "160446.567500", "160448.057500", "160449.547500", "160451.037500", "160452.527500", "160454.017500", "160455.507500", "160456.997500", "160458.487500", "160459.977500", "160501.467500", "160502.957500", "160504.447500", "160505.937500", "160507.427500", "160508.917500", "160510.407500", "160511.897500", "160513.387500", "160514.877500", "160516.367500", "160517.857500"],
      "ContentTime": ["160257.084000", "160257.094000", "160257.097000", "160257.100000", "160257.103000", "160257.106000", "160257.109000", "160257.112000", "160257.114000", "160257.117000", "160257.120000", "160317.037000", "160317.040000", "160317.043000", "160317.046000", "160317.049000", "160317.052000", "160317.055000", "160317.058000", "160317.066000", "160317.068000", "160317.071000", "160317.074000", "160317.077000", "160317.080000", "160317.083000", "160317.086000", "160317.089000", "160317.092000", "160317.095000", "160317.102000", "160337.038000", "160337.041000", "160337.044000", "160337.047000", "160337.050000", "160337.053000", "160337.056000", "160337.059000", "160337.062000", "160337.064000", "160337.067000", "160337.070000", "160337.073000", "160337.076000", "160337.079000", "160337.082000", "160337.085000", "160337.088000", "160337.091000", "160337.094000", "160357.038000", "160357.041000", "160357.044000", "160357.047000", "160357.050000", "160357.053000", "160357.056000", "160357.059000", "160357.067000", "160357.069000", "160357.072000", "160357.075000", "160357.078000", "160357.081000", "160357.084000", "160357.087000", "160357.090000", "160357.093000", "160357.096000", "160357.099000", "160417.037000", "160417.040000", "160417.043000", "160417.046000", "160417.049000", "160417.052000", "160417.055000", "160417.058000", "160417.069000", "160417.072000", "160417.075000", "160417.078000", "160417.081000", "160417.084000", "160417.087000", "160417.090000", "160417.093000", "160417.096000", "160417.099000", "160417.103000", "160457.037000", "160457.040000", "160457.043000", "160457.046000", "160457.049000", "160457.052000", "160457.055000", "160457.058000", "160457.061000", "160457.064000", "160457.067000", "160457.070000", "160457.073000", "160457.076000", "160457.079000", "160457.082000", "160457.085000", "160457.088000", "160457.090000", "160457.093000", "160457.096000", "160457.099000", "160457.102000", "160457.105000", "160457.108000", "160457.111000", "160457.114000", "160457.117000", "160457.120000", "160457.123000", "160457.126000", "160457.129000", "160519.560000", "160519.563000", "160519.566000", "160519.569000", "160519.572000", "160519.576000", "160519.579000", "160519.582000", "160519.585000", "160519.589000", "160519.592000", "160519.595000", "160519.599000", "160519.602000", "160519.605000", "160519.609000"],
      "InstanceCreationTime": ["160257.084000", "160257.094000", "160257.097000", "160257.100000", "160257.103000", "160257.106000", "160257.109000", "160257.112000", "160257.114000", "160257.117000", "160257.120000", "160317.037000", "160317.040000", "160317.043000", "160317.046000", "160317.049000", "160317.052000", "160317.055000", "160317.058000", "160317.066000", "160317.068000", "160317.071000", "160317.074000", "160317.077000", "160317.080000", "160317.083000", "160317.086000", "160317.089000", "160317.092000", "160317.095000", "160317.102000", "160337.038000", "160337.041000", "160337.044000", "160337.047000", "160337.050000", "160337.053000", "160337.056000", "160337.059000", "160337.062000", "160337.064000", "160337.067000", "160337.070000", "160337.073000", "160337.076000", "160337.079000", "160337.082000", "160337.085000", "160337.088000", "160337.091000", "160337.094000", "160357.038000", "160357.041000", "160357.044000", "160357.047000", "160357.050000", "160357.053000", "160357.056000", "160357.059000", "160357.067000", "160357.069000", "160357.072000", "160357.075000", "160357.078000", "160357.081000", "160357.084000", "160357.087000", "160357.090000", "160357.093000", "160357.096000", "160357.099000", "160417.037000", "160417.040000", "160417.043000", "160417.046000", "160417.049000", "160417.052000", "160417.055000", "160417.058000", "160417.069000", "160417.072000", "160417.075000", "160417.078000", "160417.081000", "160417.084000", "160417.087000", "160417.090000", "160417.093000", "160417.096000", "160417.099000", "160417.103000", "160457.037000", "160457.040000", "160457.043000", "160457.046000", "160457.049000", "160457.052000", "160457.055000", "160457.058000", "160457.061000", "160457.064000", "160457.067000", "160457.070000", "160457.073000", "160457.076000", "160457.079000", "160457.082000", "160457.085000", "160457.088000", "160457.090000", "160457.093000", "160457.096000", "160457.099000", "160457.102000", "160457.105000", "160457.108000", "160457.111000", "160457.114000", "160457.117000", "160457.120000", "160457.123000", "160457.126000", "160457.129000", "160519.560000", "160519.563000", "160519.566000", "160519.569000", "160519.572000", "160519.576000", "160519.579000", "160519.582000", "160519.585000", "160519.589000", "160519.592000", "160519.595000", "160519.599000", "160519.602000", "160519.605000", "160519.609000"],
      "InstanceNumber": [1, 2, 3, 4, 5, 6, 7, 8, 9, 10, 11, 12, 13, 14, 15, 16, 17, 18, 19, 20, 21, 22, 23, 24, 25, 26, 27, 28, 29, 30, 31, 32, 33, 34, 35, 36, 37, 38, 39, 40, 41, 42, 43, 44, 45, 46, 47, 48, 49, 50, 51, 52, 53, 54, 55, 56, 57, 58, 59, 60, 61, 62, 63, 64, 65, 66, 67, 68, 69, 70, 71, 72, 73, 74, 75, 76, 77, 78, 79, 80, 81, 82, 83, 84, 85, 86, 87, 88, 89, 90, 91, 92, 93, 94, 95, 96, 97, 98, 99, 100, 101, 102, 103, 104, 105, 106, 107, 108, 109, 110, 111, 112, 113, 114, 115, 116, 117, 118, 119, 120, 121, 122, 123, 124, 125, 126, 127, 128, 129, 130, 131, 132, 133, 134, 135, 136, 137, 138, 139],
      "LargestImagePixelValue": [44890, 43850, 42888, 42040, 41004, 39989, 41471, 41278, 41263, 41047, 41269, 40810, 40094, 39945, 40443, 40328, 40498, 41083, 40453, 40058, 40426, 40161, 39952, 39662, 40258, 40392, 39221, 38919, 39887, 39758, 39938, 39016, 39499, 39699, 39527, 40449, 40038, 40142, 39323, 39889, 40564, 40253, 39480, 39846, 40020, 40638, 40398, 40467, 40479, 40227, 40755, 40296, 40587, 40382, 40564, 40503, 41286, 40690, 40176, 40522, 40672, 40219, 40367, 40474, 40625, 40981, 40420, 40950, 41278, 40328, 40507, 41476, 41254, 40916, 40964, 41263, 41753, 41098, 40986, 41416, 41589, 41595, 41036, 41144, 41503, 41970, 41006, 40859, 41631, 41520, 40967, 41059, 41001, 41500, 42123, 40885, 41280, 41311, 41055, 40764, 41546, 40464, 41440, 40727, 40871, 41269, 40982, 41961, 40962, 40696, 41112, 40867, 41394, 41025, 40628, 41095, 41302, 41090, 41266, 41337, 41439, 40860, 40878, 40936, 41238, 41470, 40711, 41433, 41845, 41360, 40857, 40667, 40544, 41363, 41131, 41430, 40777, 40928, 40882],
      "WindowCenter": [10323.0, 10263.0, 10221.0, 10180.0, 10165.0, 10196.0, 10227.0, 10206.0, 10190.0, 10179.0, 10175.0, 10194.0, 10221.0, 10227.0, 10206.0, 10187.0, 10182.0, 10187.0, 10212.0, 10218.0, 10207.0, 10179.0, 10149.0, 10147.0, 10180.0, 10194.0, 10184.0, 10157.0, 10152.0, 10160.0, 10174.0, 10146.0, 10142.0, 10138.0, 10152.0, 10184.0, 10199.0, 10190.0, 10169.0, 10171.0, 10194.0, 10223.0, 10207.0, 10197.0, 10179.0, 10192.0, 10217.0, 10211.0, 10199.0, 10183.0, 10197.0, 10210.0, 10219.0, 10202.0, 10182.0, 10160.0, 10156.0, 10166.0, 10199.0, 10198.0, 10180.0, 10162.0, 10161.0, 10175.0, 10182.0, 10182.0, 10189.0, 10210.0, 10199.0, 10179.0, 10194.0, 10206.0, 10206.0, 10220.0, 10231.0, 10219.0, 10202.0, 10197.0, 10205.0, 10193.0, 10177.0, 10164.0, 10174.0, 10176.0, 10172.0, 10160.0, 10154.0, 10181.0, 10190.0, 10175.0, 10167.0, 10182.0, 10203.0, 10207.0, 10196.0, 10168.0, 10182.0, 10183.0, 10183.0, 10194.0, 10218.0, 10199.0, 10207.0, 10191.0, 10205.0, 10197.0, 10196.0, 10191.0, 10194.0, 10217.0, 10216.0, 10197.0, 10194.0, 10176.0, 10160.0, 10174.0, 10180.0, 10182.0, 10211.0, 10222.0, 10209.0, 10186.0, 10186.0, 10194.0, 10204.0, 10210.0, 10208.0, 10207.0, 10184.0, 10167.0, 10184.0, 10196.0, 10184.0, 10178.0, 10178.0, 10182.0, 10183.0, 10197.0, 10181.0],
      "WindowWidth": [21872.0, 21710.0, 21602.0, 21509.0, 21478.0, 21556.0, 21619.0, 21566.0, 21529.0, 21512.0, 21495.0, 21540.0, 21611.0, 21623.0, 21571.0, 21529.0, 21522.0, 21529.0, 21591.0, 21606.0, 21577.0, 21514.0, 21440.0, 21439.0, 21514.0, 21549.0, 21537.0, 21470.0, 21455.0, 21478.0, 21504.0, 21445.0, 21440.0, 21423.0, 21452.0, 21523.0, 21560.0, 21537.0, 21494.0, 21497.0, 21549.0, 21616.0, 21586.0, 21555.0, 21514.0, 21542.0, 21609.0, 21593.0, 21559.0, 21526.0, 21558.0, 21592.0, 21612.0, 21568.0, 21523.0, 21469.0, 21456.0, 21481.0, 21562.0, 21553.0, 21514.0, 21470.0, 21472.0, 21502.0, 21517.0, 21515.0, 21539.0, 21579.0, 21552.0, 21509.0, 21544.0, 21568.0, 21567.0, 21605.0, 21630.0, 21598.0, 21559.0, 21553.0, 21572.0, 21542.0, 21508.0, 21472.0, 21503.0, 21500.0, 21486.0, 21455.0, 21447.0, 21513.0, 21531.0, 21499.0, 21481.0, 21515.0, 21563.0, 21565.0, 21538.0, 21482.0, 21517.0, 21516.0, 21515.0, 21543.0, 21593.0, 21555.0, 21569.0, 21546.0, 21573.0, 21551.0, 21553.0, 21532.0, 21545.0, 21598.0, 21593.0, 21548.0, 21540.0, 21499.0, 21464.0, 21495.0, 21506.0, 21511.0, 21581.0, 21611.0, 21572.0, 21524.0, 21527.0, 21546.0, 21572.0, 21579.0, 21580.0, 21579.0, 21517.0, 21480.0, 21522.0, 21547.0, 21523.0, 21505.0, 21520.0, 21520.0, 21532.0, 21559.0, 21521.0]
    },
    "slices": {}
  }
}