{
  "AcquisitionMatrixPE": 104,
  "AcquisitionNumber": 1,
  "AcquisitionTime": "15:42:9.662500",
  "BandwidthPerPixelPhaseEncode": 17.17,
  "BaseResolution": 104,
  "BodyPartExamined": "BRAIN",
  "CoilString": "HC1-7;NC1_2",
  "ConsistencyInfo": "N4_VE11C_LATEST_20160120",
  "ConversionSoftware": "dcm2niix",
  "ConversionSoftwareVersion": "v1.0.20190720  (JP2:OpenJPEG) GCC7.3.0",
  "DerivedVendorReportedEchoSpacing": 0.000560011,
  "DeviceSerialNumber": "167006",
  "DwellTime": 2.1e-06,
  "EchoTime": 0.037,
  "EchoTrainLength": 104,
  "EffectiveEchoSpacing": 0.000560011,
  "FlipAngle": 52,
  "ImageComments": "Unaliased_MB4_PE3_LB",
  "ImageOrientationPatientDICOM": [0.995736, 0.087498, 0.0292249, -0.073297, 0.942773, -0.325279],
  "ImageType": [
    "ORIGINAL",
    "PRIMARY",
    "M",
    "MB",
    "ND",
    "MOSAIC"
],
  "ImagingFrequency": 123.26,
  "InPlanePhaseEncodingDirectionDICOM": "COL",
  "InstitutionAddress": "Chemin_Queen-Mary_4565_Montreal_District_CA_H3W_1W5",
  "InstitutionName": "IUGM",
  "InstitutionalDepartmentName": "Department",
  "MRAcquisitionType": "2D",
  "MagneticFieldStrength": 3,
  "Manufacturer": "Siemens",
  "ManufacturersModelName": "Prisma_fit",
  "Modality": "MR",
  "MultibandAccelerationFactor": 4,
  "PartialFourier": 1,
  "PatientPosition": "HFS",
  "PercentPhaseFOV": 100,
  "PhaseEncodingDirection": "j",
  "PhaseEncodingSteps": 104,
  "PhaseResolution": 1,
  "PixelBandwidth": 2290,
  "ProcedureStepDescription": "hcptrt_generic",
  "ProtocolName": "func_task-relational_run-1",
  "PulseSequenceDetails": "%CustomerSeq%_cmrr_mbep2d_bold",
  "ReceiveCoilActiveElements": "HC1-7;NC1,2",
  "ReceiveCoilName": "HeadNeck_64",
  "ReconMatrixPE": 104,
  "RepetitionTime": 1.49,
  "SAR": 0.037157,
  "ScanOptions": "FS",
  "ScanningSequence": "EP",
  "SequenceName": "epfid2d1_104",
  "SequenceVariant": "SK_SS",
  "SeriesDescription": "func_task-relational_run-1",
  "SeriesNumber": 17,
  "ShimSetting": [636, -7197, -8846, 721, 110, 16, -29, -4],
  "SliceThickness": 2,
  "SliceTiming": [0, 0.7825, 0.0975, 0.88, 0.195, 0.98, 0.2925, 1.0775, 0.39, 1.175, 0.49, 1.2725, 0.5875, 1.37, 0.685, 0, 0.7825, 0.0975, 0.88, 0.195, 0.98, 0.2925, 1.0775, 0.39, 1.175, 0.49, 1.2725, 0.5875, 1.37, 0.685, 0, 0.7825, 0.0975, 0.88, 0.195, 0.98, 0.2925, 1.0775, 0.39, 1.175, 0.49, 1.2725, 0.5875, 1.37, 0.685, 0, 0.7825, 0.0975, 0.88, 0.195, 0.98, 0.2925, 1.0775, 0.39, 1.175, 0.49, 1.2725, 0.5875, 1.37, 0.685],
  "SoftwareVersions": "syngo_MR_E11",
  "SpacingBetweenSlices": 2,
  "StationName": "MRC35049",
  "TaskName": "relational",
  "TotalReadoutTime": 0.0576811,
  "TxRefAmp": 249.029,
  "WipMemBlock": "2862cdc8-03ea-491c-8736-1155c4093b62||Sequence: R016 ve11c/master r/e634e98; Dec 19 2017 11:00:25 by eja",
  "dcmmeta_affine": [
    [-1.991471767425537, -0.1465940773487091, 0.11202745139598846, 110.2690200805664],
    [-0.17499597370624542, 1.885546088218689, -0.6435002088546753, -52.006839752197266],
    [0.05844980105757713, 0.6505584120750427, 1.890332579612732, -68.66020202636719],
    [0.0, 0.0, 0.0, 1.0]
],
  "dcmmeta_reorient_transform": [
    [0.0, -1.0, 0.0, 103.0],
    [1.0, 0.0, 0.0, 0.0],
    [0.0, 0.0, 1.0, 0.0],
    [0.0, 0.0, 0.0, 1.0]
],
  "dcmmeta_shape": [104, 104, 60, 119],
  "dcmmeta_slice_dim": 2,
  "dcmmeta_version": 0.6,
  "global": {
    "const": {
      "AcquisitionMatrix": [104, 0, 0, 104],
      "AngioFlag": "N",
      "BitsAllocated": 16,
      "BitsStored": 16,
      "BodyPartExamined": "BRAIN",
      "Columns": 832,
      "EchoNumbers": 1,
      "EchoTime": 37.0,
      "EchoTrainLength": 104,
      "FlipAngle": 52.0,
      "HighBit": 15,
      "ImageOrientationPatient": [0.99573591222867, 0.08749798992107, 0.02922490133268, -0.0732970373283, 0.9427730287731, -0.3252792039724],
      "ImagePositionPatient": [-766.70533346129, -892.24170474715, 213.87484276008],
      "ImageType": [
        "ORIGINAL",
        "PRIMARY",
        "M",
        "MB",
        "ND",
        "MOSAIC"
],
      "ImagedNucleus": "1H",
      "ImagingFrequency": 123.25958,
      "InPlanePhaseEncodingDirection": "COL",
      "MRAcquisitionType": "2D",
      "MagneticFieldStrength": 3.0,
      "Manufacturer": "SIEMENS",
      "ManufacturerModelName": "Prisma_fit",
      "Modality": "MR",
      "NumberOfAverages": 1.0,
      "NumberOfPhaseEncodingSteps": 104,
      "PercentPhaseFieldOfView": 100.0,
      "PercentSampling": 100.0,
      "PerformedProcedureStepStartTime": "145216.338000",
      "PhotometricInterpretation": "MONOCHROME2",
      "PixelBandwidth": 2290.0,
      "PixelRepresentation": 0,
      "PixelSpacing": [2.0, 2.0],
      "ProtocolName": "func_task-relational_run-1",
      "RepetitionTime": 1490.0,
      "Rows": 832,
      "SAR": 0.03715699800041,
      "SamplesPerPixel": 1,
      "ScanOptions": "FS",
      "ScanningSequence": "EP",
      "SequenceName": "epfid2d1_104",
      "SequenceVariant": [
        "SK",
        "SS"
],
      "SeriesDescription": "func_task-relational_run-1",
      "SeriesNumber": 17,
      "SeriesTime": "154312.732000",
      "SliceLocation": -41.985528603896,
      "SliceThickness": 2.0,
      "SmallestImagePixelValue": 0,
      "SoftwareVersions": "syngo MR E11",
      "SpacingBetweenSlices": 2.0000000251884,
      "SpecificCharacterSet": "ISO_IR 100",
      "StudyID": "1",
      "StudyTime": "145216.282000",
      "TransmitCoilName": "Body",
      "VariableFlipAngleFlag": "N",
      "WindowCenterWidthExplanation": "Algo1",
      "dBdt": 0.0},
    "slices": {}
  },
  "time": {
    "samples": {
      "AcquisitionNumber": [1, 2, 3, 4, 5, 6, 7, 8, 9, 10, 11, 12, 13, 14, 15, 16, 17, 18, 19, 20, 21, 22, 23, 24, 25, 26, 27, 28, 29, 30, 31, 32, 33, 34, 35, 36, 37, 38, 39, 40, 41, 42, 43, 44, 45, 46, 47, 48, 49, 50, 51, 52, 53, 54, 55, 56, 57, 58, 59, 60, 61, 62, 63, 64, 65, 66, 67, 68, 69, 70, 71, 72, 73, 74, 75, 76, 77, 78, 79, 80, 81, 82, 83, 84, 85, 86, 87, 88, 89, 90, 91, 92, 93, 94, 95, 96, 97, 98, 99, 100, 101, 102, 103, 104, 105, 106, 107, 108, 109, 110, 111, 112, 113, 114, 115, 116, 117, 118, 119],
      "AcquisitionTime": ["154209.662500", "154211.152500", "154212.642500", "154214.132500", "154215.622500", "154217.112500", "154218.602500", "154220.092500", "154221.582500", "154223.072500", "154224.562500", "154226.052500", "154227.542500", "154229.032500", "154230.522500", "154232.012500", "154233.502500", "154234.992500", "154236.482500", "154237.972500", "154239.462500", "154240.952500", "154242.442500", "154243.932500", "154245.422500", "154246.912500", "154248.402500", "154249.892500", "154251.382500", "154252.872500", "154254.362500", "154255.852500", "154257.342500", "154258.832500", "154300.322500", "154301.812500", "154303.302500", "154304.792500", "154306.282500", "154307.772500", "154309.262500", "154310.752500", "154312.242500", "154313.732500", "154315.222500", "154316.712500", "154318.202500", "154319.692500", "154321.182500", "154322.672500", "154324.162500", "154325.652500", "154327.142500", "154328.632500", "154330.122500", "154331.612500", "154333.102500", "154334.592500", "154336.082500", "154337.572500", "154339.062500", "154340.552500", "154342.042500", "154343.532500", "154345.022500", "154346.512500", "154348.002500", "154349.492500", "154350.982500", "154352.472500", "154353.962500", "154355.452500", "154356.942500", "154358.432500", "154359.922500", "154401.412500", "154402.902500", "154404.392500", "154405.882500", "154407.372500", "154408.862500", "154410.352500", "154411.842500", "154413.332500", "154414.822500", "154416.312500", "154417.802500", "154419.292500", "154420.782500", "154422.272500", "154423.762500", "154425.252500", "154426.742500", "154428.232500", "154429.722500", "154431.212500", "154432.702500", "154434.192500", "154435.682500", "154437.172500", "154438.662500", "154440.152500", "154441.642500", "154443.132500", "154444.622500", "154446.112500", "154447.602500", "154449.092500", "154450.582500", "154452.072500", "154453.562500", "154455.052500", "154456.542500", "154458.032500", "154459.522500", "154501.012500", "154502.502500", "154503.992500", "154505.482500"],
      "ContentTime": ["154312.735000", "154312.743000", "154312.746000", "154312.748000", "154312.751000", "154312.754000", "154312.757000", "154312.760000", "154312.763000", "154332.700000", "154332.703000", "154332.706000", "154332.709000", "154332.712000", "154332.715000", "154332.718000", "154332.721000", "154332.723000", "154332.726000", "154332.729000", "154332.735000", "154332.738000", "154332.740000", "154332.743000", "154332.746000", "154332.749000", "154332.752000", "154332.755000", "154332.758000", "154352.700000", "154352.703000", "154352.706000", "154352.709000", "154352.712000", "154352.715000", "154352.718000", "154352.720000", "154352.723000", "154352.726000", "154352.729000", "154352.732000", "154352.735000", "154352.738000", "154352.741000", "154352.744000", "154352.747000", "154352.750000", "154352.753000", "154352.756000", "154412.700000", "154412.703000", "154412.706000", "154412.709000", "154412.712000", "154412.715000", "154412.718000", "154412.720000", "154412.723000", "154412.726000", "154412.729000", "154412.732000", "154412.735000", "154412.738000", "154412.746000", "154412.749000", "154412.771000", "154412.774000", "154412.777000", "154412.780000", "154432.700000", "154432.703000", "154432.706000", "154432.709000", "154432.712000", "154432.715000", "154432.718000", "154432.721000", "154432.723000", "154432.726000", "154432.729000", "154432.732000", "154432.735000", "154432.738000", "154432.741000", "154432.744000", "154432.747000", "154432.750000", "154432.753000", "154432.755000", "154508.072000", "154508.075000", "154508.078000", "154508.081000", "154508.084000", "154508.087000", "154508.090000", "154508.093000", "154508.095000", "154508.098000", "154508.101000", "154508.104000", "154508.107000", "154508.110000", "154508.113000", "154508.116000", "154508.119000", "154508.122000", "154508.125000", "154508.128000", "154508.131000", "154508.134000", "154508.137000", "154508.140000", "154508.142000", "154508.150000", "154508.153000", "154508.156000", "154508.159000", "154508.162000"],
      "InstanceCreationTime": ["154312.735000", "154312.743000", "154312.746000", "154312.748000", "154312.751000", "154312.754000", "154312.757000", "154312.760000", "154312.763000", "154332.700000", "154332.703000", "154332.706000", "154332.709000", "154332.712000", "154332.715000", "154332.718000", "154332.721000", "154332.723000", "154332.726000", "154332.729000", "154332.735000", "154332.738000", "154332.740000", "154332.743000", "154332.746000", "154332.749000", "154332.752000", "154332.755000", "154332.758000", "154352.700000", "154352.703000", "154352.706000", "154352.709000", "154352.712000", "154352.715000", "154352.718000", "154352.720000", "154352.723000", "154352.726000", "154352.729000", "154352.732000", "154352.735000", "154352.738000", "154352.741000", "154352.744000", "154352.747000", "154352.750000", "154352.753000", "154352.756000", "154412.700000", "154412.703000", "154412.706000", "154412.709000", "154412.712000", "154412.715000", "154412.718000", "154412.720000", "154412.723000", "154412.726000", "154412.729000", "154412.732000", "154412.735000", "154412.738000", "154412.746000", "154412.749000", "154412.771000", "154412.774000", "154412.777000", "154412.780000", "154432.700000", "154432.703000", "154432.706000", "154432.709000", "154432.712000", "154432.715000", "154432.718000", "154432.721000", "154432.723000", "154432.726000", "154432.729000", "154432.732000", "154432.735000", "154432.738000", "154432.741000", "154432.744000", "154432.747000", "154432.750000", "154432.753000", "154432.755000", "154508.072000", "154508.075000", "154508.078000", "154508.081000", "154508.084000", "154508.087000", "154508.090000", "154508.093000", "154508.095000", "154508.098000", "154508.101000", "154508.104000", "154508.107000", "154508.110000", "154508.113000", "154508.116000", "154508.119000", "154508.122000", "154508.125000", "154508.128000", "154508.131000", "154508.134000", "154508.137000", "154508.140000", "154508.142000", "154508.150000", "154508.153000", "154508.156000", "154508.159000", "154508.162000"],
      "InstanceNumber": [1, 2, 3, 4, 5, 6, 7, 8, 9, 10, 11, 12, 13, 14, 15, 16, 17, 18, 19, 20, 21, 22, 23, 24, 25, 26, 27, 28, 29, 30, 31, 32, 33, 34, 35, 36, 37, 38, 39, 40, 41, 42, 43, 44, 45, 46, 47, 48, 49, 50, 51, 52, 53, 54, 55, 56, 57, 58, 59, 60, 61, 62, 63, 64, 65, 66, 67, 68, 69, 70, 71, 72, 73, 74, 75, 76, 77, 78, 79, 80, 81, 82, 83, 84, 85, 86, 87, 88, 89, 90, 91, 92, 93, 94, 95, 96, 97, 98, 99, 100, 101, 102, 103, 104, 105, 106, 107, 108, 109, 110, 111, 112, 113, 114, 115, 116, 117, 118, 119],
      "LargestImagePixelValue": [42036, 40974, 40615, 39959, 40135, 39755, 40547, 39239, 39496, 39652, 39599, 39544, 39532, 39698, 40208, 40392, 39878, 40073, 39691, 40477, 40120, 40322, 40596, 40278, 40473, 40572, 40128, 40190, 40056, 40546, 40140, 40376, 40509, 40795, 40098, 40726, 40835, 40320, 40680, 40411, 40119, 40662, 40763, 40220, 40464, 40211, 40064, 40415, 40466, 40680, 40782, 40301, 40403, 40276, 40370, 40903, 40890, 40401, 41138, 40396, 40506, 40526, 40756, 40615, 40970, 40489, 40883, 40927, 41107, 40552, 40763, 40323, 40474, 40710, 40527, 40596, 40843, 40467, 40495, 40779, 40278, 40573, 40654, 40560, 40523, 40531, 40223, 40555, 40573, 40376, 40838, 40539, 40805, 40601, 40871, 40936, 40497, 40783, 40545, 40682, 40586, 40667, 40528, 40931, 40590, 40660, 40632, 40897, 40747, 41068, 41235, 41058, 40575, 40672, 40416, 40850, 40948, 40660, 41147],
      "WindowCenter": [10279.0, 10265.0, 10244.0, 10218.0, 10218.0, 10227.0, 10223.0, 10204.0, 10214.0, 10219.0, 10219.0, 10229.0, 10230.0, 10237.0, 10253.0, 10253.0, 10254.0, 10248.0, 10241.0, 10245.0, 10236.0, 10251.0, 10242.0, 10235.0, 10235.0, 10233.0, 10211.0, 10233.0, 10239.0, 10235.0, 10235.0, 10245.0, 10242.0, 10226.0, 10221.0, 10235.0, 10226.0, 10226.0, 10231.0, 10217.0, 10221.0, 10243.0, 10242.0, 10244.0, 10236.0, 10223.0, 10225.0, 10234.0, 10240.0, 10252.0, 10252.0, 10251.0, 10254.0, 10247.0, 10244.0, 10248.0, 10231.0, 10224.0, 10238.0, 10226.0, 10243.0, 10241.0, 10234.0, 10242.0, 10234.0, 10231.0, 10239.0, 10224.0, 10214.0, 10215.0, 10227.0, 10223.0, 10219.0, 10227.0, 10222.0, 10224.0, 10231.0, 10225.0, 10250.0, 10259.0, 10245.0, 10251.0, 10243.0, 10225.0, 10233.0, 10234.0, 10226.0, 10243.0, 10259.0, 10237.0, 10230.0, 10225.0, 10214.0, 10204.0, 10220.0, 10228.0, 10234.0, 10260.0, 10260.0, 10263.0, 10254.0, 10247.0, 10244.0, 10237.0, 10222.0, 10224.0, 10222.0, 10224.0, 10207.0, 10222.0, 10231.0, 10223.0, 10242.0, 10249.0, 10232.0, 10243.0, 10264.0, 10257.0, 10245.0],
      "WindowWidth": [21775.0, 21747.0, 21677.0, 21608.0, 21610.0, 21631.0, 21613.0, 21578.0, 21602.0, 21608.0, 21607.0, 21632.0, 21637.0, 21650.0, 21689.0, 21686.0, 21691.0, 21682.0, 21666.0, 21669.0, 21649.0, 21679.0, 21658.0, 21646.0, 21646.0, 21637.0, 21590.0, 21640.0, 21659.0, 21643.0, 21644.0, 21670.0, 21661.0, 21625.0, 21620.0, 21650.0, 21627.0, 21635.0, 21637.0, 21608.0, 21623.0, 21665.0, 21660.0, 21662.0, 21644.0, 21611.0, 21620.0, 21642.0, 21654.0, 21684.0, 21683.0, 21681.0, 21691.0, 21674.0, 21667.0, 21670.0, 21628.0, 21615.0, 21648.0, 21623.0, 21666.0, 21655.0, 21637.0, 21657.0, 21638.0, 21631.0, 21649.0, 21616.0, 21592.0, 21596.0, 21632.0, 21635.0, 21617.0, 21636.0, 21630.0, 21620.0, 21634.0, 21621.0, 21679.0, 21695.0, 21664.0, 21676.0, 21663.0, 21620.0, 21637.0, 21646.0, 21621.0, 21663.0, 21698.0, 21644.0, 21623.0, 21616.0, 21589.0, 21570.0, 21604.0, 21622.0, 21643.0, 21704.0, 21699.0, 21709.0, 21686.0, 21683.0, 21668.0, 21649.0, 21615.0, 21617.0, 21616.0, 21620.0, 21579.0, 21613.0, 21632.0, 21613.0, 21681.0, 21691.0, 21649.0, 21670.0, 21719.0, 21702.0, 21674.0]
    },
    "slices": {}
  }
}