{
  "AcquisitionMatrixPE": 104,
  "AcquisitionNumber": 1,
  "AcquisitionTime": "15:14:48.280000",
  "BandwidthPerPixelPhaseEncode": 17.17,
  "BaseResolution": 104,
  "BodyPartExamined": "BRAIN",
  "CoilString": "HC1-7;NC1_2",
  "ConsistencyInfo": "N4_VE11C_LATEST_20160120",
  "ConversionSoftware": "dcm2niix",
  "ConversionSoftwareVersion": "v1.0.20190720  (JP2:OpenJPEG) GCC7.3.0",
  "DerivedVendorReportedEchoSpacing": 0.000560011,
  "DeviceSerialNumber": "167006",
  "DwellTime": 2.1e-06,
  "EchoTime": 0.037,
  "EchoTrainLength": 104,
  "EffectiveEchoSpacing": 0.000560011,
  "FlipAngle": 52,
  "ImageComments": "Unaliased_MB4_PE3_LB",
  "ImageOrientationPatientDICOM": [0.995736, 0.087498, 0.0292249, -0.073297, 0.942773, -0.325279],
  "ImageType": [
    "ORIGINAL",
    "PRIMARY",
    "M",
    "MB",
    "ND",
    "MOSAIC"
],
  "ImagingFrequency": 123.26,
  "InPlanePhaseEncodingDirectionDICOM": "COL",
  "InstitutionAddress": "Chemin_Queen-Mary_4565_Montreal_District_CA_H3W_1W5",
  "InstitutionName": "IUGM",
  "InstitutionalDepartmentName": "Department",
  "MRAcquisitionType": "2D",
  "MagneticFieldStrength": 3,
  "Manufacturer": "Siemens",
  "ManufacturersModelName": "Prisma_fit",
  "Modality": "MR",
  "MultibandAccelerationFactor": 4,
  "PartialFourier": 1,
  "PatientPosition": "HFS",
  "PercentPhaseFOV": 100,
  "PhaseEncodingDirection": "j",
  "PhaseEncodingSteps": 104,
  "PhaseResolution": 1,
  "PixelBandwidth": 2290,
  "ProcedureStepDescription": "hcptrt_generic",
  "ProtocolName": "func_task-restingstate_run-1",
  "PulseSequenceDetails": "%CustomerSeq%_cmrr_mbep2d_bold",
  "ReceiveCoilActiveElements": "HC1-7;NC1,2",
  "ReceiveCoilName": "HeadNeck_64",
  "ReconMatrixPE": 104,
  "RepetitionTime": 1.49,
  "SAR": 0.0376382,
  "ScanOptions": "FS",
  "ScanningSequence": "EP",
  "SequenceName": "epfid2d1_104",
  "SequenceVariant": "SK_SS",
  "SeriesDescription": "func_task-restingstate_run-1",
  "SeriesNumber": 9,
  "ShimSetting": [636, -7197, -8846, 721, 110, 16, -29, -4],
  "SliceThickness": 2,
  "SliceTiming": [0, 0.785, 0.1, 0.8825, 0.1975, 0.98, 0.295, 1.08, 0.3925, 1.1775, 0.49, 1.275, 0.59, 1.3725, 0.6875, 0, 0.785, 0.1, 0.8825, 0.1975, 0.98, 0.295, 1.08, 0.3925, 1.1775, 0.49, 1.275, 0.59, 1.3725, 0.6875, 0, 0.785, 0.1, 0.8825, 0.1975, 0.98, 0.295, 1.08, 0.3925, 1.1775, 0.49, 1.275, 0.59, 1.3725, 0.6875, 0, 0.785, 0.1, 0.8825, 0.1975, 0.98, 0.295, 1.08, 0.3925, 1.1775, 0.49, 1.275, 0.59, 1.3725, 0.6875],
  "SoftwareVersions": "syngo_MR_E11",
  "SpacingBetweenSlices": 2,
  "StationName": "MRC35049",
  "TaskName": "restingstate",
  "TotalReadoutTime": 0.0576811,
  "TxRefAmp": 249.029,
  "WipMemBlock": "b5b4a254-b96c-4b49-8841-7ff18d39c01f||Sequence: R016 ve11c/master r/e634e98; Dec 19 2017 11:00:25 by eja",
  "dcmmeta_affine": [
    [-1.991471767425537, -0.1465940773487091, 0.11202745139598846, 110.2690200805664],
    [-0.17499597370624542, 1.885546088218689, -0.6435002088546753, -52.006839752197266],
    [0.05844980105757713, 0.6505584120750427, 1.890332579612732, -68.66020202636719],
    [0.0, 0.0, 0.0, 1.0]
],
  "dcmmeta_reorient_transform": [
    [0.0, -1.0, 0.0, 103.0],
    [1.0, 0.0, 0.0, 0.0],
    [0.0, 0.0, 1.0, 0.0],
    [0.0, 0.0, 0.0, 1.0]
],
  "dcmmeta_shape": [104, 104, 60, 600],
  "dcmmeta_slice_dim": 2,
  "dcmmeta_version": 0.6,
  "global": {
    "const": {
      "AcquisitionMatrix": [104, 0, 0, 104],
      "AngioFlag": "N",
      "BitsAllocated": 16,
      "BitsStored": 16,
      "BodyPartExamined": "BRAIN",
      "Columns": 832,
      "EchoNumbers": 1,
      "EchoTime": 37.0,
      "EchoTrainLength": 104,
      "FlipAngle": 52.0,
      "HighBit": 15,
      "ImageOrientationPatient": [0.99573591222867, 0.08749798992107, 0.02922490133268, -0.0732970373283, 0.9427730287731, -0.3252792039724],
      "ImagePositionPatient": [-766.70533346129, -892.24170474715, 213.87484276008],
      "ImageType": [
        "ORIGINAL",
        "PRIMARY",
        "M",
        "MB",
        "ND",
        "MOSAIC"
],
      "ImagedNucleus": "1H",
      "ImagingFrequency": 123.259567,
      "InPlanePhaseEncodingDirection": "COL",
      "MRAcquisitionType": "2D",
      "MagneticFieldStrength": 3.0,
      "Manufacturer": "SIEMENS",
      "ManufacturerModelName": "Prisma_fit",
      "Modality": "MR",
      "NumberOfAverages": 1.0,
      "NumberOfPhaseEncodingSteps": 104,
      "PercentPhaseFieldOfView": 100.0,
      "PercentSampling": 100.0,
      "PerformedProcedureStepStartTime": "145216.338000",
      "PhotometricInterpretation": "MONOCHROME2",
      "PixelBandwidth": 2290.0,
      "PixelRepresentation": 0,
      "PixelSpacing": [2.0, 2.0],
      "ProtocolName": "func_task-restingstate_run-1",
      "RepetitionTime": 1490.0,
      "Rows": 832,
      "SAR": 0.03763822208973,
      "SamplesPerPixel": 1,
      "ScanOptions": "FS",
      "ScanningSequence": "EP",
      "SequenceName": "epfid2d1_104",
      "SequenceVariant": [
        "SK",
        "SS"
],
      "SeriesDescription": "func_task-restingstate_run-1",
      "SeriesNumber": 9,
      "SeriesTime": "151612.915000",
      "SliceLocation": -41.985528603896,
      "SliceThickness": 2.0,
      "SmallestImagePixelValue": 0,
      "SoftwareVersions": "syngo MR E11",
      "SpacingBetweenSlices": 2.0000000251884,
      "SpecificCharacterSet": "ISO_IR 100",
      "StudyID": "1",
      "StudyTime": "145216.282000",
      "TransmitCoilName": "Body",
      "VariableFlipAngleFlag": "N",
      "WindowCenterWidthExplanation": "Algo1",
      "dBdt": 0.0},
    "slices": {}
  },
  "time": {
    "samples": {
      "AcquisitionNumber": [1, 2, 3, 4, 5, 6, 7, 8, 9, 10, 11, 12, 13, 14, 15, 16, 17, 18, 19, 20, 21, 22, 23, 24, 25, 26, 27, 28, 29, 30, 31, 32, 33, 34, 35, 36, 37, 38, 39, 40, 41, 42, 43, 44, 45, 46, 47, 48, 49, 50, 51, 52, 53, 54, 55, 56, 57, 58, 59, 60, 61, 62, 63, 64, 65, 66, 67, 68, 69, 70, 71, 72, 73, 74, 75, 76, 77, 78, 79, 80, 81, 82, 83, 84, 85, 86, 87, 88, 89, 90, 91, 92, 93, 94, 95, 96, 97, 98, 99, 100, 101, 102, 103, 104, 105, 106, 107, 108, 109, 110, 111, 112, 113, 114, 115, 116, 117, 118, 119, 120, 121, 122, 123, 124, 125, 126, 127, 128, 129, 130, 131, 132, 133, 134, 135, 136, 137, 138, 139, 140, 141, 142, 143, 144, 145, 146, 147, 148, 149, 150, 151, 152, 153, 154, 155, 156, 157, 158, 159, 160, 161, 162, 163, 164, 165, 166, 167, 168, 169, 170, 171, 172, 173, 174, 175, 176, 177, 178, 179, 180, 181, 182, 183, 184, 185, 186, 187, 188, 189, 190, 191, 192, 193, 194, 195, 196, 197, 198, 199, 200, 201, 202, 203, 204, 205, 206, 207, 208, 209, 210, 211, 212, 213, 214, 215, 216, 217, 218, 219, 220, 221, 222, 223, 224, 225, 226, 227, 228, 229, 230, 231, 232, 233, 234, 235, 236, 237, 238, 239, 240, 241, 242, 243, 244, 245, 246, 247, 248, 249, 250, 251, 252, 253, 254, 255, 256, 257, 258, 259, 260, 261, 262, 263, 264, 265, 266, 267, 268, 269, 270, 271, 272, 273, 274, 275, 276, 277, 278, 279, 280, 281, 282, 283, 284, 285, 286, 287, 288, 289, 290, 291, 292, 293, 294, 295, 296, 297, 298, 299, 300, 301, 302, 303, 304, 305, 306, 307, 308, 309, 310, 311, 312, 313, 314, 315, 316, 317, 318, 319, 320, 321, 322, 323, 324, 325, 326, 327, 328, 329, 330, 331, 332, 333, 334, 335, 336, 337, 338, 339, 340, 341, 342, 343, 344, 345, 346, 347, 348, 349, 350, 351, 352, 353, 354, 355, 356, 357, 358, 359, 360, 361, 362, 363, 364, 365, 366, 367, 368, 369, 370, 371, 372, 373, 374, 375, 376, 377, 378, 379, 380, 381, 382, 383, 384, 385, 386, 387, 388, 389, 390, 391, 392, 393, 394, 395, 396, 397, 398, 399, 400, 401, 402, 403, 404, 405, 406, 407, 408, 409, 410, 411, 412, 413, 414, 415, 416, 417, 418, 419, 420, 421, 422, 423, 424, 425, 426, 427, 428, 429, 430, 431, 432, 433, 434, 435, 436, 437, 438, 439, 440, 441, 442, 443, 444, 445, 446, 447, 448, 449, 450, 451, 452, 453, 454, 455, 456, 457, 458, 459, 460, 461, 462, 463, 464, 465, 466, 467, 468, 469, 470, 471, 472, 473, 474, 475, 476, 477, 478, 479, 480, 481, 482, 483, 484, 485, 486, 487, 488, 489, 490, 491, 492, 493, 494, 495, 496, 497, 498, 499, 500, 501, 502, 503, 504, 505, 506, 507, 508, 509, 510, 511, 512, 513, 514, 515, 516, 517, 518, 519, 520, 521, 522, 523, 524, 525, 526, 527, 528, 529, 530, 531, 532, 533, 534, 535, 536, 537, 538, 539, 540, 541, 542, 543, 544, 545, 546, 547, 548, 549, 550, 551, 552, 553, 554, 555, 556, 557, 558, 559, 560, 561, 562, 563, 564, 565, 566, 567, 568, 569, 570, 571, 572, 573, 574, 575, 576, 577, 578, 579, 580, 581, 582, 583, 584, 585, 586, 587, 588, 589, 590, 591, 592, 593, 594, 595, 596, 597, 598, 599, 600],
      "AcquisitionTime": ["151448.280000", "151449.770000", "151451.260000", "151452.750000", "151454.240000", "151455.730000", "151457.220000", "151458.710000", "151500.200000", "151501.690000", "151503.180000", "151504.670000", "151506.160000", "151507.650000", "151509.140000", "151510.630000", "151512.120000", "151513.610000", "151515.100000", "151516.590000", "151518.080000", "151519.570000", "151521.060000", "151522.550000", "151524.040000", "151525.530000", "151527.020000", "151528.510000", "151530.000000", "151531.490000", "151532.980000", "151534.470000", "151535.960000", "151537.450000", "151538.940000", "151540.430000", "151541.920000", "151543.410000", "151544.900000", "151546.390000", "151547.880000", "151549.370000", "151550.860000", "151552.350000", "151553.840000", "151555.330000", "151556.820000", "151558.310000", "151559.800000", "151601.290000", "151602.780000", "151604.270000", "151605.760000", "151607.250000", "151608.740000", "151610.230000", "151611.720000", "151613.210000", "151614.700000", "151616.190000", "151617.680000", "151619.170000", "151620.660000", "151622.150000", "151623.640000", "151625.130000", "151626.620000", "151628.110000", "151629.600000", "151631.090000", "151632.580000", "151634.070000", "151635.560000", "151637.050000", "151638.540000", "151640.030000", "151641.520000", "151643.010000", "151644.500000", "151645.990000", "151647.480000", "151648.970000", "151650.460000", "151651.950000", "151653.440000", "151654.930000", "151656.420000", "151657.910000", "151659.400000", "151700.890000", "151702.380000", "151703.870000", "151705.360000", "151706.850000", "151708.340000", "151709.830000", "151711.320000", "151712.810000", "151714.300000", "151715.790000", "151717.280000", "151718.770000", "151720.260000", "151721.750000", "151723.240000", "151724.730000", "151726.220000", "151727.710000", "151729.200000", "151730.690000", "151732.180000", "151733.670000", "151735.160000", "151736.650000", "151738.140000", "151739.630000", "151741.120000", "151742.610000", "151744.100000", "151745.590000", "151747.080000", "151748.570000", "151750.060000", "151751.550000", "151753.040000", "151754.530000", "151756.020000", "151757.510000", "151759.000000", "151800.490000", "151801.980000", "151803.470000", "151804.960000", "151806.450000", "151807.940000", "151809.430000", "151810.920000", "151812.410000", "151813.900000", "151815.390000", "151816.880000", "151818.370000", "151819.860000", "151821.350000", "151822.840000", "151824.330000", "151825.820000", "151827.310000", "151828.800000", "151830.290000", "151831.780000", "151833.270000", "151834.760000", "151836.250000", "151837.740000", "151839.230000", "151840.720000", "151842.210000", "151843.700000", "151845.190000", "151846.680000", "151848.170000", "151849.660000", "151851.150000", "151852.640000", "151854.130000", "151855.620000", "151857.110000", "151858.600000", "151900.090000", "151901.580000", "151903.070000", "151904.560000", "151906.050000", "151907.540000", "151909.030000", "151910.520000", "151912.010000", "151913.500000", "151914.990000", "151916.480000", "151917.970000", "151919.460000", "151920.950000", "151922.440000", "151923.930000", "151925.420000", "151926.910000", "151928.400000", "151929.890000", "151931.380000", "151932.870000", "151934.360000", "151935.850000", "151937.340000", "151938.830000", "151940.320000", "151941.810000", "151943.300000", "151944.790000", "151946.280000", "151947.770000", "151949.260000", "151950.750000", "151952.240000", "151953.730000", "151955.220000", "151956.710000", "151958.200000", "151959.690000", "152001.180000", "152002.670000", "152004.160000", "152005.650000", "152007.140000", "152008.630000", "152010.120000", "152011.610000", "152013.100000", "152014.590000", "152016.080000", "152017.570000", "152019.060000", "152020.550000", "152022.040000", "152023.530000", "152025.020000", "152026.510000", "152028.000000", "152029.490000", "152030.980000", "152032.470000", "152033.960000", "152035.450000", "152036.940000", "152038.430000", "152039.920000", "152041.410000", "152042.900000", "152044.390000", "152045.880000", "152047.370000", "152048.860000", "152050.350000", "152051.840000", "152053.330000", "152054.820000", "152056.310000", "152057.800000", "152059.290000", "152100.780000", "152102.270000", "152103.760000", "152105.250000", "152106.740000", "152108.230000", "152109.720000", "152111.210000", "152112.700000", "152114.190000", "152115.680000", "152117.170000", "152118.660000", "152120.150000", "152121.640000", "152123.130000", "152124.620000", "152126.110000", "152127.600000", "152129.090000", "152130.580000", "152132.070000", "152133.560000", "152135.050000", "152136.540000", "152138.030000", "152139.520000", "152141.010000", "152142.500000", "152143.990000", "152145.480000", "152146.970000", "152148.460000", "152149.950000", "152151.440000", "152152.930000", "152154.420000", "152155.910000", "152157.400000", "152158.890000", "152200.380000", "152201.870000", "152203.360000", "152204.850000", "152206.340000", "152207.830000", "152209.320000", "152210.810000", "152212.300000", "152213.790000", "152215.280000", "152216.770000", "152218.260000", "152219.750000", "152221.240000", "152222.730000", "152224.220000", "152225.710000", "152227.200000", "152228.690000", "152230.180000", "152231.670000", "152233.160000", "152234.650000", "152236.140000", "152237.630000", "152239.120000", "152240.610000", "152242.100000", "152243.590000", "152245.080000", "152246.570000", "152248.060000", "152249.550000", "152251.040000", "152252.530000", "152254.020000", "152255.510000", "152257.000000", "152258.490000", "152259.980000", "152301.470000", "152302.960000", "152304.450000", "152305.940000", "152307.430000", "152308.920000", "152310.410000", "152311.900000", "152313.390000", "152314.880000", "152316.370000", "152317.860000", "152319.350000", "152320.840000", "152322.330000", "152323.820000", "152325.310000", "152326.800000", "152328.290000", "152329.780000", "152331.270000", "152332.760000", "152334.250000", "152335.740000", "152337.230000", "152338.720000", "152340.210000", "152341.700000", "152343.190000", "152344.680000", "152346.170000", "152347.660000", "152349.150000", "152350.640000", "152352.130000", "152353.620000", "152355.110000", "152356.600000", "152358.090000", "152359.580000", "152401.070000", "152402.560000", "152404.050000", "152405.540000", "152407.030000", "152408.520000", "152410.010000", "152411.500000", "152412.990000", "152414.480000", "152415.970000", "152417.460000", "152418.950000", "152420.440000", "152421.930000", "152423.420000", "152424.910000", "152426.400000", "152427.890000", "152429.380000", "152430.870000", "152432.360000", "152433.850000", "152435.340000", "152436.830000", "152438.320000", "152439.810000", "152441.300000", "152442.790000", "152444.280000", "152445.770000", "152447.260000", "152448.750000", "152450.240000", "152451.730000", "152453.220000", "152454.710000", "152456.200000", "152457.690000", "152459.180000", "152500.670000", "152502.160000", "152503.650000", "152505.140000", "152506.630000", "152508.120000", "152509.610000", "152511.100000", "152512.590000", "152514.080000", "152515.570000", "152517.060000", "152518.550000", "152520.040000", "152521.530000", "152523.020000", "152524.510000", "152526.000000", "152527.490000", "152528.980000", "152530.470000", "152531.960000", "152533.450000", "152534.940000", "152536.430000", "152537.920000", "152539.410000", "152540.900000", "152542.390000", "152543.880000", "152545.370000", "152546.860000", "152548.350000", "152549.840000", "152551.330000", "152552.820000", "152554.310000", "152555.800000", "152557.290000", "152558.780000", "152600.270000", "152601.760000", "152603.250000", "152604.740000", "152606.230000", "152607.720000", "152609.210000", "152610.700000", "152612.190000", "152613.680000", "152615.170000", "152616.660000", "152618.150000", "152619.640000", "152621.130000", "152622.620000", "152624.110000", "152625.600000", "152627.090000", "152628.580000", "152630.070000", "152631.560000", "152633.050000", "152634.540000", "152636.030000", "152637.520000", "152639.010000", "152640.500000", "152641.990000", "152643.480000", "152644.970000", "152646.460000", "152647.950000", "152649.440000", "152650.930000", "152652.420000", "152653.910000", "152655.400000", "152656.890000", "152658.380000", "152659.870000", "152701.360000", "152702.850000", "152704.340000", "152705.830000", "152707.320000", "152708.810000", "152710.300000", "152711.790000", "152713.280000", "152714.770000", "152716.260000", "152717.750000", "152719.240000", "152720.730000", "152722.220000", "152723.710000", "152725.200000", "152726.690000", "152728.180000", "152729.670000", "152731.160000", "152732.650000", "152734.140000", "152735.630000", "152737.120000", "152738.610000", "152740.100000", "152741.590000", "152743.080000", "152744.570000", "152746.060000", "152747.550000", "152749.040000", "152750.530000", "152752.020000", "152753.510000", "152755.000000", "152756.490000", "152757.980000", "152759.470000", "152800.960000", "152802.450000", "152803.940000", "152805.430000", "152806.920000", "152808.410000", "152809.900000", "152811.390000", "152812.880000", "152814.370000", "152815.860000", "152817.350000", "152818.840000", "152820.330000", "152821.820000", "152823.310000", "152824.800000", "152826.290000", "152827.780000", "152829.270000", "152830.760000", "152832.250000", "152833.740000", "152835.230000", "152836.720000", "152838.210000", "152839.700000", "152841.190000", "152842.680000", "152844.170000", "152845.660000", "152847.150000", "152848.640000", "152850.130000", "152851.620000", "152853.110000", "152854.600000", "152856.090000", "152857.580000", "152859.070000", "152900.560000", "152902.050000", "152903.540000", "152905.030000", "152906.520000", "152908.010000", "152909.500000", "152910.990000", "152912.480000", "152913.970000", "152915.460000", "152916.950000", "152918.440000", "152919.930000", "152921.420000", "152922.910000", "152924.400000", "152925.890000", "152927.380000", "152928.870000", "152930.360000", "152931.850000", "152933.340000", "152934.830000", "152936.320000", "152937.810000", "152939.300000", "152940.790000"],
      "ContentTime": ["151612.918000", "151612.922000", "151612.926000", "151612.929000", "151612.932000", "151612.935000", "151612.938000", "151612.940000", "151612.943000", "151612.946000", "151612.949000", "151612.952000", "151612.955000", "151612.958000", "151612.961000", "151612.964000", "151612.967000", "151612.970000", "151612.973000", "151612.981000", "151612.984000", "151612.987000", "151612.990000", "151612.993000", "151612.996000", "151613.000000", "151613.003000", "151613.006000", "151613.009000", "151613.012000", "151613.015000", "151632.884000", "151632.887000", "151632.890000", "151632.893000", "151632.896000", "151632.899000", "151632.902000", "151632.905000", "151632.913000", "151632.916000", "151632.919000", "151632.922000", "151632.925000", "151632.928000", "151632.931000", "151632.943000", "151632.946000", "151632.949000", "151632.952000", "151632.956000", "151632.959000", "151652.884000", "151652.887000", "151652.890000", "151652.893000", "151652.896000", "151652.899000", "151652.902000", "151652.905000", "151652.908000", "151652.911000", "151652.914000", "151652.917000", "151652.920000", "151652.923000", "151652.926000", "151652.929000", "151652.932000", "151652.935000", "151652.938000", "151652.941000", "151712.884000", "151712.887000", "151712.890000", "151712.893000", "151712.896000", "151712.899000", "151712.902000", "151712.905000", "151712.908000", "151712.911000", "151712.914000", "151712.917000", "151712.919000", "151712.922000", "151712.925000", "151712.928000", "151712.931000", "151712.934000", "151712.937000", "151712.940000", "151752.884000", "151752.887000", "151752.890000", "151752.893000", "151752.896000", "151752.899000", "151752.908000", "151752.911000", "151752.914000", "151752.917000", "151752.920000", "151752.923000", "151752.926000", "151752.929000", "151752.932000", "151752.935000", "151752.938000", "151752.947000", "151752.950000", "151752.953000", "151752.956000", "151752.959000", "151752.962000", "151752.965000", "151752.968000", "151752.971000", "151752.974000", "151752.976000", "151752.980000", "151752.983000", "151752.986000", "151832.884000", "151832.887000", "151832.890000", "151832.893000", "151832.896000", "151832.899000", "151832.902000", "151832.905000", "151832.908000", "151832.911000", "151832.914000", "151832.917000", "151832.920000", "151832.923000", "151832.926000", "151832.929000", "151832.932000", "151832.934000", "151832.937000", "151832.940000", "151832.943000", "151832.946000", "151832.949000", "151832.952000", "151832.955000", "151832.958000", "151832.961000", "151912.884000", "151912.887000", "151912.890000", "151912.893000", "151912.896000", "151912.904000", "151912.907000", "151912.910000", "151912.913000", "151912.916000", "151912.919000", "151912.922000", "151912.924000", "151912.927000", "151912.930000", "151912.933000", "151912.936000", "151912.939000", "151912.946000", "151912.962000", "151912.965000", "151912.968000", "151912.971000", "151912.974000", "151912.977000", "151912.980000", "151912.983000", "151952.884000", "151952.887000", "151952.890000", "151952.893000", "151952.896000", "151952.899000", "151952.902000", "151952.905000", "151952.908000", "151952.911000", "151952.914000", "151952.917000", "151952.920000", "151952.923000", "151952.926000", "151952.929000", "151952.932000", "151952.934000", "151952.937000", "151952.940000", "151952.943000", "151952.946000", "151952.949000", "151952.952000", "151952.955000", "151952.958000", "151952.961000", "152032.884000", "152032.887000", "152032.890000", "152032.893000", "152032.896000", "152032.899000", "152032.902000", "152032.905000", "152032.908000", "152032.911000", "152032.914000", "152032.917000", "152032.920000", "152032.923000", "152032.926000", "152032.929000", "152032.932000", "152032.935000", "152032.938000", "152032.941000", "152032.944000", "152032.947000", "152032.950000", "152032.953000", "152032.956000", "152032.959000", "152112.884000", "152112.887000", "152112.890000", "152112.893000", "152112.896000", "152112.899000", "152112.902000", "152112.905000", "152112.908000", "152112.911000", "152112.914000", "152112.917000", "152112.920000", "152112.923000", "152112.926000", "152112.929000", "152112.932000", "152112.935000", "152112.938000", "152112.941000", "152112.944000", "152112.947000", "152112.949000", "152112.952000", "152112.955000", "152112.958000", "152112.961000", "152152.884000", "152152.887000", "152152.890000", "152152.893000", "152152.896000", "152152.899000", "152152.902000", "152152.905000", "152152.908000", "152152.911000", "152152.914000", "152152.917000", "152152.920000", "152152.923000", "152152.926000", "152152.929000", "152152.932000", "152152.935000", "152152.938000", "152152.941000", "152152.944000", "152152.947000", "152152.950000", "152152.953000", "152152.956000", "152152.959000", "152152.962000", "152232.884000", "152232.887000", "152232.890000", "152232.893000", "152232.896000", "152232.899000", "152232.902000", "152232.905000", "152232.908000", "152232.911000", "152232.914000", "152232.917000", "152232.920000", "152232.923000", "152232.925000", "152232.928000", "152232.931000", "152232.934000", "152232.937000", "152232.940000", "152232.943000", "152232.946000", "152232.949000", "152232.952000", "152232.955000", "152232.958000", "152232.961000", "152252.884000", "152252.887000", "152252.890000", "152252.893000", "152252.896000", "152252.900000", "152252.903000", "152252.906000", "152252.909000", "152252.912000", "152252.924000", "152252.927000", "152252.930000", "152332.884000", "152332.887000", "152332.890000", "152332.893000", "152332.896000", "152332.899000", "152332.902000", "152332.905000", "152332.908000", "152332.911000", "152332.914000", "152332.917000", "152332.920000", "152332.923000", "152332.926000", "152332.929000", "152332.932000", "152332.935000", "152332.938000", "152332.941000", "152332.944000", "152332.947000", "152332.950000", "152332.952000", "152332.955000", "152332.958000", "152332.961000", "152412.884000", "152412.901000", "152412.904000", "152412.907000", "152412.910000", "152412.913000", "152412.915000", "152412.918000", "152412.922000", "152412.925000", "152412.928000", "152412.931000", "152412.934000", "152412.937000", "152412.940000", "152412.943000", "152412.946000", "152412.949000", "152412.952000", "152412.955000", "152412.958000", "152412.961000", "152412.964000", "152412.967000", "152412.970000", "152412.973000", "152412.976000", "152452.884000", "152452.887000", "152452.890000", "152452.893000", "152452.896000", "152452.899000", "152452.902000", "152452.905000", "152452.908000", "152452.911000", "152452.914000", "152452.917000", "152452.920000", "152452.923000", "152452.926000", "152452.929000", "152452.932000", "152452.935000", "152452.938000", "152452.941000", "152452.944000", "152452.947000", "152452.949000", "152452.952000", "152452.955000", "152452.958000", "152452.961000", "152532.884000", "152532.887000", "152532.890000", "152532.900000", "152532.903000", "152532.906000", "152532.909000", "152532.912000", "152532.915000", "152532.918000", "152532.921000", "152532.924000", "152532.927000", "152532.930000", "152532.933000", "152532.936000", "152532.939000", "152532.942000", "152532.944000", "152532.947000", "152532.950000", "152532.953000", "152532.956000", "152532.959000", "152532.962000", "152532.965000", "152532.968000", "152612.884000", "152612.887000", "152612.890000", "152612.893000", "152612.896000", "152612.899000", "152612.902000", "152612.905000", "152612.908000", "152612.911000", "152612.914000", "152612.917000", "152612.920000", "152612.923000", "152612.926000", "152612.929000", "152612.937000", "152612.940000", "152612.943000", "152612.946000", "152612.949000", "152612.952000", "152612.955000", "152612.958000", "152612.961000", "152612.964000", "152612.967000", "152652.884000", "152652.887000", "152652.890000", "152652.893000", "152652.896000", "152652.899000", "152652.902000", "152652.905000", "152652.908000", "152652.911000", "152652.915000", "152652.918000", "152652.921000", "152652.924000", "152652.928000", "152652.930000", "152652.934000", "152652.937000", "152652.940000", "152652.943000", "152652.946000", "152652.949000", "152652.951000", "152652.954000", "152652.957000", "152652.960000", "152732.884000", "152732.887000", "152732.890000", "152732.893000", "152732.896000", "152732.899000", "152732.902000", "152732.905000", "152732.908000", "152732.911000", "152732.914000", "152732.917000", "152732.920000", "152732.923000", "152732.926000", "152732.929000", "152732.932000", "152732.935000", "152732.938000", "152732.941000", "152732.944000", "152732.947000", "152732.950000", "152732.953000", "152732.956000", "152732.959000", "152732.961000", "152812.884000", "152812.887000", "152812.890000", "152812.893000", "152812.896000", "152812.899000", "152812.902000", "152812.905000", "152812.908000", "152812.911000", "152812.914000", "152812.917000", "152812.920000", "152812.923000", "152812.926000", "152812.929000", "152812.932000", "152812.935000", "152812.938000", "152812.941000", "152812.944000", "152812.947000", "152812.950000", "152812.953000", "152812.975000", "152812.978000", "152812.981000", "152852.884000", "152852.887000", "152852.890000", "152852.893000", "152852.896000", "152852.899000", "152852.902000", "152852.905000", "152852.908000", "152852.911000", "152852.914000", "152852.917000", "152852.920000", "152852.923000", "152852.926000", "152852.929000", "152852.932000", "152852.935000", "152852.938000", "152852.941000", "152852.944000", "152852.947000", "152852.950000", "152852.953000", "152852.956000", "152852.959000", "152852.962000", "152932.884000", "152932.887000", "152932.890000", "152932.893000", "152932.896000", "152932.899000", "152932.902000", "152932.905000", "152932.908000", "152932.911000", "152932.914000", "152932.917000", "152932.920000", "152932.923000", "152932.926000", "152932.929000", "152932.932000", "152932.935000", "152932.938000", "152932.941000", "152932.944000", "152932.947000", "152932.950000", "152932.953000", "152932.956000", "152932.959000", "152932.962000", "152942.844000", "152942.848000", "152942.851000", "152942.855000", "152942.860000", "152942.863000", "152942.867000"],
