{
  "AcquisitionMatrixPE": 104,
  "AcquisitionNumber": 1,
  "AcquisitionTime": "15:39:17.280000",
  "BandwidthPerPixelPhaseEncode": 17.17,
  "BaseResolution": 104,
  "BodyPartExamined": "BRAIN",
  "CoilString": "HC1-7;NC1_2",
  "ConsistencyInfo": "N4_VE11C_LATEST_20160120",
  "ConversionSoftware": "dcm2niix",
  "ConversionSoftwareVersion": "v1.0.20190720  (JP2:OpenJPEG) GCC7.3.0",
  "DerivedVendorReportedEchoSpacing": 0.000560011,
  "DeviceSerialNumber": "167006",
  "DwellTime": 2.1e-06,
  "EchoTime": 0.037,
  "EchoTrainLength": 104,
  "EffectiveEchoSpacing": 0.000560011,
  "FlipAngle": 52,
  "ImageComments": "Unaliased_MB4_PE3_LB",
  "ImageOrientationPatientDICOM": [0.99976, -0.0139451, 0.0168745, 0.0190218, 0.934913, -0.354368],
  "ImageType": [
    "ORIGINAL",
    "PRIMARY",
    "M",
    "MB",
    "ND",
    "MOSAIC"
],
  "ImagingFrequency": 123.259,
  "InPlanePhaseEncodingDirectionDICOM": "COL",
  "InstitutionAddress": "Chemin_Queen-Mary_4565_Montreal_District_CA_H3W_1W5",
  "InstitutionName": "IUGM",
  "InstitutionalDepartmentName": "Department",
  "MRAcquisitionType": "2D",
  "MagneticFieldStrength": 3,
  "Manufacturer": "Siemens",
  "ManufacturersModelName": "Prisma_fit",
  "Modality": "MR",
  "MultibandAccelerationFactor": 4,
  "PartialFourier": 1,
  "PatientPosition": "HFS",
  "PercentPhaseFOV": 100,
  "PhaseEncodingDirection": "j",
  "PhaseEncodingSteps": 104,
  "PhaseResolution": 1,
  "PixelBandwidth": 2290,
  "ProcedureStepDescription": "hcptrt_generic",
  "ProtocolName": "func_task-restingstate_run-1",
  "PulseSequenceDetails": "%CustomerSeq%_cmrr_mbep2d_bold",
  "ReceiveCoilActiveElements": "HC1-7;NC1,2",
  "ReceiveCoilName": "HeadNeck_64",
  "ReconMatrixPE": 104,
  "RepetitionTime": 1.49,
  "SAR": 0.0286328,
  "ScanOptions": "FS",
  "ScanningSequence": "EP",
  "SequenceName": "epfid2d1_104",
  "SequenceVariant": "SK_SS",
  "SeriesDescription": "func_task-restingstate_run-1",
  "SeriesNumber": 7,
  "ShimSetting": [636, -7161, -8824, 678, 65, 132, 45, -26],
  "SliceThickness": 2,
  "SliceTiming": [0, 0.785, 0.0975, 0.8825, 0.195, 0.98, 0.295, 1.0775, 0.3925, 1.175, 0.49, 1.275, 0.5875, 1.3725, 0.685, 0, 0.785, 0.0975, 0.8825, 0.195, 0.98, 0.295, 1.0775, 0.3925, 1.175, 0.49, 1.275, 0.5875, 1.3725, 0.685, 0, 0.785, 0.0975, 0.8825, 0.195, 0.98, 0.295, 1.0775, 0.3925, 1.175, 0.49, 1.275, 0.5875, 1.3725, 0.685, 0, 0.785, 0.0975, 0.8825, 0.195, 0.98, 0.295, 1.0775, 0.3925, 1.175, 0.49, 1.275, 0.5875, 1.3725, 0.685],
  "SoftwareVersions": "syngo_MR_E11",
  "SpacingBetweenSlices": 2,
  "StationName": "MRC35049",
  "TaskName": "restingstate",
  "TotalReadoutTime": 0.0576811,
  "TxRefAmp": 207.642,
  "WipMemBlock": "b8f5edf6-a950-4a76-83be-5ab7eedbc78a||Sequence: R016 ve11c/master r/e634e98; Dec 19 2017 11:00:25 by eja",
  "dcmmeta_affine": [
    [-1.9995207786560059, 0.03804364055395126, 0.021668944507837296, 106.478759765625],
    [0.027890264987945557, 1.8698251247406006, -0.7092080116271973, -68.65596771240234],
    [0.03374899551272392, 0.7087358832359314, 1.8699076175689697, -72.85694885253906],
    [0.0, 0.0, 0.0, 1.0]
],
  "dcmmeta_reorient_transform": [
    [0.0, -1.0, 0.0, 103.0],
    [1.0, 0.0, 0.0, 0.0],
    [0.0, 0.0, 1.0, 0.0],
    [0.0, 0.0, 0.0, 1.0]
],
  "dcmmeta_shape": [104, 104, 60, 600],
  "dcmmeta_slice_dim": 2,
  "dcmmeta_version": 0.6,
  "global": {
    "const": {
      "AcquisitionMatrix": [104, 0, 0, 104],
      "AngioFlag": "N",
      "BitsAllocated": 16,
      "BitsStored": 16,
      "BodyPartExamined": "BRAIN",
      "Columns": 832,
      "EchoNumbers": 1,
      "EchoTime": 37.0,
      "EchoTrainLength": 104,
      "FlipAngle": 52.0,
      "HighBit": 15,
      "ImageOrientationPatient": [0.99976036357946, -0.0139451326868, 0.01687449820945, 0.01902181953859, 0.93491257867058, -0.354367945256],
      "ImagePositionPatient": [-852.07068409195, -794.40032773244, 245.83807363855],
      "ImageType": [
        "ORIGINAL",
        "PRIMARY",
        "M",
        "MB",
        "ND",
        "MOSAIC"
],
      "ImagedNucleus": "1H",
      "ImagingFrequency": 123.259311,
      "InPlanePhaseEncodingDirection": "COL",
      "MRAcquisitionType": "2D",
      "MagneticFieldStrength": 3.0,
      "Manufacturer": "SIEMENS",
      "ManufacturerModelName": "Prisma_fit",
      "Modality": "MR",
      "NumberOfAverages": 1.0,
      "NumberOfPhaseEncodingSteps": 104,
      "PercentPhaseFieldOfView": 100.0,
      "PercentSampling": 100.0,
      "PerformedProcedureStepStartTime": "153608.966000",
      "PhotometricInterpretation": "MONOCHROME2",
      "PixelBandwidth": 2290.0,
      "PixelRepresentation": 0,
      "PixelSpacing": [2.0, 2.0],
      "ProtocolName": "func_task-restingstate_run-1",
      "RepetitionTime": 1490.0,
      "Rows": 832,
      "SAR": 0.02863281422044,
      "SamplesPerPixel": 1,
      "ScanOptions": "FS",
      "ScanningSequence": "EP",
      "SequenceName": "epfid2d1_104",
      "SequenceVariant": [
        "SK",
        "SS"
],
      "SeriesDescription": "func_task-restingstate_run-1",
      "SeriesNumber": 7,
      "SeriesTime": "154044.946000",
      "SliceLocation": -42.618563358192,
      "SliceThickness": 2.0,
      "SmallestImagePixelValue": 0,
      "SoftwareVersions": "syngo MR E11",
      "SpacingBetweenSlices": 1.9999999784014,
      "SpecificCharacterSet": "ISO_IR 100",
      "StudyID": "1",
      "StudyTime": "153608.901000",
      "TransmitCoilName": "Body",
      "VariableFlipAngleFlag": "N",
      "WindowCenterWidthExplanation": "Algo1",
      "dBdt": 0.0},
    "slices": {}
  },
  "time": {
    "samples": {
      "AcquisitionNumber": [1, 2, 3, 4, 5, 6, 7, 8, 9, 10, 11, 12, 13, 14, 15, 16, 17, 18, 19, 20, 21, 22, 23, 24, 25, 26, 27, 28, 29, 30, 31, 32, 33, 34, 35, 36, 37, 38, 39, 40, 41, 42, 43, 44, 45, 46, 47, 48, 49, 50, 51, 52, 53, 54, 55, 56, 57, 58, 59, 60, 61, 62, 63, 64, 65, 66, 67, 68, 69, 70, 71, 72, 73, 74, 75, 76, 77, 78, 79, 80, 81, 82, 83, 84, 85, 86, 87, 88, 89, 90, 91, 92, 93, 94, 95, 96, 97, 98, 99, 100, 101, 102, 103, 104, 105, 106, 107, 108, 109, 110, 111, 112, 113, 114, 115, 116, 117, 118, 119, 120, 121, 122, 123, 124, 125, 126, 127, 128, 129, 130, 131, 132, 133, 134, 135, 136, 137, 138, 139, 140, 141, 142, 143, 144, 145, 146, 147, 148, 149, 150, 151, 152, 153, 154, 155, 156, 157, 158, 159, 160, 161, 162, 163, 164, 165, 166, 167, 168, 169, 170, 171, 172, 173, 174, 175, 176, 177, 178, 179, 180, 181, 182, 183, 184, 185, 186, 187, 188, 189, 190, 191, 192, 193, 194, 195, 196, 197, 198, 199, 200, 201, 202, 203, 204, 205, 206, 207, 208, 209, 210, 211, 212, 213, 214, 215, 216, 217, 218, 219, 220, 221, 222, 223, 224, 225, 226, 227, 228, 229, 230, 231, 232, 233, 234, 235, 236, 237, 238, 239, 240, 241, 242, 243, 244, 245, 246, 247, 248, 249, 250, 251, 252, 253, 254, 255, 256, 257, 258, 259, 260, 261, 262, 263, 264, 265, 266, 267, 268, 269, 270, 271, 272, 273, 274, 275, 276, 277, 278, 279, 280, 281, 282, 283, 284, 285, 286, 287, 288, 289, 290, 291, 292, 293, 294, 295, 296, 297, 298, 299, 300, 301, 302, 303, 304, 305, 306, 307, 308, 309, 310, 311, 312, 313, 314, 315, 316, 317, 318, 319, 320, 321, 322, 323, 324, 325, 326, 327, 328, 329, 330, 331, 332, 333, 334, 335, 336, 337, 338, 339, 340, 341, 342, 343, 344, 345, 346, 347, 348, 349, 350, 351, 352, 353, 354, 355, 356, 357, 358, 359, 360, 361, 362, 363, 364, 365, 366, 367, 368, 369, 370, 371, 372, 373, 374, 375, 376, 377, 378, 379, 380, 381, 382, 383, 384, 385, 386, 387, 388, 389, 390, 391, 392, 393, 394, 395, 396, 397, 398, 399, 400, 401, 402, 403, 404, 405, 406, 407, 408, 409, 410, 411, 412, 413, 414, 415, 416, 417, 418, 419, 420, 421, 422, 423, 424, 425, 426, 427, 428, 429, 430, 431, 432, 433, 434, 435, 436, 437, 438, 439, 440, 441, 442, 443, 444, 445, 446, 447, 448, 449, 450, 451, 452, 453, 454, 455, 456, 457, 458, 459, 460, 461, 462, 463, 464, 465, 466, 467, 468, 469, 470, 471, 472, 473, 474, 475, 476, 477, 478, 479, 480, 481, 482, 483, 484, 485, 486, 487, 488, 489, 490, 491, 492, 493, 494, 495, 496, 497, 498, 499, 500, 501, 502, 503, 504, 505, 506, 507, 508, 509, 510, 511, 512, 513, 514, 515, 516, 517, 518, 519, 520, 521, 522, 523, 524, 525, 526, 527, 528, 529, 530, 531, 532, 533, 534, 535, 536, 537, 538, 539, 540, 541, 542, 543, 544, 545, 546, 547, 548, 549, 550, 551, 552, 553, 554, 555, 556, 557, 558, 559, 560, 561, 562, 563, 564, 565, 566, 567, 568, 569, 570, 571, 572, 573, 574, 575, 576, 577, 578, 579, 580, 581, 582, 583, 584, 585, 586, 587, 588, 589, 590, 591, 592, 593, 594, 595, 596, 597, 598, 599, 600],
      "AcquisitionTime": ["153917.280000", "153918.770000", "153920.260000", "153921.750000", "153923.240000", "153924.730000", "153926.220000", "153927.710000", "153929.200000", "153930.690000", "153932.180000", "153933.670000", "153935.160000", "153936.650000", "153938.140000", "153939.630000", "153941.120000", "153942.610000", "153944.100000", "153945.590000", "153947.080000", "153948.570000", "153950.060000", "153951.550000", "153953.040000", "153954.530000", "153956.020000", "153957.510000", "153959.000000", "154000.490000", "154001.980000", "154003.470000", "154004.960000", "154006.450000", "154007.940000", "154009.430000", "154010.920000", "154012.410000", "154013.900000", "154015.390000", "154016.880000", "154018.370000", "154019.860000", "154021.350000", "154022.840000", "154024.330000", "154025.820000", "154027.310000", "154028.800000", "154030.290000", "154031.780000", "154033.270000", "154034.760000", "154036.250000", "154037.740000", "154039.230000", "154040.720000", "154042.210000", "154043.700000", "154045.190000", "154046.680000", "154048.170000", "154049.660000", "154051.150000", "154052.640000", "154054.130000", "154055.620000", "154057.110000", "154058.600000", "154100.090000", "154101.580000", "154103.070000", "154104.560000", "154106.050000", "154107.540000", "154109.030000", "154110.520000", "154112.010000", "154113.500000", "154114.990000", "154116.480000", "154117.970000", "154119.460000", "154120.950000", "154122.440000", "154123.930000", "154125.420000", "154126.910000", "154128.400000", "154129.890000", "154131.380000", "154132.870000", "154134.360000", "154135.850000", "154137.340000", "154138.830000", "154140.320000", "154141.810000", "154143.300000", "154144.790000", "154146.280000", "154147.770000", "154149.260000", "154150.750000", "154152.240000", "154153.730000", "154155.220000", "154156.710000", "154158.200000", "154159.690000", "154201.180000", "154202.670000", "154204.160000", "154205.650000", "154207.140000", "154208.630000", "154210.120000", "154211.610000", "154213.100000", "154214.590000", "154216.080000", "154217.570000", "154219.060000", "154220.550000", "154222.040000", "154223.530000", "154225.020000", "154226.510000", "154228.000000", "154229.490000", "154230.980000", "154232.470000", "154233.960000", "154235.450000", "154236.940000", "154238.430000", "154239.920000", "154241.410000", "154242.900000", "154244.390000", "154245.880000", "154247.370000", "154248.860000", "154250.350000", "154251.840000", "154253.330000", "154254.820000", "154256.310000", "154257.800000", "154259.290000", "154300.780000", "154302.270000", "154303.760000", "154305.250000", "154306.740000", "154308.230000", "154309.720000", "154311.210000", "154312.700000", "154314.190000", "154315.680000", "154317.170000", "154318.660000", "154320.150000", "154321.640000", "154323.130000", "154324.620000", "154326.110000", "154327.600000", "154329.090000", "154330.580000", "154332.070000", "154333.560000", "154335.050000", "154336.540000", "154338.030000", "154339.520000", "154341.010000", "154342.500000", "154343.990000", "154345.480000", "154346.970000", "154348.460000", "154349.950000", "154351.440000", "154352.930000", "154354.420000", "154355.910000", "154357.400000", "154358.890000", "154400.380000", "154401.870000", "154403.360000", "154404.850000", "154406.340000", "154407.830000", "154409.320000", "154410.810000", "154412.300000", "154413.790000", "154415.280000", "154416.770000", "154418.260000", "154419.750000", "154421.240000", "154422.730000", "154424.220000", "154425.710000", "154427.200000", "154428.690000", "154430.180000", "154431.670000", "154433.160000", "154434.650000", "154436.140000", "154437.630000", "154439.120000", "154440.610000", "154442.100000", "154443.590000", "154445.080000", "154446.570000", "154448.060000", "154449.550000", "154451.040000", "154452.530000", "154454.020000", "154455.510000", "154457.000000", "154458.490000", "154459.980000", "154501.470000", "154502.960000", "154504.450000", "154505.940000", "154507.430000", "154508.920000", "154510.410000", "154511.900000", "154513.390000", "154514.880000", "154516.370000", "154517.860000", "154519.350000", "154520.840000", "154522.330000", "154523.820000", "154525.310000", "154526.800000", "154528.290000", "154529.780000", "154531.270000", "154532.760000", "154534.250000", "154535.740000", "154537.230000", "154538.720000", "154540.210000", "154541.700000", "154543.190000", "154544.680000", "154546.170000", "154547.660000", "154549.150000", "154550.640000", "154552.130000", "154553.620000", "154555.110000", "154556.600000", "154558.090000", "154559.580000", "154601.070000", "154602.560000", "154604.050000", "154605.540000", "154607.030000", "154608.520000", "154610.010000", "154611.500000", "154612.990000", "154614.480000", "154615.970000", "154617.460000", "154618.950000", "154620.440000", "154621.930000", "154623.420000", "154624.910000", "154626.400000", "154627.890000", "154629.380000", "154630.870000", "154632.360000", "154633.850000", "154635.340000", "154636.830000", "154638.320000", "154639.810000", "154641.300000", "154642.790000", "154644.280000", "154645.770000", "154647.260000", "154648.750000", "154650.240000", "154651.730000", "154653.220000", "154654.710000", "154656.200000", "154657.690000", "154659.180000", "154700.670000", "154702.160000", "154703.650000", "154705.140000", "154706.630000", "154708.120000", "154709.610000", "154711.100000", "154712.590000", "154714.080000", "154715.570000", "154717.060000", "154718.550000", "154720.040000", "154721.530000", "154723.020000", "154724.510000", "154726.000000", "154727.490000", "154728.980000", "154730.470000", "154731.960000", "154733.450000", "154734.940000", "154736.430000", "154737.920000", "154739.410000", "154740.900000", "154742.390000", "154743.880000", "154745.370000", "154746.860000", "154748.350000", "154749.840000", "154751.330000", "154752.820000", "154754.310000", "154755.800000", "154757.290000", "154758.780000", "154800.270000", "154801.760000", "154803.250000", "154804.740000", "154806.230000", "154807.720000", "154809.210000", "154810.700000", "154812.190000", "154813.680000", "154815.170000", "154816.660000", "154818.150000", "154819.640000", "154821.130000", "154822.620000", "154824.110000", "154825.600000", "154827.090000", "154828.580000", "154830.070000", "154831.560000", "154833.050000", "154834.540000", "154836.030000", "154837.520000", "154839.010000", "154840.500000", "154841.990000", "154843.480000", "154844.970000", "154846.460000", "154847.950000", "154849.440000", "154850.930000", "154852.420000", "154853.910000", "154855.400000", "154856.890000", "154858.380000", "154859.870000", "154901.360000", "154902.850000", "154904.340000", "154905.830000", "154907.320000", "154908.810000", "154910.300000", "154911.790000", "154913.280000", "154914.770000", "154916.260000", "154917.750000", "154919.240000", "154920.730000", "154922.220000", "154923.710000", "154925.200000", "154926.690000", "154928.180000", "154929.670000", "154931.160000", "154932.650000", "154934.140000", "154935.630000", "154937.120000", "154938.610000", "154940.100000", "154941.590000", "154943.080000", "154944.570000", "154946.060000", "154947.550000", "154949.040000", "154950.530000", "154952.020000", "154953.510000", "154955.000000", "154956.490000", "154957.980000", "154959.470000", "155000.960000", "155002.450000", "155003.940000", "155005.430000", "155006.920000", "155008.410000", "155009.900000", "155011.390000", "155012.880000", "155014.370000", "155015.860000", "155017.350000", "155018.840000", "155020.330000", "155021.820000", "155023.310000", "155024.800000", "155026.290000", "155027.780000", "155029.270000", "155030.760000", "155032.250000", "155033.740000", "155035.230000", "155036.720000", "155038.210000", "155039.700000", "155041.190000", "155042.680000", "155044.170000", "155045.660000", "155047.150000", "155048.640000", "155050.130000", "155051.620000", "155053.110000", "155054.600000", "155056.090000", "155057.580000", "155059.070000", "155100.560000", "155102.050000", "155103.540000", "155105.030000", "155106.520000", "155108.010000", "155109.500000", "155110.990000", "155112.480000", "155113.970000", "155115.460000", "155116.950000", "155118.440000", "155119.930000", "155121.420000", "155122.910000", "155124.400000", "155125.890000", "155127.380000", "155128.870000", "155130.360000", "155131.850000", "155133.340000", "155134.830000", "155136.320000", "155137.810000", "155139.300000", "155140.790000", "155142.280000", "155143.770000", "155145.260000", "155146.750000", "155148.240000", "155149.730000", "155151.220000", "155152.710000", "155154.200000", "155155.690000", "155157.180000", "155158.670000", "155200.160000", "155201.650000", "155203.140000", "155204.630000", "155206.120000", "155207.610000", "155209.100000", "155210.590000", "155212.080000", "155213.570000", "155215.060000", "155216.550000", "155218.040000", "155219.530000", "155221.020000", "155222.510000", "155224.000000", "155225.490000", "155226.980000", "155228.470000", "155229.960000", "155231.450000", "155232.940000", "155234.430000", "155235.920000", "155237.410000", "155238.900000", "155240.390000", "155241.880000", "155243.370000", "155244.860000", "155246.350000", "155247.840000", "155249.330000", "155250.820000", "155252.310000", "155253.800000", "155255.290000", "155256.780000", "155258.270000", "155259.760000", "155301.250000", "155302.740000", "155304.230000", "155305.720000", "155307.210000", "155308.700000", "155310.190000", "155311.680000", "155313.170000", "155314.660000", "155316.150000", "155317.640000", "155319.130000", "155320.620000", "155322.110000", "155323.600000", "155325.090000", "155326.580000", "155328.070000", "155329.560000", "155331.050000", "155332.540000", "155334.030000", "155335.520000", "155337.010000", "155338.500000", "155339.990000", "155341.480000", "155342.970000", "155344.460000", "155345.950000", "155347.440000", "155348.930000", "155350.420000", "155351.910000", "155353.400000", "155354.890000", "155356.380000", "155357.870000", "155359.360000", "155400.850000", "155402.340000", "155403.830000", "155405.320000", "155406.810000", "155408.300000", "155409.790000"],
      "ContentTime": ["154044.948000", "154044.952000", "154044.954000", "154044.957000", "154044.960000", "154044.968000", "154044.971000", "154044.973000", "154044.976000", "154044.979000", "154044.982000", "154044.985000", "154044.994000", "154044.996000", "154045.000000", "154045.003000", "154045.006000", "154045.009000", "154045.012000", "154045.015000", "154045.018000", "154045.020000", "154045.023000", "154045.026000", "154045.029000", "154045.032000", "154045.035000", "154045.038000", "154045.041000", "154045.044000", "154045.047000", "154045.049000", "154104.918000", "154104.921000", "154104.924000", "154104.927000", "154104.929000", "154104.940000", "154104.943000", "154104.946000", "154104.948000", "154104.951000", "154104.954000", "154104.957000", "154104.960000", "154104.963000", "154104.967000", "154104.970000", "154104.973000", "154104.975000", "154104.978000", "154104.981000", "154124.918000", "154124.921000", "154124.924000", "154124.927000", "154124.929000", "154124.932000", "154124.938000", "154124.941000", "154124.944000", "154124.947000", "154124.950000", "154124.953000", "154124.956000", "154124.959000", "154124.962000", "154124.965000", "154124.967000", "154124.970000", "154124.973000", "154124.976000", "154144.918000", "154144.929000", "154144.940000", "154144.943000", "154144.946000", "154144.949000", "154144.952000", "154144.955000", "154144.958000", "154144.961000", "154144.964000", "154144.967000", "154144.969000", "154144.972000", "154144.975000", "154144.978000", "154144.981000", "154144.984000", "154144.987000", "154144.990000", "154144.993000", "154224.917000", "154224.920000", "154224.923000", "154224.926000", "154224.928000", "154224.931000", "154224.934000", "154224.937000", "154224.940000", "154224.943000", "154224.946000", "154224.949000", "154224.952000", "154224.955000", "154224.957000", "154224.960000", "154224.963000", "154224.966000", "154224.969000", "154224.972000", "154224.975000", "154224.978000", "154224.981000", "154224.983000", "154224.986000", "154224.990000", "154224.993000", "154224.996000", "154225.000000", "154225.003000", "154225.006000", "154225.008000", "154304.918000", "154304.921000", "154304.924000", "154304.927000", "154304.929000", "154304.932000", "154304.935000", "154304.938000", "154304.941000", "154304.944000", "154304.947000", "154304.950000", "154304.952000", "154304.955000", "154304.958000", "154304.961000", "154304.964000", "154304.967000", "154304.969000", "154304.972000", "154304.975000", "154304.978000", "154304.981000", "154304.984000", "154304.987000", "154304.989000", "154304.992000", "154344.918000", "154344.921000", "154344.924000", "154344.927000", "154344.930000", "154344.932000", "154344.935000", "154344.938000", "154344.941000", "154344.944000", "154344.947000", "154344.950000", "154344.953000", "154344.956000", "154344.958000", "154344.961000", "154344.964000", "154344.967000", "154344.970000", "154344.973000", "154344.975000", "154344.978000", "154344.981000", "154344.984000", "154344.987000", "154344.990000", "154344.993000", "154424.917000", "154424.920000", "154424.923000", "154424.926000", "154424.929000", "154424.931000", "154424.934000", "154424.937000", "154424.940000", "154424.943000", "154424.946000", "154424.949000", "154424.952000", "154424.954000", "154424.957000", "154424.960000", "154424.963000", "154424.966000", "154424.969000", "154424.971000", "154424.974000", "154424.977000", "154424.980000", "154424.983000", "154424.986000", "154424.988000", "154424.991000", "154504.918000", "154504.930000", "154504.933000", "154504.936000", "154504.938000", "154504.941000", "154504.944000", "154504.968000", "154504.971000", "154504.974000", "154504.977000", "154504.980000", "154504.983000", "154504.987000", "154504.990000", "154504.993000", "154504.996000", "154505.000000", "154505.002000", "154505.005000", "154505.008000", "154505.011000", "154505.014000", "154505.017000", "154505.020000", "154505.023000", "154544.918000", "154544.921000", "154544.924000", "154544.927000", "154544.930000", "154544.932000", "154544.935000", "154544.938000", "154544.941000", "154544.944000", "154544.947000", "154544.950000", "154544.952000", "154544.955000", "154544.958000", "154544.961000", "154544.964000", "154544.967000", "154544.970000", "154544.972000", "154544.975000", "154544.978000", "154544.981000", "154544.984000", "154544.987000", "154544.990000", "154544.992000", "154624.918000", "154624.921000", "154624.924000", "154624.927000", "154624.930000", "154624.933000", "154624.936000", "154624.939000", "154624.942000", "154624.944000", "154624.947000", "154624.950000", "154624.953000", "154624.956000", "154624.959000", "154624.962000", "154624.965000", "154624.968000", "154624.971000", "154624.974000", "154624.977000", "154624.979000", "154624.983000", "154624.985000", "154624.988000", "154624.991000", "154624.994000", "154644.917000", "154644.920000", "154644.923000", "154644.926000", "154644.929000", "154644.932000", "154644.934000", "154644.937000", "154644.940000", "154644.943000", "154644.946000", "154644.949000", "154644.952000", "154644.955000", "154724.918000", "154724.921000", "154724.924000", "154724.927000", "154724.930000", "154724.933000", "154724.936000", "154724.939000", "154724.941000", "154724.944000", "154724.947000", "154724.950000", "154724.953000", "154724.956000", "154724.959000", "154724.962000", "154724.965000", "154724.968000", "154724.971000", "154724.974000", "154724.977000", "154724.980000", "154724.983000", "154724.986000", "154724.988000", "154724.991000", "154804.918000", "154804.921000", "154804.924000", "154804.927000", "154804.930000", "154804.933000", "154804.936000", "154804.939000", "154804.941000", "154804.945000", "154804.947000", "154804.950000", "154804.953000", "154804.956000", "154804.959000", "154804.962000", "154804.965000", "154804.967000", "154804.970000", "154804.973000", "154804.976000", "154804.979000", "154804.982000", "154804.985000", "154804.988000", "154804.991000", "154804.993000", "154844.918000", "154844.921000", "154844.924000", "154844.927000", "154844.930000", "154844.933000", "154844.936000", "154844.939000", "154844.942000", "154844.945000", "154844.948000", "154844.951000", "154844.954000", "154844.957000", "154844.959000", "154844.962000", "154844.965000", "154844.968000", "154844.971000", "154844.974000", "154844.977000", "154844.980000", "154844.983000", "154844.986000", "154844.989000", "154844.991000", "154844.994000", "154924.917000", "154924.920000", "154924.923000", "154924.926000", "154924.929000", "154924.932000", "154924.934000", "154924.937000", "154924.940000", "154924.943000", "154924.946000", "154924.949000", "154924.952000", "154924.955000", "154924.958000", "154924.961000", "154924.964000", "154924.966000", "154924.969000", "154924.972000", "154924.975000", "154924.978000", "154924.992000", "154924.995000", "154924.998000", "154925.002000", "154925.004000", "155004.918000", "155004.921000", "155004.924000", "155004.927000", "155004.930000", "155004.933000", "155004.936000", "155004.939000", "155004.942000", "155004.944000", "155004.947000", "155004.950000", "155004.953000", "155004.956000", "155004.959000", "155004.962000", "155004.965000", "155004.968000", "155004.971000", "155004.973000", "155004.976000", "155004.979000", "155004.982000", "155004.985000", "155004.988000", "155004.991000", "155004.994000", "155044.918000", "155044.921000", "155044.924000", "155044.927000", "155044.930000", "155044.933000", "155044.936000", "155044.939000", "155044.942000", "155044.945000", "155044.947000", "155044.950000", "155044.953000", "155044.956000", "155044.959000", "155044.962000", "155044.965000", "155044.968000", "155044.971000", "155044.974000", "155044.977000", "155044.980000", "155044.983000", "155044.985000", "155044.988000", "155044.991000", "155044.994000", "155124.917000", "155124.920000", "155124.923000", "155124.926000", "155124.930000", "155124.933000", "155124.936000", "155124.938000", "155124.942000", "155124.944000", "155124.947000", "155124.950000", "155124.953000", "155124.956000", "155124.959000", "155124.962000", "155124.965000", "155124.968000", "155124.970000", "155124.973000", "155124.976000", "155124.979000", "155124.982000", "155124.985000", "155124.988000", "155124.991000", "155204.918000", "155204.921000", "155204.924000", "155204.927000", "155204.930000", "155204.933000", "155204.936000", "155204.939000", "155204.942000", "155204.945000", "155204.948000", "155204.950000", "155204.953000", "155204.956000", "155204.959000", "155204.962000", "155204.965000", "155204.968000", "155204.979000", "155204.981000", "155204.984000", "155204.987000", "155204.990000", "155204.993000", "155204.996000", "155205.000000", "155205.003000", "155244.918000", "155244.921000", "155244.924000", "155244.927000", "155244.930000", "155244.933000", "155244.936000", "155244.939000", "155244.942000", "155244.945000", "155244.948000", "155244.950000", "155244.953000", "155244.956000", "155244.959000", "155244.962000", "155244.965000", "155244.968000", "155244.971000", "155244.974000", "155244.977000", "155244.980000", "155244.982000", "155244.985000", "155244.988000", "155244.991000", "155244.994000", "155324.918000", "155324.921000", "155324.924000", "155324.927000", "155324.930000", "155324.933000", "155324.936000", "155324.938000", "155324.941000", "155324.944000", "155324.947000", "155324.950000", "155324.953000", "155324.956000", "155324.959000", "155324.962000", "155324.965000", "155324.968000", "155324.971000", "155324.973000", "155324.976000", "155324.979000", "155324.982000", "155324.985000", "155324.988000", "155324.991000", "155324.994000", "155404.917000", "155404.920000", "155404.923000", "155404.926000", "155404.929000", "155404.932000", "155404.935000", "155404.938000", "155404.941000", "155404.954000", "155404.957000", "155404.960000", "155404.963000", "155404.965000", "155404.968000", "155404.971000", "155404.974000", "155404.977000", "155404.980000", "155404.983000", "155404.986000", "155404.989000", "155404.992000", "155404.995000", "155404.997000", "155405.001000", "155405.004000", "155411.849000", "155411.852000", "155411.856000", "155411.859000", "155411.862000"],
