{
  "AcquisitionMatrixPE": 104,
  "AcquisitionNumber": 1,
  "AcquisitionTime": "16:03:29.052500",
  "BandwidthPerPixelPhaseEncode": 17.17,
  "BaseResolution": 104,
  "BodyPartExamined": "BRAIN",
  "CoilString": "HC1-7;NC1_2",
  "ConsistencyInfo": "N4_VE11C_LATEST_20160120",
  "ConversionSoftware": "dcm2niix",
  "ConversionSoftwareVersion": "v1.0.20190720  (JP2:OpenJPEG) GCC7.3.0",
  "DerivedVendorReportedEchoSpacing": 0.000560011,
  "DeviceSerialNumber": "167006",
  "DwellTime": 2.1e-06,
  "EchoTime": 0.037,
  "EchoTrainLength": 104,
  "EffectiveEchoSpacing": 0.000560011,
  "FlipAngle": 52,
  "ImageComments": "Unaliased_MB4_PE3_LB",
  "ImageOrientationPatientDICOM": [0.999764, -0.013782, 0.0168127, 0.0188474, 0.934915, -0.354371],
  "ImageType": [
    "ORIGINAL",
    "PRIMARY",
    "M",
    "MB",
    "ND",
    "MOSAIC"
],
  "ImagingFrequency": 123.259,
  "InPlanePhaseEncodingDirectionDICOM": "COL",
  "InstitutionAddress": "Chemin_Queen-Mary_4565_Montreal_District_CA_H3W_1W5",
  "InstitutionName": "IUGM",
  "InstitutionalDepartmentName": "Department",
  "MRAcquisitionType": "2D",
  "MagneticFieldStrength": 3,
  "Manufacturer": "Siemens",
  "ManufacturersModelName": "Prisma_fit",
  "Modality": "MR",
  "MultibandAccelerationFactor": 4,
  "PartialFourier": 1,
  "PatientPosition": "HFS",
  "PercentPhaseFOV": 100,
  "PhaseEncodingDirection": "j",
  "PhaseEncodingSteps": 104,
  "PhaseResolution": 1,
  "PixelBandwidth": 2290,
  "ProcedureStepDescription": "hcptrt_generic",
  "ProtocolName": "func_task-gambling_run-1",
  "PulseSequenceDetails": "%CustomerSeq%_cmrr_mbep2d_bold",
  "ReceiveCoilActiveElements": "HC1-7;NC1,2",
  "ReceiveCoilName": "HeadNeck_64",
  "ReconMatrixPE": 104,
  "RepetitionTime": 1.49,
  "SAR": 0.0283007,
  "ScanOptions": "FS",
  "ScanningSequence": "EP",
  "SequenceName": "epfid2d1_104",
  "SequenceVariant": "SK_SS",
  "SeriesDescription": "func_task-gambling_run-1",
  "SeriesNumber": 13,
  "ShimSetting": [636, -7161, -8824, 678, 65, 132, 45, -26],
  "SliceThickness": 2,
  "SliceTiming": [0, 0.785, 0.0975, 0.8825, 0.1975, 0.98, 0.295, 1.0775, 0.3925, 1.1775, 0.49, 1.275, 0.5875, 1.3725, 0.6875, 0, 0.785, 0.0975, 0.8825, 0.1975, 0.98, 0.295, 1.0775, 0.3925, 1.1775, 0.49, 1.275, 0.5875, 1.3725, 0.6875, 0, 0.785, 0.0975, 0.8825, 0.1975, 0.98, 0.295, 1.0775, 0.3925, 1.1775, 0.49, 1.275, 0.5875, 1.3725, 0.6875, 0, 0.785, 0.0975, 0.8825, 0.1975, 0.98, 0.295, 1.0775, 0.3925, 1.1775, 0.49, 1.275, 0.5875, 1.3725, 0.6875],
  "SoftwareVersions": "syngo_MR_E11",
  "SpacingBetweenSlices": 2,
  "StationName": "MRC35049",
  "TaskName": "gambling",
  "TotalReadoutTime": 0.0576811,
  "TxRefAmp": 207.642,
  "WipMemBlock": "2c28af98-f146-4a66-af84-7a314408c22c||Sequence: R016 ve11c/master r/e634e98; Dec 19 2017 11:00:25 by eja",
  "dcmmeta_affine": [
    [-1.9995273351669312, 0.037694741040468216, 0.021668927744030952, 106.49689483642578],
    [0.027564004063606262, 1.8698300123214722, -0.7092080116271973, -68.63924407958984],
    [0.03362531214952469, 0.7087417840957642, 1.8699076175689697, -72.85082244873047],
    [0.0, 0.0, 0.0, 1.0]
],
  "dcmmeta_reorient_transform": [
    [0.0, -1.0, 0.0, 103.0],
    [1.0, 0.0, 0.0, 0.0],
    [0.0, 0.0, 1.0, 0.0],
    [0.0, 0.0, 0.0, 1.0]
],
  "dcmmeta_shape": [104, 104, 60, 129],
  "dcmmeta_slice_dim": 2,
  "dcmmeta_version": 0.6,
  "global": {
    "const": {
      "AcquisitionMatrix": [104, 0, 0, 104],
      "AngioFlag": "N",
      "BitsAllocated": 16,
      "BitsStored": 16,
      "BodyPartExamined": "BRAIN",
      "Columns": 832,
      "EchoNumbers": 1,
      "EchoTime": 37.0,
      "EchoTrainLength": 104,
      "FlipAngle": 52.0,
      "HighBit": 15,
      "ImageOrientationPatient": [0.99976366759198, -0.0137820016006, 0.01681265579592, 0.01884736987599, 0.93491499988913, -0.3543708786442],
      "ImagePositionPatient": [-851.92829091109, -794.53806724997, 245.89196710557],
      "ImageType": [
        "ORIGINAL",
        "PRIMARY",
        "M",
        "MB",
        "ND",
        "MOSAIC"
],
      "ImagedNucleus": "1H",
      "ImagingFrequency": 123.259325,
      "InPlanePhaseEncodingDirection": "COL",
      "MRAcquisitionType": "2D",
      "MagneticFieldStrength": 3.0,
      "Manufacturer": "SIEMENS",
      "ManufacturerModelName": "Prisma_fit",
      "Modality": "MR",
      "NumberOfAverages": 1.0,
      "NumberOfPhaseEncodingSteps": 104,
      "PercentPhaseFieldOfView": 100.0,
      "PercentSampling": 100.0,
      "PerformedProcedureStepStartTime": "153608.966000",
      "PhotometricInterpretation": "MONOCHROME2",
      "PixelBandwidth": 2290.0,
      "PixelRepresentation": 0,
      "PixelSpacing": [2.0, 2.0],
      "ProtocolName": "func_task-gambling_run-1",
      "RepetitionTime": 1490.0,
      "Rows": 832,
      "SAR": 0.02830069385698,
      "SamplesPerPixel": 1,
      "ScanOptions": "FS",
      "ScanningSequence": "EP",
      "SequenceName": "epfid2d1_104",
      "SequenceVariant": [
        "SK",
        "SS"
],
      "SeriesDescription": "func_task-gambling_run-1",
      "SeriesNumber": 13,
      "SeriesTime": "160444.949000",
      "SliceLocation": -42.618563313418,
      "SliceThickness": 2.0,
      "SmallestImagePixelValue": 0,
      "SoftwareVersions": "syngo MR E11",
      "SpacingBetweenSlices": 1.9999999784014,
      "SpecificCharacterSet": "ISO_IR 100",
      "StudyID": "1",
      "StudyTime": "153608.901000",
      "TransmitCoilName": "Body",
      "VariableFlipAngleFlag": "N",
      "WindowCenterWidthExplanation": "Algo1",
      "dBdt": 0.0},
    "slices": {}
  },
  "time": {
    "samples": {
      "AcquisitionNumber": [1, 2, 3, 4, 5, 6, 7, 8, 9, 10, 11, 12, 13, 14, 15, 16, 17, 18, 19, 20, 21, 22, 23, 24, 25, 26, 27, 28, 29, 30, 31, 32, 33, 34, 35, 36, 37, 38, 39, 40, 41, 42, 43, 44, 45, 46, 47, 48, 49, 50, 51, 52, 53, 54, 55, 56, 57, 58, 59, 60, 61, 62, 63, 64, 65, 66, 67, 68, 69, 70, 71, 72, 73, 74, 75, 76, 77, 78, 79, 80, 81, 82, 83, 84, 85, 86, 87, 88, 89, 90, 91, 92, 93, 94, 95, 96, 97, 98, 99, 100, 101, 102, 103, 104, 105, 106, 107, 108, 109, 110, 111, 112, 113, 114, 115, 116, 117, 118, 119, 120, 121, 122, 123, 124, 125, 126, 127, 128, 129],
      "AcquisitionTime": ["160329.052500", "160330.542500", "160332.032500", "160333.522500", "160335.012500", "160336.502500", "160337.992500", "160339.482500", "160340.972500", "160342.462500", "160343.952500", "160345.442500", "160346.932500", "160348.422500", "160349.912500", "160351.402500", "160352.892500", "160354.382500", "160355.872500", "160357.362500", "160358.852500", "160400.342500", "160401.832500", "160403.322500", "160404.812500", "160406.302500", "160407.792500", "160409.282500", "160410.772500", "160412.262500", "160413.752500", "160415.242500", "160416.732500", "160418.222500", "160419.712500", "160421.202500", "160422.692500", "160424.182500", "160425.672500", "160427.162500", "160428.652500", "160430.142500", "160431.632500", "160433.122500", "160434.612500", "160436.102500", "160437.592500", "160439.082500", "160440.572500", "160442.062500", "160443.552500", "160445.042500", "160446.532500", "160448.022500", "160449.512500", "160451.002500", "160452.492500", "160453.982500", "160455.472500", "160456.962500", "160458.452500", "160459.942500", "160501.432500", "160502.922500", "160504.412500", "160505.902500", "160507.392500", "160508.882500", "160510.372500", "160511.862500", "160513.352500", "160514.842500", "160516.332500", "160517.822500", "160519.312500", "160520.802500", "160522.292500", "160523.782500", "160525.272500", "160526.762500", "160528.252500", "160529.742500", "160531.232500", "160532.722500", "160534.212500", "160535.702500", "160537.192500", "160538.682500", "160540.172500", "160541.662500", "160543.152500", "160544.642500", "160546.132500", "160547.622500", "160549.112500", "160550.602500", "160552.092500", "160553.582500", "160555.072500", "160556.562500", "160558.052500", "160559.542500", "160601.032500", "160602.522500", "160604.012500", "160605.502500", "160606.992500", "160608.482500", "160609.972500", "160611.462500", "160612.952500", "160614.442500", "160615.932500", "160617.422500", "160618.912500", "160620.402500", "160621.892500", "160623.382500", "160624.872500", "160626.362500", "160627.852500", "160629.342500", "160630.832500", "160632.322500", "160633.812500", "160635.302500", "160636.792500", "160638.282500", "160639.772500"],
      "ContentTime": ["160444.951000", "160444.954000", "160444.958000", "160444.960000", "160444.963000", "160444.966000", "160444.969000", "160444.975000", "160444.981000", "160444.985000", "160444.988000", "160444.991000", "160445.002000", "160445.005000", "160445.008000", "160445.010000", "160445.013000", "160445.016000", "160445.020000", "160445.023000", "160445.027000", "160445.030000", "160504.918000", "160504.921000", "160504.924000", "160504.927000", "160504.930000", "160504.932000", "160504.935000", "160504.938000", "160504.941000", "160504.944000", "160504.947000", "160504.950000", "160504.953000", "160504.955000", "160504.958000", "160504.961000", "160504.964000", "160504.967000", "160504.970000", "160504.973000", "160524.917000", "160524.920000", "160524.923000", "160524.926000", "160524.929000", "160524.932000", "160524.935000", "160524.938000", "160524.941000", "160524.944000", "160524.946000", "160524.949000", "160524.952000", "160524.955000", "160524.958000", "160524.961000", "160524.964000", "160524.967000", "160524.969000", "160524.972000", "160544.918000", "160544.921000", "160544.924000", "160544.927000", "160544.930000", "160544.932000", "160544.935000", "160544.938000", "160544.941000", "160544.944000", "160544.947000", "160544.950000", "160544.953000", "160544.955000", "160544.958000", "160544.961000", "160544.964000", "160544.976000", "160544.979000", "160544.982000", "160604.918000", "160604.921000", "160604.924000", "160604.927000", "160604.930000", "160604.933000", "160604.935000", "160604.940000", "160604.942000", "160604.945000", "160604.948000", "160604.951000", "160604.954000", "160604.957000", "160604.960000", "160604.963000", "160604.966000", "160604.969000", "160604.971000", "160604.974000", "160642.368000", "160642.372000", "160642.375000", "160642.378000", "160642.381000", "160642.384000", "160642.386000", "160642.389000", "160642.392000", "160642.395000", "160642.398000", "160642.401000", "160642.404000", "160642.407000", "160642.410000", "160642.413000", "160642.416000", "160642.419000", "160642.422000", "160642.425000", "160642.428000", "160642.431000", "160642.433000", "160642.436000", "160642.439000", "160642.442000", "160642.445000"],
      "InstanceCreationTime": ["160444.951000", "160444.954000", "160444.958000", "160444.960000", "160444.963000", "160444.966000", "160444.969000", "160444.975000", "160444.981000", "160444.985000", "160444.988000", "160444.991000", "160445.002000", "160445.005000", "160445.008000", "160445.010000", "160445.013000", "160445.016000", "160445.020000", "160445.023000", "160445.027000", "160445.030000", "160504.918000", "160504.921000", "160504.924000", "160504.927000", "160504.930000", "160504.932000", "160504.935000", "160504.938000", "160504.941000", "160504.944000", "160504.947000", "160504.950000", "160504.953000", "160504.955000", "160504.958000", "160504.961000", "160504.964000", "160504.967000", "160504.970000", "160504.973000", "160524.917000", "160524.920000", "160524.923000", "160524.926000", "160524.929000", "160524.932000", "160524.935000", "160524.938000", "160524.941000", "160524.944000", "160524.946000", "160524.949000", "160524.952000", "160524.955000", "160524.958000", "160524.961000", "160524.964000", "160524.967000", "160524.969000", "160524.972000", "160544.918000", "160544.921000", "160544.924000", "160544.927000", "160544.930000", "160544.932000", "160544.935000", "160544.938000", "160544.941000", "160544.944000", "160544.947000", "160544.950000", "160544.953000", "160544.955000", "160544.958000", "160544.961000", "160544.964000", "160544.976000", "160544.979000", "160544.982000", "160604.918000", "160604.921000", "160604.924000", "160604.927000", "160604.930000", "160604.933000", "160604.935000", "160604.940000", "160604.942000", "160604.945000", "160604.948000", "160604.951000", "160604.954000", "160604.957000", "160604.960000", "160604.963000", "160604.966000", "160604.969000", "160604.971000", "160604.974000", "160642.368000", "160642.372000", "160642.375000", "160642.378000", "160642.381000", "160642.384000", "160642.386000", "160642.389000", "160642.392000", "160642.395000", "160642.398000", "160642.401000", "160642.404000", "160642.407000", "160642.410000", "160642.413000", "160642.416000", "160642.419000", "160642.422000", "160642.425000", "160642.428000", "160642.431000", "160642.433000", "160642.436000", "160642.439000", "160642.442000", "160642.445000"],
      "InstanceNumber": [1, 2, 3, 4, 5, 6, 7, 8, 9, 10, 11, 12, 13, 14, 15, 16, 17, 18, 19, 20, 21, 22, 23, 24, 25, 26, 27, 28, 29, 30, 31, 32, 33, 34, 35, 36, 37, 38, 39, 40, 41, 42, 43, 44, 45, 46, 47, 48, 49, 50, 51, 52, 53, 54, 55, 56, 57, 58, 59, 60, 61, 62, 63, 64, 65, 66, 67, 68, 69, 70, 71, 72, 73, 74, 75, 76, 77, 78, 79, 80, 81, 82, 83, 84, 85, 86, 87, 88, 89, 90, 91, 92, 93, 94, 95, 96, 97, 98, 99, 100, 101, 102, 103, 104, 105, 106, 107, 108, 109, 110, 111, 112, 113, 114, 115, 116, 117, 118, 119, 120, 121, 122, 123, 124, 125, 126, 127, 128, 129],
      "LargestImagePixelValue": [40902, 39854, 39258, 38473, 38747, 38445, 38678, 38342, 38519, 37950, 38112, 37943, 38266, 38520, 38521, 38164, 38007, 38191, 37985, 38430, 38630, 38431, 38085, 38025, 38513, 38308, 38340, 38253, 38485, 38539, 38408, 38040, 38109, 38349, 38203, 38876, 39112, 38793, 38832, 38578, 38636, 38795, 38595, 38735, 38385, 38327, 38303, 38111, 38149, 38547, 38861, 38516, 38310, 38506, 37991, 38357, 38464, 38082, 38318, 38300, 38324, 38545, 38377, 38236, 38495, 38944, 38444, 38820, 38564, 39156, 38267, 38424, 38188, 38098, 38316, 37960, 38604, 38428, 38492, 38742, 38585, 38270, 38122, 38350, 38229, 38167, 38172, 38072, 38013, 38351, 37930, 38168, 38126, 38078, 38559, 38310, 38002, 37973, 37889, 38722, 38419, 38281, 38013, 38390, 38195, 38416, 38360, 38368, 37966, 38192, 38249, 38708, 38482, 38025, 38158, 38287, 38432, 38279, 38305, 38524, 38437, 38317, 38763, 38644, 38550, 38543, 38766, 38280, 38318],
      "WindowCenter": [10014.0, 9985.0, 9958.0, 9934.0, 9922.0, 9914.0, 9929.0, 9948.0, 9959.0, 9961.0, 9944.0, 9927.0, 9930.0, 9933.0, 9947.0, 9949.0, 9943.0, 9933.0, 9932.0, 9933.0, 9947.0, 9951.0, 9944.0, 9942.0, 9940.0, 9934.0, 9932.0, 9922.0, 9922.0, 9937.0, 9950.0, 9937.0, 9924.0, 9898.0, 9880.0, 9891.0, 9916.0, 9940.0, 9947.0, 9932.0, 9921.0, 9912.0, 9928.0, 9931.0, 9933.0, 9943.0, 9937.0, 9929.0, 9926.0, 9925.0, 9932.0, 9933.0, 9941.0, 9950.0, 9952.0, 9951.0, 9944.0, 9935.0, 9926.0, 9918.0, 9923.0, 9926.0, 9933.0, 9918.0, 9914.0, 9912.0, 9921.0, 9922.0, 9929.0, 9945.0, 9949.0, 9944.0, 9935.0, 9933.0, 9924.0, 9917.0, 9928.0, 9924.0, 9925.0, 9931.0, 9939.0, 9934.0, 9925.0, 9930.0, 9933.0, 9944.0, 9943.0, 9927.0, 9932.0, 9940.0, 9937.0, 9929.0, 9919.0, 9908.0, 9915.0, 9930.0, 9935.0, 9919.0, 9894.0, 9903.0, 9905.0, 9906.0, 9898.0, 9897.0, 9897.0, 9906.0, 9922.0, 9932.0, 9925.0, 9917.0, 9921.0, 9923.0, 9940.0, 9944.0, 9928.0, 9916.0, 9914.0, 9915.0, 9922.0, 9924.0, 9934.0, 9933.0, 9930.0, 9922.0, 9916.0, 9916.0, 9923.0, 9942.0, 9953.0],
      "WindowWidth": [21259.0, 21175.0, 21101.0, 21046.0, 21015.0, 20995.0, 21030.0, 21072.0, 21097.0, 21102.0, 21063.0, 21025.0, 21028.0, 21036.0, 21068.0, 21074.0, 21059.0, 21038.0, 21033.0, 21038.0, 21066.0, 21078.0, 21064.0, 21058.0, 21052.0, 21040.0, 21032.0, 21009.0, 21007.0, 21039.0, 21073.0, 21045.0, 21011.0, 20952.0, 20912.0, 20934.0, 20994.0, 21052.0, 21063.0, 21031.0, 21004.0, 20984.0, 21021.0, 21029.0, 21036.0, 21058.0, 21045.0, 21026.0, 21016.0, 21015.0, 21031.0, 21037.0, 21054.0, 21073.0, 21080.0, 21078.0, 21063.0, 21040.0, 21018.0, 21001.0, 21011.0, 21020.0, 21034.0, 21001.0, 20990.0, 20985.0, 21003.0, 21007.0, 21020.0, 21056.0, 21068.0, 21061.0, 21041.0, 21035.0, 21013.0, 21000.0, 21018.0, 21013.0, 21017.0, 21030.0, 21048.0, 21039.0, 21018.0, 21025.0, 21036.0, 21061.0, 21058.0, 21023.0, 21030.0, 21052.0, 21049.0, 21029.0, 21003.0, 20976.0, 20992.0, 21026.0, 21035.0, 20998.0, 20945.0, 20959.0, 20967.0, 20969.0, 20951.0, 20950.0, 20950.0, 20973.0, 21004.0, 21028.0, 21014.0, 20998.0, 21004.0, 21010.0, 21048.0, 21059.0, 21021.0, 20992.0, 20985.0, 20989.0, 21004.0, 21011.0, 21033.0, 21029.0, 21019.0, 20999.0, 20990.0, 20991.0, 21007.0, 21052.0, 21081.0]
    },
    "slices": {}
  }
}