{
  "AcquisitionMatrixPE": 104,
  "AcquisitionNumber": 1,
  "AcquisitionTime": "16:20:20.342500",
  "BandwidthPerPixelPhaseEncode": 17.17,
  "BaseResolution": 104,
  "BodyPartExamined": "BRAIN",
  "CoilString": "HC1-7;NC1_2",
  "ConsistencyInfo": "N4_VE11C_LATEST_20160120",
  "ConversionSoftware": "dcm2niix",
  "ConversionSoftwareVersion": "v1.0.20190720  (JP2:OpenJPEG) GCC7.3.0",
  "DerivedVendorReportedEchoSpacing": 0.000560011,
  "DeviceSerialNumber": "167006",
  "DwellTime": 2.1e-06,
  "EchoTime": 0.037,
  "EchoTrainLength": 104,
  "EffectiveEchoSpacing": 0.000560011,
  "FlipAngle": 52,
  "ImageComments": "Unaliased_MB4_PE3_LB",
  "ImageOrientationPatientDICOM": [0.999764, -0.013782, 0.0168127, 0.0188474, 0.934915, -0.354371],
  "ImageType": [
    "ORIGINAL",
    "PRIMARY",
    "M",
    "MB",
    "ND",
    "MOSAIC"
],
  "ImagingFrequency": 123.259,
  "InPlanePhaseEncodingDirectionDICOM": "COL",
  "InstitutionAddress": "Chemin_Queen-Mary_4565_Montreal_District_CA_H3W_1W5",
  "InstitutionName": "IUGM",
  "InstitutionalDepartmentName": "Department",
  "MRAcquisitionType": "2D",
  "MagneticFieldStrength": 3,
  "Manufacturer": "Siemens",
  "ManufacturersModelName": "Prisma_fit",
  "Modality": "MR",
  "MultibandAccelerationFactor": 4,
  "PartialFourier": 1,
  "PatientPosition": "HFS",
  "PercentPhaseFOV": 100,
  "PhaseEncodingDirection": "j",
  "PhaseEncodingSteps": 104,
  "PhaseResolution": 1,
  "PixelBandwidth": 2290,
  "ProcedureStepDescription": "hcptrt_generic",
  "ProtocolName": "func_task-wm_run-1",
  "PulseSequenceDetails": "%CustomerSeq%_cmrr_mbep2d_bold",
  "ReceiveCoilActiveElements": "HC1-7;NC1,2",
  "ReceiveCoilName": "HeadNeck_64",
  "ReconMatrixPE": 104,
  "RepetitionTime": 1.49,
  "SAR": 0.0284502,
  "ScanOptions": "FS",
  "ScanningSequence": "EP",
  "SequenceName": "epfid2d1_104",
  "SequenceVariant": "SK_SS",
  "SeriesDescription": "func_task-wm_run-1",
  "SeriesNumber": 21,
  "ShimSetting": [636, -7161, -8824, 678, 65, 132, 45, -26],
  "SliceThickness": 2,
  "SliceTiming": [0, 0.7825, 0.0975, 0.8825, 0.195, 0.98, 0.2925, 1.0775, 0.3925, 1.175, 0.49, 1.2725, 0.5875, 1.3725, 0.685, 0, 0.7825, 0.0975, 0.8825, 0.195, 0.98, 0.2925, 1.0775, 0.3925, 1.175, 0.49, 1.2725, 0.5875, 1.3725, 0.685, 0, 0.7825, 0.0975, 0.8825, 0.195, 0.98, 0.2925, 1.0775, 0.3925, 1.175, 0.49, 1.2725, 0.5875, 1.3725, 0.685, 0, 0.7825, 0.0975, 0.8825, 0.195, 0.98, 0.2925, 1.0775, 0.3925, 1.175, 0.49, 1.2725, 0.5875, 1.3725, 0.685],
  "SoftwareVersions": "syngo_MR_E11",
  "SpacingBetweenSlices": 2,
  "StationName": "MRC35049",
  "TaskName": "wm",
  "TotalReadoutTime": 0.0576811,
  "TxRefAmp": 207.642,
  "WipMemBlock": "b185738f-327a-4c74-971b-445db7a71456||Sequence: R016 ve11c/master r/e634e98; Dec 19 2017 11:00:25 by eja",
  "dcmmeta_affine": [
    [-1.9995273351669312, 0.037694741040468216, 0.021668927744030952, 106.49689483642578],
    [0.027564004063606262, 1.8698300123214722, -0.7092080116271973, -68.63924407958984],
    [0.03362531214952469, 0.7087417840957642, 1.8699076175689697, -72.85082244873047],
    [0.0, 0.0, 0.0, 1.0]
],
  "dcmmeta_reorient_transform": [
    [0.0, -1.0, 0.0, 103.0],
    [1.0, 0.0, 0.0, 0.0],
    [0.0, 0.0, 1.0, 0.0],
    [0.0, 0.0, 0.0, 1.0]
],
  "dcmmeta_shape": [104, 104, 60, 202],
  "dcmmeta_slice_dim": 2,
  "dcmmeta_version": 0.6,
  "global": {
    "const": {
      "AcquisitionMatrix": [104, 0, 0, 104],
      "AngioFlag": "N",
      "BitsAllocated": 16,
      "BitsStored": 16,
      "BodyPartExamined": "BRAIN",
      "Columns": 832,
      "EchoNumbers": 1,
      "EchoTime": 37.0,
      "EchoTrainLength": 104,
      "FlipAngle": 52.0,
      "HighBit": 15,
      "ImageOrientationPatient": [0.99976366759198, -0.0137820016006, 0.01681265579592, 0.01884736987599, 0.93491499988913, -0.3543708786442],
      "ImagePositionPatient": [-851.92829091109, -794.53806724997, 245.89196710557],
      "ImageType": [
        "ORIGINAL",
        "PRIMARY",
        "M",
        "MB",
        "ND",
        "MOSAIC"
],
      "ImagedNucleus": "1H",
      "ImagingFrequency": 123.25933,
      "InPlanePhaseEncodingDirection": "COL",
      "MRAcquisitionType": "2D",
      "MagneticFieldStrength": 3.0,
      "Manufacturer": "SIEMENS",
      "ManufacturerModelName": "Prisma_fit",
      "Modality": "MR",
      "NumberOfAverages": 1.0,
      "NumberOfPhaseEncodingSteps": 104,
      "PercentPhaseFieldOfView": 100.0,
      "PercentSampling": 100.0,
      "PerformedProcedureStepStartTime": "153608.966000",
      "PhotometricInterpretation": "MONOCHROME2",
      "PixelBandwidth": 2290.0,
      "PixelRepresentation": 0,
      "PixelSpacing": [2.0, 2.0],
      "ProtocolName": "func_task-wm_run-1",
      "RepetitionTime": 1490.0,
      "Rows": 832,
      "SAR": 0.02845019162052,
      "SamplesPerPixel": 1,
      "ScanOptions": "FS",
      "ScanningSequence": "EP",
      "SequenceName": "epfid2d1_104",
      "SequenceVariant": [
        "SK",
        "SS"
],
      "SeriesDescription": "func_task-wm_run-1",
      "SeriesNumber": 21,
      "SeriesTime": "162143.141000",
      "SliceLocation": -42.618563313418,
      "SliceThickness": 2.0,
      "SmallestImagePixelValue": 0,
      "SoftwareVersions": "syngo MR E11",
      "SpacingBetweenSlices": 1.9999999784014,
      "SpecificCharacterSet": "ISO_IR 100",
      "StudyID": "1",
      "StudyTime": "153608.901000",
      "TransmitCoilName": "Body",
      "VariableFlipAngleFlag": "N",
      "WindowCenterWidthExplanation": "Algo1",
      "dBdt": 0.0},
    "slices": {}
  },
  "time": {
    "samples": {
      "AcquisitionNumber": [1, 2, 3, 4, 5, 6, 7, 8, 9, 10, 11, 12, 13, 14, 15, 16, 17, 18, 19, 20, 21, 22, 23, 24, 25, 26, 27, 28, 29, 30, 31, 32, 33, 34, 35, 36, 37, 38, 39, 40, 41, 42, 43, 44, 45, 46, 47, 48, 49, 50, 51, 52, 53, 54, 55, 56, 57, 58, 59, 60, 61, 62, 63, 64, 65, 66, 67, 68, 69, 70, 71, 72, 73, 74, 75, 76, 77, 78, 79, 80, 81, 82, 83, 84, 85, 86, 87, 88, 89, 90, 91, 92, 93, 94, 95, 96, 97, 98, 99, 100, 101, 102, 103, 104, 105, 106, 107, 108, 109, 110, 111, 112, 113, 114, 115, 116, 117, 118, 119, 120, 121, 122, 123, 124, 125, 126, 127, 128, 129, 130, 131, 132, 133, 134, 135, 136, 137, 138, 139, 140, 141, 142, 143, 144, 145, 146, 147, 148, 149, 150, 151, 152, 153, 154, 155, 156, 157, 158, 159, 160, 161, 162, 163, 164, 165, 166, 167, 168, 169, 170, 171, 172, 173, 174, 175, 176, 177, 178, 179, 180, 181, 182, 183, 184, 185, 186, 187, 188, 189, 190, 191, 192, 193, 194, 195, 196, 197, 198, 199, 200, 201, 202],
      "AcquisitionTime": ["162020.342500", "162021.832500", "162023.322500", "162024.812500", "162026.302500", "162027.792500", "162029.282500", "162030.772500", "162032.262500", "162033.752500", "162035.242500", "162036.732500", "162038.222500", "162039.712500", "162041.202500", "162042.692500", "162044.182500", "162045.672500", "162047.162500", "162048.652500", "162050.142500", "162051.632500", "162053.122500", "162054.612500", "162056.102500", "162057.592500", "162059.082500", "162100.572500", "162102.062500", "162103.552500", "162105.042500", "162106.532500", "162108.022500", "162109.512500", "162111.002500", "162112.492500", "162113.982500", "162115.472500", "162116.962500", "162118.452500", "162119.942500", "162121.432500", "162122.922500", "162124.412500", "162125.902500", "162127.392500", "162128.882500", "162130.372500", "162131.862500", "162133.352500", "162134.842500", "162136.332500", "162137.822500", "162139.312500", "162140.802500", "162142.292500", "162143.782500", "162145.272500", "162146.762500", "162148.252500", "162149.742500", "162151.232500", "162152.722500", "162154.212500", "162155.702500", "162157.192500", "162158.682500", "162200.172500", "162201.662500", "162203.152500", "162204.642500", "162206.132500", "162207.622500", "162209.112500", "162210.602500", "162212.092500", "162213.582500", "162215.072500", "162216.562500", "162218.052500", "162219.542500", "162221.032500", "162222.522500", "162224.012500", "162225.502500", "162226.992500", "162228.482500", "162229.972500", "162231.462500", "162232.952500", "162234.442500", "162235.932500", "162237.422500", "162238.912500", "162240.402500", "162241.892500", "162243.382500", "162244.872500", "162246.362500", "162247.852500", "162249.342500", "162250.832500", "162252.322500", "162253.812500", "162255.302500", "162256.792500", "162258.282500", "162259.772500", "162301.262500", "162302.752500", "162304.242500", "162305.732500", "162307.222500", "162308.712500", "162310.202500", "162311.692500", "162313.182500", "162314.672500", "162316.162500", "162317.652500", "162319.142500", "162320.632500", "162322.122500", "162323.612500", "162325.102500", "162326.592500", "162328.082500", "162329.572500", "162331.062500", "162332.552500", "162334.042500", "162335.532500", "162337.022500", "162338.512500", "162340.002500", "162341.492500", "162342.982500", "162344.472500", "162345.962500", "162347.452500", "162348.942500", "162350.432500", "162351.922500", "162353.412500", "162354.902500", "162356.392500", "162357.882500", "162359.372500", "162400.862500", "162402.352500", "162403.842500", "162405.332500", "162406.822500", "162408.312500", "162409.802500", "162411.292500", "162412.782500", "162414.272500", "162415.762500", "162417.252500", "162418.742500", "162420.232500", "162421.722500", "162423.212500", "162424.702500", "162426.192500", "162427.682500", "162429.172500", "162430.662500", "162432.152500", "162433.642500", "162435.132500", "162436.622500", "162438.112500", "162439.602500", "162441.092500", "162442.582500", "162444.072500", "162445.562500", "162447.052500", "162448.542500", "162450.032500", "162451.522500", "162453.012500", "162454.502500", "162455.992500", "162457.482500", "162458.972500", "162500.462500", "162501.952500", "162503.442500", "162504.932500", "162506.422500", "162507.912500", "162509.402500", "162510.892500", "162512.382500", "162513.872500", "162515.362500", "162516.852500", "162518.342500", "162519.832500"],
      "ContentTime": ["162143.144000", "162143.148000", "162143.152000", "162143.155000", "162143.157000", "162143.160000", "162143.163000", "162143.166000", "162143.169000", "162143.172000", "162143.175000", "162143.178000", "162143.181000", "162143.184000", "162143.189000", "162143.192000", "162143.195000", "162143.198000", "162143.201000", "162143.205000", "162143.207000", "162143.210000", "162143.213000", "162143.217000", "162143.220000", "162143.223000", "162143.226000", "162143.229000", "162203.114000", "162203.117000", "162203.120000", "162203.123000", "162203.126000", "162203.129000", "162203.137000", "162203.140000", "162203.143000", "162203.146000", "162203.148000", "162203.151000", "162203.154000", "162203.157000", "162203.160000", "162203.163000", "162203.166000", "162203.169000", "162203.171000", "162203.174000", "162223.114000", "162223.117000", "162223.120000", "162223.123000", "162223.138000", "162223.141000", "162223.144000", "162223.147000", "162223.150000", "162223.153000", "162223.155000", "162223.158000", "162223.161000", "162223.164000", "162223.167000", "162223.170000", "162223.173000", "162223.176000", "162223.179000", "162223.181000", "162243.114000", "162243.117000", "162243.120000", "162243.122000", "162243.125000", "162243.128000", "162243.131000", "162243.134000", "162243.137000", "162243.140000", "162243.143000", "162243.145000", "162243.148000", "162243.152000", "162243.155000", "162243.159000", "162243.163000", "162243.166000", "162243.170000", "162243.173000", "162303.114000", "162303.117000", "162303.120000", "162303.123000", "162303.126000", "162303.129000", "162303.131000", "162303.134000", "162303.137000", "162303.140000", "162303.148000", "162303.151000", "162303.154000", "162303.157000", "162303.160000", "162303.162000", "162303.165000", "162303.168000", "162303.171000", "162303.174000", "162343.114000", "162343.117000", "162343.120000", "162343.123000", "162343.126000", "162343.129000", "162343.131000", "162343.134000", "162343.137000", "162343.140000", "162343.143000", "162343.146000", "162343.149000", "162343.152000", "162343.154000", "162343.158000", "162343.160000", "162343.163000", "162343.166000", "162343.175000", "162343.178000", "162343.181000", "162343.184000", "162343.187000", "162343.189000", "162343.192000", "162343.195000", "162423.114000", "162423.117000", "162423.120000", "162423.123000", "162423.126000", "162423.128000", "162423.131000", "162423.134000", "162423.137000", "162423.140000", "162423.143000", "162423.146000", "162423.149000", "162423.152000", "162423.155000", "162423.158000", "162423.161000", "162423.163000", "162423.166000", "162423.169000", "162423.172000", "162423.175000", "162423.178000", "162423.181000", "162423.184000", "162423.187000", "162423.190000", "162503.114000", "162503.117000", "162503.120000", "162503.123000", "162503.126000", "162503.129000", "162503.132000", "162503.135000", "162503.138000", "162503.141000", "162503.144000", "162503.147000", "162503.150000", "162503.153000", "162503.156000", "162503.159000", "162503.162000", "162503.165000", "162503.168000", "162503.171000", "162503.174000", "162503.177000", "162503.180000", "162503.182000", "162503.185000", "162503.188000", "162503.191000", "162522.178000", "162522.181000", "162522.184000", "162522.187000", "162522.190000", "162522.193000", "162522.196000", "162522.199000", "162522.202000", "162522.205000", "162522.208000", "162522.211000", "162522.214000"],
      "InstanceCreationTime": ["162143.144000", "162143.148000", "162143.152000", "162143.155000", "162143.157000", "162143.160000", "162143.163000", "162143.166000", "162143.169000", "162143.172000", "162143.175000", "162143.178000", "162143.181000", "162143.184000", "162143.189000", "162143.192000", "162143.195000", "162143.198000", "162143.201000", "162143.205000", "162143.207000", "162143.210000", "162143.213000", "162143.217000", "162143.220000", "162143.223000", "162143.226000", "162143.229000", "162203.114000", "162203.117000", "162203.120000", "162203.123000", "162203.126000", "162203.129000", "162203.137000", "162203.140000", "162203.143000", "162203.146000", "162203.148000", "162203.151000", "162203.154000", "162203.157000", "162203.160000", "162203.163000", "162203.166000", "162203.169000", "162203.171000", "162203.174000", "162223.114000", "162223.117000", "162223.120000", "162223.123000", "162223.138000", "162223.141000", "162223.144000", "162223.147000", "162223.150000", "162223.153000", "162223.155000", "162223.158000", "162223.161000", "162223.164000", "162223.167000", "162223.170000", "162223.173000", "162223.176000", "162223.179000", "162223.181000", "162243.114000", "162243.117000", "162243.120000", "162243.122000", "162243.125000", "162243.128000", "162243.131000", "162243.134000", "162243.137000", "162243.140000", "162243.143000", "162243.145000", "162243.148000", "162243.152000", "162243.155000", "162243.159000", "162243.163000", "162243.166000", "162243.170000", "162243.173000", "162303.114000", "162303.117000", "162303.120000", "162303.123000", "162303.126000", "162303.129000", "162303.131000", "162303.134000", "162303.137000", "162303.140000", "162303.148000", "162303.151000", "162303.154000", "162303.157000", "162303.160000", "162303.162000", "162303.165000", "162303.168000", "162303.171000", "162303.174000", "162343.114000", "162343.117000", "162343.120000", "162343.123000", "162343.126000", "162343.129000", "162343.131000", "162343.134000", "162343.137000", "162343.140000", "162343.143000", "162343.146000", "162343.149000", "162343.152000", "162343.154000", "162343.158000", "162343.160000", "162343.163000", "162343.166000", "162343.175000", "162343.178000", "162343.181000", "162343.184000", "162343.187000", "162343.189000", "162343.192000", "162343.195000", "162423.114000", "162423.117000", "162423.120000", "162423.123000", "162423.126000", "162423.128000", "162423.131000", "162423.134000", "162423.137000", "162423.140000", "162423.143000", "162423.146000", "162423.149000", "162423.152000", "162423.155000", "162423.158000", "162423.161000", "162423.163000", "162423.166000", "162423.169000", "162423.172000", "162423.175000", "162423.178000", "162423.181000", "162423.184000", "162423.187000", "162423.190000", "162503.114000", "162503.117000", "162503.120000", "162503.123000", "162503.126000", "162503.129000", "162503.132000", "162503.135000", "162503.138000", "162503.141000", "162503.144000", "162503.147000", "162503.150000", "162503.153000", "162503.156000", "162503.159000", "162503.162000", "162503.165000", "162503.168000", "162503.171000", "162503.174000", "162503.177000", "162503.180000", "162503.182000", "162503.185000", "162503.188000", "162503.191000", "162522.178000", "162522.181000", "162522.184000", "162522.187000", "162522.190000", "162522.193000", "162522.196000", "162522.199000", "162522.202000", "162522.205000", "162522.208000", "162522.211000", "162522.214000"],
      "InstanceNumber": [1, 2, 3, 4, 5, 6, 7, 8, 9, 10, 11, 12, 13, 14, 15, 16, 17, 18, 19, 20, 21, 22, 23, 24, 25, 26, 27, 28, 29, 30, 31, 32, 33, 34, 35, 36, 37, 38, 39, 40, 41, 42, 43, 44, 45, 46, 47, 48, 49, 50, 51, 52, 53, 54, 55, 56, 57, 58, 59, 60, 61, 62, 63, 64, 65, 66, 67, 68, 69, 70, 71, 72, 73, 74, 75, 76, 77, 78, 79, 80, 81, 82, 83, 84, 85, 86, 87, 88, 89, 90, 91, 92, 93, 94, 95, 96, 97, 98, 99, 100, 101, 102, 103, 104, 105, 106, 107, 108, 109, 110, 111, 112, 113, 114, 115, 116, 117, 118, 119, 120, 121, 122, 123, 124, 125, 126, 127, 128, 129, 130, 131, 132, 133, 134, 135, 136, 137, 138, 139, 140, 141, 142, 143, 144, 145, 146, 147, 148, 149, 150, 151, 152, 153, 154, 155, 156, 157, 158, 159, 160, 161, 162, 163, 164, 165, 166, 167, 168, 169, 170, 171, 172, 173, 174, 175, 176, 177, 178, 179, 180, 181, 182, 183, 184, 185, 186, 187, 188, 189, 190, 191, 192, 193, 194, 195, 196, 197, 198, 199, 200, 201, 202],
      "LargestImagePixelValue": [40856, 39514, 38880, 38126, 38160, 37997, 37762, 38060, 37609, 38118, 38254, 38199, 38291, 38344, 38101, 38240, 38192, 38342, 38453, 38338, 37917, 37789, 37923, 37768, 38021, 37647, 38001, 38153, 37697, 37947, 37764, 38075, 37706, 37814, 38183, 37582, 37824, 37652, 37855, 38046, 37883, 37830, 37935, 37610, 37946, 38078, 37779, 37609, 37680, 38014, 37614, 38199, 38025, 37802, 38084, 38269, 37891, 38201, 37950, 38125, 38068, 38121, 38139, 37801, 38107, 37941, 38326, 38181, 38639, 37904, 38074, 37708, 37582, 37921, 38376, 38309, 38033, 38075, 37803, 38042, 38156, 37661, 37974, 37450, 37921, 37589, 37726, 37884, 37655, 37442, 37787, 38392, 37870, 38121, 37749, 37805, 37873, 37818, 38078, 38043, 38461, 38589, 38271, 38591, 38329, 38215, 38223, 37925, 37864, 37636, 38042, 37883, 37819, 37588, 37282, 37502, 37837, 37919, 37758, 37400, 37925, 38081, 37855, 37792, 37540, 37769, 37752, 38010, 38234, 38207, 37975, 38195, 38085, 37925, 37724, 38001, 38072, 37893, 37935, 37786, 38087, 38224, 37883, 38113, 38260, 38168, 37926, 38139, 38520, 38285, 38213, 37802, 38002, 38149, 38033, 38943, 38295, 38204, 38014, 38104, 37945, 38268, 38236, 38324, 38558, 38171, 38256, 37921, 37978, 38017, 37871, 38007, 38117, 37588, 37676, 37645, 37574, 37863, 38025, 37550, 37662, 37757, 38274, 37878, 38005, 38101, 38023, 38417, 38048, 37675, 37892, 38383, 38037, 38145, 38283, 38532, 38173, 37875, 38142, 38424, 38194, 38374],
      "WindowCenter": [9967.0, 9942.0, 9921.0, 9905.0, 9894.0, 9893.0, 9893.0, 9894.0, 9887.0, 9891.0, 9891.0, 9891.0, 9900.0, 9908.0, 9913.0, 9919.0, 9912.0, 9894.0, 9892.0, 9892.0, 9895.0, 9894.0, 9890.0, 9885.0, 9885.0, 9884.0, 9891.0, 9891.0, 9886.0, 9891.0, 9887.0, 9893.0, 9880.0, 9879.0, 9900.0, 9905.0, 9904.0, 9887.0, 9870.0, 9866.0, 9875.0, 9891.0, 9902.0, 9896.0, 9894.0, 9886.0, 9888.0, 9895.0, 9879.0, 9868.0, 9876.0, 9885.0, 9891.0, 9888.0, 9894.0, 9887.0, 9871.0, 9866.0, 9874.0, 9891.0, 9905.0, 9913.0, 9921.0, 9907.0, 9890.0, 9888.0, 9879.0, 9878.0, 9892.0, 9896.0, 9904.0, 9891.0, 9889.0, 9886.0, 9893.0, 9901.0, 9888.0, 9887.0, 9872.0, 9875.0, 9886.0, 9896.0, 9906.0, 9893.0, 9896.0, 9882.0, 9888.0, 9888.0, 9881.0, 9880.0, 9880.0, 9893.0, 9889.0, 9880.0, 9877.0, 9880.0, 9889.0, 9882.0, 9869.0, 9858.0, 9849.0, 9863.0, 9876.0, 9891.0, 9901.0, 9905.0, 9908.0, 9906.0, 9891.0, 9873.0, 9876.0, 9887.0, 9905.0, 9901.0, 9894.0, 9890.0, 9905.0, 9910.0, 9909.0, 9883.0, 9871.0, 9875.0, 9880.0, 9890.0, 9892.0, 9889.0, 9873.0, 9870.0, 9885.0, 9885.0, 9886.0, 9888.0, 9896.0, 9887.0, 9872.0, 9869.0, 9877.0, 9889.0, 9899.0, 9899.0, 9899.0, 9897.0, 9890.0, 9882.0, 9887.0, 9887.0, 9886.0, 9880.0, 9877.0, 9884.0, 9887.0, 9889.0, 9887.0, 9880.0, 9879.0, 9892.0, 9895.0, 9905.0, 9891.0, 9881.0, 9870.0, 9877.0, 9888.0, 9888.0, 9887.0, 9879.0, 9887.0, 9888.0, 9881.0, 9878.0, 9855.0, 9848.0, 9867.0, 9888.0, 9900.0, 9899.0, 9891.0, 9890.0, 9895.0, 9892.0, 9891.0, 9890.0, 9894.0, 9873.0, 9877.0, 9886.0, 9903.0, 9913.0, 9916.0, 9907.0, 9890.0, 9887.0, 9869.0, 9844.0, 9848.0, 9866.0, 9872.0, 9856.0, 9843.0, 9849.0, 9851.0, 9849.0],
      "WindowWidth": [21140.0, 21070.0, 21012.0, 20970.0, 20940.0, 20933.0, 20934.0, 20936.0, 20923.0, 20927.0, 20927.0, 20927.0, 20946.0, 20966.0, 20980.0, 20993.0, 20976.0, 20936.0, 20928.0, 20930.0, 20939.0, 20932.0, 20921.0, 20915.0, 20916.0, 20914.0, 20926.0, 20924.0, 20918.0, 20926.0, 20921.0, 20932.0, 20905.0, 20902.0, 20948.0, 20964.0, 20958.0, 20919.0, 20883.0, 20871.0, 20892.0, 20930.0, 20955.0, 20942.0, 20936.0, 20919.0, 20925.0, 20937.0, 20902.0, 20875.0, 20894.0, 20911.0, 20923.0, 20921.0, 20932.0, 20918.0, 20882.0, 20870.0, 20887.0, 20925.0, 20961.0, 20981.0, 20995.0, 20966.0, 20928.0, 20922.0, 20899.0, 20899.0, 20927.0, 20941.0, 20959.0, 20931.0, 20923.0, 20915.0, 20927.0, 20943.0, 20916.0, 20915.0, 20882.0, 20887.0, 20912.0, 20938.0, 20961.0, 20935.0, 20934.0, 20906.0, 20917.0, 20918.0, 20904.0, 20901.0, 20901.0, 20928.0, 20921.0, 20900.0, 20889.0, 20901.0, 20921.0, 20906.0, 20871.0, 20844.0, 20827.0, 20859.0, 20891.0, 20921.0, 20946.0, 20957.0, 20966.0, 20959.0, 20926.0, 20886.0, 20891.0, 20919.0, 20961.0, 20955.0, 20937.0, 20925.0, 20958.0, 20972.0, 20967.0, 20907.0, 20878.0, 20886.0, 20902.0, 20924.0, 20931.0, 20918.0, 20884.0, 20874.0, 20908.0, 20909.0, 20913.0, 20919.0, 20934.0, 20916.0, 20884.0, 20875.0, 20895.0, 20923.0, 20949.0, 20944.0, 20942.0, 20937.0, 20922.0, 20904.0, 20914.0, 20914.0, 20910.0, 20898.0, 20888.0, 20902.0, 20913.0, 20919.0, 20912.0, 20898.0, 20895.0, 20924.0, 20934.0, 20957.0, 20927.0, 20900.0, 20873.0, 20888.0, 20915.0, 20914.0, 20910.0, 20896.0, 20914.0, 20915.0, 20899.0, 20890.0, 20840.0, 20822.0, 20869.0, 20920.0, 20947.0, 20942.0, 20926.0, 20922.0, 20934.0, 20930.0, 20929.0, 20924.0, 20929.0, 20888.0, 20893.0, 20913.0, 20952.0, 20973.0, 20980.0, 20957.0, 20918.0, 20909.0, 20871.0, 20814.0, 20820.0, 20865.0, 20885.0, 20845.0, 20811.0, 20823.0, 20832.0, 20826.0]
    },
    "slices": {}
  }
}