{
  "AcquisitionMatrixPE": 104,
  "AcquisitionNumber": 1,
  "AcquisitionTime": "16:07:33.220000",
  "BandwidthPerPixelPhaseEncode": 17.17,
  "BaseResolution": 104,
  "BodyPartExamined": "BRAIN",
  "CoilString": "HC1-7;NC1_2",
  "ConsistencyInfo": "N4_VE11C_LATEST_20160120",
  "ConversionSoftware": "dcm2niix",
  "ConversionSoftwareVersion": "v1.0.20190720  (JP2:OpenJPEG) GCC7.3.0",
  "DerivedVendorReportedEchoSpacing": 0.000560011,
  "DeviceSerialNumber": "167006",
  "DwellTime": 2.1e-06,
  "EchoTime": 0.037,
  "EchoTrainLength": 104,
  "EffectiveEchoSpacing": 0.000560011,
  "FlipAngle": 52,
  "ImageComments": "Unaliased_MB4_PE3_LB",
  "ImageOrientationPatientDICOM": [0.99976, -0.0139451, 0.0168745, 0.0190218, 0.934913, -0.354368],
  "ImageType": [
    "ORIGINAL",
    "PRIMARY",
    "M",
    "MB",
    "ND",
    "MOSAIC"
],
  "ImagingFrequency": 123.259,
  "InPlanePhaseEncodingDirectionDICOM": "COL",
  "InstitutionAddress": "Chemin_Queen-Mary_4565_Montreal_District_CA_H3W_1W5",
  "InstitutionName": "IUGM",
  "InstitutionalDepartmentName": "Department",
  "MRAcquisitionType": "2D",
  "MagneticFieldStrength": 3,
  "Manufacturer": "Siemens",
  "ManufacturersModelName": "Prisma_fit",
  "Modality": "MR",
  "MultibandAccelerationFactor": 4,
  "PartialFourier": 1,
  "PatientPosition": "HFS",
  "PercentPhaseFOV": 100,
  "PhaseEncodingDirection": "j",
  "PhaseEncodingSteps": 104,
  "PhaseResolution": 1,
  "PixelBandwidth": 2290,
  "ProcedureStepDescription": "hcptrt_generic",
  "ProtocolName": "func_task-motor_run-1",
  "PulseSequenceDetails": "%CustomerSeq%_cmrr_mbep2d_bold",
  "ReceiveCoilActiveElements": "HC1-7;NC1,2",
  "ReceiveCoilName": "HeadNeck_64",
  "ReconMatrixPE": 104,
  "RepetitionTime": 1.49,
  "SAR": 0.0283432,
  "ScanOptions": "FS",
  "ScanningSequence": "EP",
  "SequenceName": "epfid2d1_104",
  "SequenceVariant": "SK_SS",
  "SeriesDescription": "func_task-motor_run-1",
  "SeriesNumber": 15,
  "ShimSetting": [636, -7161, -8824, 678, 65, 132, 45, -26],
  "SliceThickness": 2,
  "SliceTiming": [0, 0.785, 0.0975, 0.8825, 0.1975, 0.98, 0.295, 1.0775, 0.3925, 1.1775, 0.49, 1.275, 0.5875, 1.3725, 0.6875, 0, 0.785, 0.0975, 0.8825, 0.1975, 0.98, 0.295, 1.0775, 0.3925, 1.1775, 0.49, 1.275, 0.5875, 1.3725, 0.6875, 0, 0.785, 0.0975, 0.8825, 0.1975, 0.98, 0.295, 1.0775, 0.3925, 1.1775, 0.49, 1.275, 0.5875, 1.3725, 0.6875, 0, 0.785, 0.0975, 0.8825, 0.1975, 0.98, 0.295, 1.0775, 0.3925, 1.1775, 0.49, 1.275, 0.5875, 1.3725, 0.6875],
  "SoftwareVersions": "syngo_MR_E11",
  "SpacingBetweenSlices": 2,
  "StationName": "MRC35049",
  "TaskName": "motor",
  "TotalReadoutTime": 0.0576811,
  "TxRefAmp": 207.642,
  "WipMemBlock": "17880aea-ea44-46a1-9282-d7708080e531||Sequence: R016 ve11c/master r/e634e98; Dec 19 2017 11:00:25 by eja",
  "dcmmeta_affine": [
    [-1.9995207786560059, 0.03804364055395126, 0.021668944507837296, 106.478759765625],
    [0.027890264987945557, 1.8698251247406006, -0.7092080116271973, -68.65596771240234],
    [0.03374899551272392, 0.7087358832359314, 1.8699076175689697, -72.85694885253906],
    [0.0, 0.0, 0.0, 1.0]
],
  "dcmmeta_reorient_transform": [
    [0.0, -1.0, 0.0, 103.0],
    [1.0, 0.0, 0.0, 0.0],
    [0.0, 0.0, 1.0, 0.0],
    [0.0, 0.0, 0.0, 1.0]
],
  "dcmmeta_shape": [104, 104, 60, 144],
  "dcmmeta_slice_dim": 2,
  "dcmmeta_version": 0.6,
  "global": {
    "const": {
      "AcquisitionMatrix": [104, 0, 0, 104],
      "AngioFlag": "N",
      "BitsAllocated": 16,
      "BitsStored": 16,
      "BodyPartExamined": "BRAIN",
      "Columns": 832,
      "EchoNumbers": 1,
      "EchoTime": 37.0,
      "EchoTrainLength": 104,
      "FlipAngle": 52.0,
      "HighBit": 15,
      "ImageOrientationPatient": [0.99976036357946, -0.0139451326868, 0.01687449820945, 0.01902181953859, 0.93491257867058, -0.354367945256],
      "ImagePositionPatient": [-852.07068409195, -794.40032773244, 245.83807363855],
      "ImageType": [
        "ORIGINAL",
        "PRIMARY",
        "M",
        "MB",
        "ND",
        "MOSAIC"
],
      "ImagedNucleus": "1H",
      "ImagingFrequency": 123.259327,
      "InPlanePhaseEncodingDirection": "COL",
      "MRAcquisitionType": "2D",
      "MagneticFieldStrength": 3.0,
      "Manufacturer": "SIEMENS",
      "ManufacturerModelName": "Prisma_fit",
      "Modality": "MR",
      "NumberOfAverages": 1.0,
      "NumberOfPhaseEncodingSteps": 104,
      "PercentPhaseFieldOfView": 100.0,
      "PercentSampling": 100.0,
      "PerformedProcedureStepStartTime": "153608.966000",
      "PhotometricInterpretation": "MONOCHROME2",
      "PixelBandwidth": 2290.0,
      "PixelRepresentation": 0,
      "PixelSpacing": [2.0, 2.0],
      "ProtocolName": "func_task-motor_run-1",
      "RepetitionTime": 1490.0,
      "Rows": 832,
      "SAR": 0.02834321274104,
      "SamplesPerPixel": 1,
      "ScanOptions": "FS",
      "ScanningSequence": "EP",
      "SequenceName": "epfid2d1_104",
      "SequenceVariant": [
        "SK",
        "SS"
],
      "SeriesDescription": "func_task-motor_run-1",
      "SeriesNumber": 15,
      "SeriesTime": "160903.147000",
      "SliceLocation": -42.618563358192,
      "SliceThickness": 2.0,
      "SmallestImagePixelValue": 0,
      "SoftwareVersions": "syngo MR E11",
      "SpacingBetweenSlices": 1.9999999784014,
      "SpecificCharacterSet": "ISO_IR 100",
      "StudyID": "1",
      "StudyTime": "153608.901000",
      "TransmitCoilName": "Body",
      "VariableFlipAngleFlag": "N",
      "WindowCenterWidthExplanation": "Algo1",
      "dBdt": 0.0},
    "slices": {}
  },
  "time": {
    "samples": {
      "AcquisitionNumber": [1, 2, 3, 4, 5, 6, 7, 8, 9, 10, 11, 12, 13, 14, 15, 16, 17, 18, 19, 20, 21, 22, 23, 24, 25, 26, 27, 28, 29, 30, 31, 32, 33, 34, 35, 36, 37, 38, 39, 40, 41, 42, 43, 44, 45, 46, 47, 48, 49, 50, 51, 52, 53, 54, 55, 56, 57, 58, 59, 60, 61, 62, 63, 64, 65, 66, 67, 68, 69, 70, 71, 72, 73, 74, 75, 76, 77, 78, 79, 80, 81, 82, 83, 84, 85, 86, 87, 88, 89, 90, 91, 92, 93, 94, 95, 96, 97, 98, 99, 100, 101, 102, 103, 104, 105, 106, 107, 108, 109, 110, 111, 112, 113, 114, 115, 116, 117, 118, 119, 120, 121, 122, 123, 124, 125, 126, 127, 128, 129, 130, 131, 132, 133, 134, 135, 136, 137, 138, 139, 140, 141, 142, 143, 144],
      "AcquisitionTime": ["160733.220000", "160734.710000", "160736.200000", "160737.690000", "160739.180000", "160740.670000", "160742.160000", "160743.650000", "160745.140000", "160746.630000", "160748.120000", "160749.610000", "160751.100000", "160752.590000", "160754.080000", "160755.570000", "160757.060000", "160758.550000", "160800.040000", "160801.530000", "160803.020000", "160804.510000", "160806.000000", "160807.490000", "160808.980000", "160810.470000", "160811.960000", "160813.450000", "160814.940000", "160816.430000", "160817.920000", "160819.410000", "160820.900000", "160822.390000", "160823.880000", "160825.370000", "160826.860000", "160828.350000", "160829.840000", "160831.330000", "160832.820000", "160834.310000", "160835.800000", "160837.290000", "160838.780000", "160840.270000", "160841.760000", "160843.250000", "160844.740000", "160846.230000", "160847.720000", "160849.210000", "160850.700000", "160852.190000", "160853.680000", "160855.170000", "160856.660000", "160858.150000", "160859.640000", "160901.130000", "160902.620000", "160904.110000", "160905.600000", "160907.090000", "160908.580000", "160910.070000", "160911.560000", "160913.050000", "160914.540000", "160916.030000", "160917.520000", "160919.010000", "160920.500000", "160921.990000", "160923.480000", "160924.970000", "160926.460000", "160927.950000", "160929.440000", "160930.930000", "160932.420000", "160933.910000", "160935.400000", "160936.890000", "160938.380000", "160939.870000", "160941.360000", "160942.850000", "160944.340000", "160945.830000", "160947.320000", "160948.810000", "160950.300000", "160951.790000", "160953.280000", "160954.770000", "160956.260000", "160957.750000", "160959.240000", "161000.730000", "161002.220000", "161003.710000", "161005.200000", "161006.690000", "161008.180000", "161009.670000", "161011.160000", "161012.650000", "161014.140000", "161015.630000", "161017.120000", "161018.610000", "161020.100000", "161021.590000", "161023.080000", "161024.570000", "161026.060000", "161027.550000", "161029.040000", "161030.530000", "161032.020000", "161033.510000", "161035.000000", "161036.490000", "161037.980000", "161039.470000", "161040.960000", "161042.450000", "161043.940000", "161045.430000", "161046.920000", "161048.410000", "161049.900000", "161051.390000", "161052.880000", "161054.370000", "161055.860000", "161057.350000", "161058.840000", "161100.330000", "161101.820000", "161103.310000", "161104.800000", "161106.290000"],
      "ContentTime": ["160903.150000", "160903.153000", "160903.156000", "160903.159000", "160903.162000", "160903.165000", "160903.168000", "160903.171000", "160903.174000", "160903.177000", "160903.186000", "160903.190000", "160903.194000", "160903.197000", "160903.200000", "160903.204000", "160903.207000", "160903.210000", "160903.213000", "160903.216000", "160903.219000", "160903.222000", "160903.225000", "160903.228000", "160903.230000", "160903.233000", "160903.236000", "160903.239000", "160903.242000", "160903.245000", "160903.251000", "160903.254000", "160903.257000", "160903.260000", "160923.115000", "160923.118000", "160923.122000", "160923.125000", "160923.128000", "160923.131000", "160923.134000", "160923.137000", "160923.140000", "160923.143000", "160923.146000", "160923.148000", "160923.151000", "160923.154000", "160923.157000", "160923.160000", "160923.163000", "160923.166000", "160923.169000", "160923.172000", "160943.114000", "160943.117000", "160943.120000", "160943.123000", "160943.126000", "160943.129000", "160943.131000", "160943.134000", "160943.137000", "160943.140000", "160943.143000", "160943.146000", "160943.149000", "160943.152000", "160943.155000", "160943.157000", "160943.160000", "160943.163000", "160943.166000", "160943.169000", "160943.172000", "161003.114000", "161003.117000", "161003.120000", "161003.123000", "161003.126000", "161003.128000", "161003.131000", "161003.134000", "161003.137000", "161003.140000", "161003.143000", "161003.146000", "161003.149000", "161003.152000", "161003.155000", "161003.158000", "161003.160000", "161003.163000", "161003.166000", "161003.169000", "161043.115000", "161043.118000", "161043.121000", "161043.124000", "161043.127000", "161043.129000", "161043.132000", "161043.135000", "161043.138000", "161043.141000", "161043.144000", "161043.147000", "161043.150000", "161043.153000", "161043.156000", "161043.159000", "161043.162000", "161043.165000", "161043.167000", "161043.170000", "161043.173000", "161043.176000", "161043.179000", "161043.182000", "161043.194000", "161043.197000", "161043.200000", "161043.203000", "161043.206000", "161043.208000", "161043.211000", "161043.214000", "161107.975000", "161107.978000", "161107.981000", "161107.984000", "161107.987000", "161107.990000", "161107.993000", "161107.995000", "161107.998000", "161108.002000", "161108.005000", "161108.008000", "161108.011000", "161108.014000", "161108.017000", "161108.019000", "161108.022000"],
      "InstanceCreationTime": ["160903.150000", "160903.153000", "160903.156000", "160903.159000", "160903.162000", "160903.165000", "160903.168000", "160903.171000", "160903.174000", "160903.177000", "160903.186000", "160903.190000", "160903.194000", "160903.197000", "160903.200000", "160903.204000", "160903.207000", "160903.210000", "160903.213000", "160903.216000", "160903.219000", "160903.222000", "160903.225000", "160903.228000", "160903.230000", "160903.233000", "160903.236000", "160903.239000", "160903.242000", "160903.245000", "160903.251000", "160903.254000", "160903.257000", "160903.260000", "160923.115000", "160923.118000", "160923.122000", "160923.125000", "160923.128000", "160923.131000", "160923.134000", "160923.137000", "160923.140000", "160923.143000", "160923.146000", "160923.148000", "160923.151000", "160923.154000", "160923.157000", "160923.160000", "160923.163000", "160923.166000", "160923.169000", "160923.172000", "160943.114000", "160943.117000", "160943.120000", "160943.123000", "160943.126000", "160943.129000", "160943.131000", "160943.134000", "160943.137000", "160943.140000", "160943.143000", "160943.146000", "160943.149000", "160943.152000", "160943.155000", "160943.157000", "160943.160000", "160943.163000", "160943.166000", "160943.169000", "160943.172000", "161003.114000", "161003.117000", "161003.120000", "161003.123000", "161003.126000", "161003.128000", "161003.131000", "161003.134000", "161003.137000", "161003.140000", "161003.143000", "161003.146000", "161003.149000", "161003.152000", "161003.155000", "161003.158000", "161003.160000", "161003.163000", "161003.166000", "161003.169000", "161043.115000", "161043.118000", "161043.121000", "161043.124000", "161043.127000", "161043.129000", "161043.132000", "161043.135000", "161043.138000", "161043.141000", "161043.144000", "161043.147000", "161043.150000", "161043.153000", "161043.156000", "161043.159000", "161043.162000", "161043.165000", "161043.167000", "161043.170000", "161043.173000", "161043.176000", "161043.179000", "161043.182000", "161043.194000", "161043.197000", "161043.200000", "161043.203000", "161043.206000", "161043.208000", "161043.211000", "161043.214000", "161107.975000", "161107.978000", "161107.981000", "161107.984000", "161107.987000", "161107.990000", "161107.993000", "161107.995000", "161107.998000", "161108.002000", "161108.005000", "161108.008000", "161108.011000", "161108.014000", "161108.017000", "161108.019000", "161108.022000"],
      "InstanceNumber": [1, 2, 3, 4, 5, 6, 7, 8, 9, 10, 11, 12, 13, 14, 15, 16, 17, 18, 19, 20, 21, 22, 23, 24, 25, 26, 27, 28, 29, 30, 31, 32, 33, 34, 35, 36, 37, 38, 39, 40, 41, 42, 43, 44, 45, 46, 47, 48, 49, 50, 51, 52, 53, 54, 55, 56, 57, 58, 59, 60, 61, 62, 63, 64, 65, 66, 67, 68, 69, 70, 71, 72, 73, 74, 75, 76, 77, 78, 79, 80, 81, 82, 83, 84, 85, 86, 87, 88, 89, 90, 91, 92, 93, 94, 95, 96, 97, 98, 99, 100, 101, 102, 103, 104, 105, 106, 107, 108, 109, 110, 111, 112, 113, 114, 115, 116, 117, 118, 119, 120, 121, 122, 123, 124, 125, 126, 127, 128, 129, 130, 131, 132, 133, 134, 135, 136, 137, 138, 139, 140, 141, 142, 143, 144],
      "LargestImagePixelValue": [40588, 39433, 39120, 38349, 37624, 38042, 37552, 37982, 38262, 38122, 37851, 37978, 37851, 38074, 37458, 37543, 37648, 37699, 37614, 37684, 37769, 37775, 37672, 37484, 37937, 37477, 37504, 37969, 38058, 38166, 37939, 37828, 37850, 38478, 38169, 38428, 38271, 38137, 37721, 38048, 37813, 38271, 38279, 37632, 37778, 38254, 37908, 37574, 37697, 37517, 37494, 37695, 37528, 37843, 37586, 37596, 37390, 37780, 37719, 37709, 37143, 37936, 37274, 37240, 37364, 37174, 37319, 37476, 37544, 37132, 37432, 37242, 37558, 37531, 37816, 37869, 37770, 37904, 37543, 38131, 37544, 37795, 37555, 37745, 37932, 37654, 37750, 37976, 38023, 37769, 37413, 37576, 37669, 38033, 37468, 37561, 37379, 37622, 38357, 37849, 38285, 38018, 38741, 38248, 38316, 37833, 38021, 37700, 37586, 37944, 38749, 38171, 37835, 38188, 37505, 38147, 37930, 37867, 37892, 37792, 37736, 37867, 37705, 38012, 37729, 38516, 37711, 38082, 37757, 37430, 37860, 37814, 38137, 37904, 37938, 37721, 37279, 37501, 37659, 37537, 37402, 37402, 37404, 37739],
      "WindowCenter": [9988.0, 9944.0, 9941.0, 9937.0, 9929.0, 9917.0, 9900.0, 9904.0, 9920.0, 9924.0, 9923.0, 9915.0, 9915.0, 9913.0, 9906.0, 9906.0, 9899.0, 9905.0, 9913.0, 9914.0, 9915.0, 9915.0, 9915.0, 9900.0, 9898.0, 9888.0, 9882.0, 9893.0, 9911.0, 9913.0, 9907.0, 9890.0, 9872.0, 9878.0, 9888.0, 9894.0, 9886.0, 9878.0, 9880.0, 9903.0, 9908.0, 9909.0, 9915.0, 9907.0, 9900.0, 9906.0, 9906.0, 9909.0, 9907.0, 9899.0, 9897.0, 9907.0, 9916.0, 9918.0, 9901.0, 9884.0, 9874.0, 9887.0, 9890.0, 9898.0, 9895.0, 9907.0, 9902.0, 9894.0, 9900.0, 9900.0, 9900.0, 9900.0, 9900.0, 9908.0, 9916.0, 9894.0, 9884.0, 9878.0, 9889.0, 9890.0, 9882.0, 9888.0, 9898.0, 9907.0, 9918.0, 9919.0, 9911.0, 9894.0, 9902.0, 9892.0, 9898.0, 9906.0, 9905.0, 9907.0, 9895.0, 9892.0, 9891.0, 9894.0, 9900.0, 9909.0, 9894.0, 9890.0, 9904.0, 9898.0, 9906.0, 9897.0, 9896.0, 9890.0, 9904.0, 9902.0, 9908.0, 9903.0, 9901.0, 9908.0, 9921.0, 9910.0, 9900.0, 9890.0, 9875.0, 9881.0, 9890.0, 9891.0, 9890.0, 9890.0, 9891.0, 9890.0, 9889.0, 9888.0, 9889.0, 9894.0, 9891.0, 9905.0, 9902.0, 9885.0, 9873.0, 9870.0, 9870.0, 9889.0, 9899.0, 9901.0, 9887.0, 9892.0, 9907.0, 9925.0, 9928.0, 9931.0, 9905.0, 9899.0],
      "WindowWidth": [21194.0, 21078.0, 21062.0, 21052.0, 21028.0, 20999.0, 20960.0, 20965.0, 21002.0, 21015.0, 21010.0, 20991.0, 20991.0, 20986.0, 20973.0, 20974.0, 20958.0, 20969.0, 20985.0, 20989.0, 20992.0, 20989.0, 20986.0, 20954.0, 20949.0, 20927.0, 20917.0, 20938.0, 20979.0, 20987.0, 20973.0, 20934.0, 20896.0, 20908.0, 20930.0, 20942.0, 20921.0, 20906.0, 20914.0, 20963.0, 20976.0, 20978.0, 20991.0, 20972.0, 20957.0, 20969.0, 20969.0, 20980.0, 20970.0, 20954.0, 20949.0, 20971.0, 20994.0, 20997.0, 20958.0, 20919.0, 20899.0, 20926.0, 20934.0, 20953.0, 20949.0, 20971.0, 20963.0, 20947.0, 20959.0, 20960.0, 20957.0, 20958.0, 20960.0, 20976.0, 20990.0, 20944.0, 20921.0, 20905.0, 20931.0, 20932.0, 20915.0, 20930.0, 20954.0, 20974.0, 21000.0, 20999.0, 20981.0, 20944.0, 20961.0, 20941.0, 20953.0, 20967.0, 20966.0, 20970.0, 20946.0, 20937.0, 20934.0, 20940.0, 20961.0, 20979.0, 20948.0, 20934.0, 20968.0, 20954.0, 20969.0, 20949.0, 20945.0, 20935.0, 20965.0, 20964.0, 20975.0, 20967.0, 20960.0, 20975.0, 20998.0, 20980.0, 20957.0, 20934.0, 20903.0, 20913.0, 20934.0, 20938.0, 20934.0, 20933.0, 20937.0, 20934.0, 20929.0, 20925.0, 20928.0, 20940.0, 20938.0, 20964.0, 20962.0, 20923.0, 20894.0, 20884.0, 20888.0, 20933.0, 20957.0, 20961.0, 20933.0, 20940.0, 20973.0, 21012.0, 21022.0, 21023.0, 20964.0, 20944.0]
    },
    "slices": {}
  }
}