{
  "AcquisitionMatrixPE": 104,
  "AcquisitionNumber": 1,
  "AcquisitionTime": "15:59:12.825000",
  "BandwidthPerPixelPhaseEncode": 17.17,
  "BaseResolution": 104,
  "BodyPartExamined": "BRAIN",
  "CoilString": "HC1-7;NC1_2",
  "ConsistencyInfo": "N4_VE11C_LATEST_20160120",
  "ConversionSoftware": "dcm2niix",
  "ConversionSoftwareVersion": "v1.0.20190720  (JP2:OpenJPEG) GCC7.3.0",
  "DerivedVendorReportedEchoSpacing": 0.000560011,
  "DeviceSerialNumber": "167006",
  "DwellTime": 2.1e-06,
  "EchoTime": 0.037,
  "EchoTrainLength": 104,
  "EffectiveEchoSpacing": 0.000560011,
  "FlipAngle": 52,
  "ImageComments": "Unaliased_MB4_PE3_LB",
  "ImageOrientationPatientDICOM": [0.99976, -0.0139451, 0.0168745, 0.0190218, 0.934913, -0.354368],
  "ImageType": [
    "ORIGINAL",
    "PRIMARY",
    "M",
    "MB",
    "ND",
    "MOSAIC"
],
  "ImagingFrequency": 123.259,
  "InPlanePhaseEncodingDirectionDICOM": "COL",
  "InstitutionAddress": "Chemin_Queen-Mary_4565_Montreal_District_CA_H3W_1W5",
  "InstitutionName": "IUGM",
  "InstitutionalDepartmentName": "Department",
  "MRAcquisitionType": "2D",
  "MagneticFieldStrength": 3,
  "Manufacturer": "Siemens",
  "ManufacturersModelName": "Prisma_fit",
  "Modality": "MR",
  "MultibandAccelerationFactor": 4,
  "PartialFourier": 1,
  "PatientPosition": "HFS",
  "PercentPhaseFOV": 100,
  "PhaseEncodingDirection": "j",
  "PhaseEncodingSteps": 104,
  "PhaseResolution": 1,
  "PixelBandwidth": 2290,
  "ProcedureStepDescription": "hcptrt_generic",
  "ProtocolName": "func_task-social_run-1",
  "PulseSequenceDetails": "%CustomerSeq%_cmrr_mbep2d_bold",
  "ReceiveCoilActiveElements": "HC1-7;NC1,2",
  "ReceiveCoilName": "HeadNeck_64",
  "ReconMatrixPE": 104,
  "RepetitionTime": 1.49,
  "SAR": 0.02833,
  "ScanOptions": "FS",
  "ScanningSequence": "EP",
  "SequenceName": "epfid2d1_104",
  "SequenceVariant": "SK_SS",
  "SeriesDescription": "func_task-social_run-1",
  "SeriesNumber": 11,
  "ShimSetting": [636, -7161, -8824, 678, 65, 132, 45, -26],
  "SliceThickness": 2,
  "SliceTiming": [0, 0.785, 0.0975, 0.8825, 0.1975, 0.98, 0.295, 1.0775, 0.3925, 1.1775, 0.49, 1.275, 0.5875, 1.3725, 0.6875, 0, 0.785, 0.0975, 0.8825, 0.1975, 0.98, 0.295, 1.0775, 0.3925, 1.1775, 0.49, 1.275, 0.5875, 1.3725, 0.6875, 0, 0.785, 0.0975, 0.8825, 0.1975, 0.98, 0.295, 1.0775, 0.3925, 1.1775, 0.49, 1.275, 0.5875, 1.3725, 0.6875, 0, 0.785, 0.0975, 0.8825, 0.1975, 0.98, 0.295, 1.0775, 0.3925, 1.1775, 0.49, 1.275, 0.5875, 1.3725, 0.6875],
  "SoftwareVersions": "syngo_MR_E11",
  "SpacingBetweenSlices": 2,
  "StationName": "MRC35049",
  "TaskName": "social",
  "TotalReadoutTime": 0.0576811,
  "TxRefAmp": 207.642,
  "WipMemBlock": "afceba44-0b01-48fa-967f-f387cfb4fc8f||Sequence: R016 ve11c/master r/e634e98; Dec 19 2017 11:00:25 by eja",
  "dcmmeta_affine": [
    [-1.9995207786560059, 0.03804364055395126, 0.021668944507837296, 106.478759765625],
    [0.027890264987945557, 1.8698251247406006, -0.7092080116271973, -68.65596771240234],
    [0.03374899551272392, 0.7087358832359314, 1.8699076175689697, -72.85694885253906],
    [0.0, 0.0, 0.0, 1.0]
],
  "dcmmeta_reorient_transform": [
    [0.0, -1.0, 0.0, 103.0],
    [1.0, 0.0, 0.0, 0.0],
    [0.0, 0.0, 1.0, 0.0],
    [0.0, 0.0, 0.0, 1.0]
],
  "dcmmeta_shape": [104, 104, 60, 139],
  "dcmmeta_slice_dim": 2,
  "dcmmeta_version": 0.6,
  "global": {
    "const": {
      "AcquisitionMatrix": [104, 0, 0, 104],
      "AngioFlag": "N",
      "BitsAllocated": 16,
      "BitsStored": 16,
      "BodyPartExamined": "BRAIN",
      "Columns": 832,
      "EchoNumbers": 1,
      "EchoTime": 37.0,
      "EchoTrainLength": 104,
      "FlipAngle": 52.0,
      "HighBit": 15,
      "ImageOrientationPatient": [0.99976036357946, -0.0139451326868, 0.01687449820945, 0.01902181953859, 0.93491257867058, -0.354367945256],
      "ImagePositionPatient": [-852.07068409195, -794.40032773244, 245.83807363855],
      "ImageType": [
        "ORIGINAL",
        "PRIMARY",
        "M",
        "MB",
        "ND",
        "MOSAIC"
],
      "ImagedNucleus": "1H",
      "ImagingFrequency": 123.259324,
      "InPlanePhaseEncodingDirection": "COL",
      "MRAcquisitionType": "2D",
      "MagneticFieldStrength": 3.0,
      "Manufacturer": "SIEMENS",
      "ManufacturerModelName": "Prisma_fit",
      "Modality": "MR",
      "NumberOfAverages": 1.0,
      "NumberOfPhaseEncodingSteps": 104,
      "PercentPhaseFieldOfView": 100.0,
      "PercentSampling": 100.0,
      "PerformedProcedureStepStartTime": "153608.966000",
      "PhotometricInterpretation": "MONOCHROME2",
      "PixelBandwidth": 2290.0,
      "PixelRepresentation": 0,
      "PixelSpacing": [2.0, 2.0],
      "ProtocolName": "func_task-social_run-1",
      "RepetitionTime": 1490.0,
      "Rows": 832,
      "SAR": 0.02833001068642,
      "SamplesPerPixel": 1,
      "ScanOptions": "FS",
      "ScanningSequence": "EP",
      "SequenceName": "epfid2d1_104",
      "SequenceVariant": [
        "SK",
        "SS"
],
      "SeriesDescription": "func_task-social_run-1",
      "SeriesNumber": 11,
      "SeriesTime": "160046.628000",
      "SliceLocation": -42.618563358192,
      "SliceThickness": 2.0,
      "SmallestImagePixelValue": 0,
      "SoftwareVersions": "syngo MR E11",
      "SpacingBetweenSlices": 1.9999999784014,
      "SpecificCharacterSet": "ISO_IR 100",
      "StudyID": "1",
      "StudyTime": "153608.901000",
      "TransmitCoilName": "Body",
      "VariableFlipAngleFlag": "N",
      "WindowCenterWidthExplanation": "Algo1",
      "dBdt": 0.0},
    "slices": {}
  },
  "time": {
    "samples": {
      "AcquisitionNumber": [1, 2, 3, 4, 5, 6, 7, 8, 9, 10, 11, 12, 13, 14, 15, 16, 17, 18, 19, 20, 21, 22, 23, 24, 25, 26, 27, 28, 29, 30, 31, 32, 33, 34, 35, 36, 37, 38, 39, 40, 41, 42, 43, 44, 45, 46, 47, 48, 49, 50, 51, 52, 53, 54, 55, 56, 57, 58, 59, 60, 61, 62, 63, 64, 65, 66, 67, 68, 69, 70, 71, 72, 73, 74, 75, 76, 77, 78, 79, 80, 81, 82, 83, 84, 85, 86, 87, 88, 89, 90, 91, 92, 93, 94, 95, 96, 97, 98, 99, 100, 101, 102, 103, 104, 105, 106, 107, 108, 109, 110, 111, 112, 113, 114, 115, 116, 117, 118, 119, 120, 121, 122, 123, 124, 125, 126, 127, 128, 129, 130, 131, 132, 133, 134, 135, 136, 137, 138, 139],
      "AcquisitionTime": ["155912.825000", "155914.315000", "155915.805000", "155917.295000", "155918.785000", "155920.275000", "155921.765000", "155923.255000", "155924.745000", "155926.235000", "155927.725000", "155929.215000", "155930.705000", "155932.195000", "155933.685000", "155935.175000", "155936.665000", "155938.155000", "155939.645000", "155941.135000", "155942.625000", "155944.115000", "155945.605000", "155947.095000", "155948.585000", "155950.075000", "155951.565000", "155953.055000", "155954.545000", "155956.035000", "155957.525000", "155959.015000", "160000.505000", "160001.995000", "160003.485000", "160004.975000", "160006.465000", "160007.955000", "160009.445000", "160010.935000", "160012.425000", "160013.915000", "160015.405000", "160016.895000", "160018.385000", "160019.875000", "160021.365000", "160022.855000", "160024.345000", "160025.835000", "160027.325000", "160028.815000", "160030.305000", "160031.795000", "160033.285000", "160034.775000", "160036.265000", "160037.755000", "160039.245000", "160040.735000", "160042.225000", "160043.715000", "160045.205000", "160046.695000", "160048.185000", "160049.675000", "160051.165000", "160052.655000", "160054.145000", "160055.635000", "160057.125000", "160058.615000", "160100.105000", "160101.595000", "160103.085000", "160104.575000", "160106.065000", "160107.555000", "160109.045000", "160110.535000", "160112.025000", "160113.515000", "160115.005000", "160116.495000", "160117.985000", "160119.475000", "160120.965000", "160122.455000", "160123.945000", "160125.435000", "160126.925000", "160128.415000", "160129.905000", "160131.395000", "160132.885000", "160134.375000", "160135.865000", "160137.355000", "160138.845000", "160140.335000", "160141.825000", "160143.315000", "160144.805000", "160146.295000", "160147.785000", "160149.275000", "160150.765000", "160152.255000", "160153.745000", "160155.235000", "160156.725000", "160158.215000", "160159.705000", "160201.195000", "160202.685000", "160204.175000", "160205.665000", "160207.155000", "160208.645000", "160210.135000", "160211.625000", "160213.115000", "160214.605000", "160216.095000", "160217.585000", "160219.075000", "160220.565000", "160222.055000", "160223.545000", "160225.035000", "160226.525000", "160228.015000", "160229.505000", "160230.995000", "160232.485000", "160233.975000", "160235.465000", "160236.955000", "160238.445000"],
      "ContentTime": ["160046.631000", "160046.639000", "160046.642000", "160046.645000", "160046.648000", "160046.651000", "160046.654000", "160046.657000", "160046.660000", "160046.663000", "160046.666000", "160046.669000", "160046.672000", "160046.675000", "160046.678000", "160046.680000", "160046.689000", "160046.692000", "160046.694000", "160046.697000", "160046.700000", "160046.703000", "160046.706000", "160046.709000", "160046.712000", "160046.715000", "160046.717000", "160046.720000", "160046.723000", "160046.726000", "160046.729000", "160046.732000", "160046.734000", "160046.738000", "160046.740000", "160046.743000", "160046.746000", "160046.749000", "160106.592000", "160106.615000", "160106.618000", "160106.621000", "160106.623000", "160106.626000", "160106.629000", "160106.632000", "160106.635000", "160106.638000", "160106.641000", "160106.644000", "160106.647000", "160106.652000", "160106.655000", "160106.658000", "160106.660000", "160106.663000", "160106.666000", "160106.669000", "160126.592000", "160126.595000", "160126.598000", "160126.601000", "160126.603000", "160126.606000", "160126.617000", "160126.620000", "160126.623000", "160126.625000", "160126.628000", "160126.631000", "160126.634000", "160126.637000", "160126.640000", "160126.643000", "160126.646000", "160126.648000", "160126.651000", "160126.654000", "160146.592000", "160146.595000", "160146.598000", "160146.601000", "160146.604000", "160146.607000", "160146.610000", "160146.612000", "160146.615000", "160146.618000", "160146.621000", "160146.624000", "160146.626000", "160146.629000", "160146.632000", "160146.635000", "160146.638000", "160146.641000", "160146.643000", "160146.646000", "160226.592000", "160226.595000", "160226.598000", "160226.601000", "160226.604000", "160226.606000", "160226.609000", "160226.612000", "160226.615000", "160226.618000", "160226.621000", "160226.624000", "160226.627000", "160226.630000", "160226.633000", "160226.635000", "160226.638000", "160226.648000", "160226.651000", "160226.654000", "160226.657000", "160226.660000", "160226.663000", "160226.666000", "160226.669000", "160226.672000", "160226.674000", "160226.677000", "160226.680000", "160226.683000", "160226.686000", "160240.762000", "160240.766000", "160240.768000", "160240.771000", "160240.774000", "160240.777000", "160240.780000", "160240.783000", "160240.786000", "160240.789000"],
      "InstanceCreationTime": ["160046.631000", "160046.639000", "160046.642000", "160046.645000", "160046.648000", "160046.651000", "160046.654000", "160046.657000", "160046.660000", "160046.663000", "160046.666000", "160046.669000", "160046.672000", "160046.675000", "160046.678000", "160046.680000", "160046.689000", "160046.692000", "160046.694000", "160046.697000", "160046.700000", "160046.703000", "160046.706000", "160046.709000", "160046.712000", "160046.715000", "160046.717000", "160046.720000", "160046.723000", "160046.726000", "160046.729000", "160046.732000", "160046.734000", "160046.738000", "160046.740000", "160046.743000", "160046.746000", "160046.749000", "160106.592000", "160106.615000", "160106.618000", "160106.621000", "160106.623000", "160106.626000", "160106.629000", "160106.632000", "160106.635000", "160106.638000", "160106.641000", "160106.644000", "160106.647000", "160106.652000", "160106.655000", "160106.658000", "160106.660000", "160106.663000", "160106.666000", "160106.669000", "160126.592000", "160126.595000", "160126.598000", "160126.601000", "160126.603000", "160126.606000", "160126.617000", "160126.620000", "160126.623000", "160126.625000", "160126.628000", "160126.631000", "160126.634000", "160126.637000", "160126.640000", "160126.643000", "160126.646000", "160126.648000", "160126.651000", "160126.654000", "160146.592000", "160146.595000", "160146.598000", "160146.601000", "160146.604000", "160146.607000", "160146.610000", "160146.612000", "160146.615000", "160146.618000", "160146.621000", "160146.624000", "160146.626000", "160146.629000", "160146.632000", "160146.635000", "160146.638000", "160146.641000", "160146.643000", "160146.646000", "160226.592000", "160226.595000", "160226.598000", "160226.601000", "160226.604000", "160226.606000", "160226.609000", "160226.612000", "160226.615000", "160226.618000", "160226.621000", "160226.624000", "160226.627000", "160226.630000", "160226.633000", "160226.635000", "160226.638000", "160226.648000", "160226.651000", "160226.654000", "160226.657000", "160226.660000", "160226.663000", "160226.666000", "160226.669000", "160226.672000", "160226.674000", "160226.677000", "160226.680000", "160226.683000", "160226.686000", "160240.762000", "160240.766000", "160240.768000", "160240.771000", "160240.774000", "160240.777000", "160240.780000", "160240.783000", "160240.786000", "160240.789000"],
      "InstanceNumber": [1, 2, 3, 4, 5, 6, 7, 8, 9, 10, 11, 12, 13, 14, 15, 16, 17, 18, 19, 20, 21, 22, 23, 24, 25, 26, 27, 28, 29, 30, 31, 32, 33, 34, 35, 36, 37, 38, 39, 40, 41, 42, 43, 44, 45, 46, 47, 48, 49, 50, 51, 52, 53, 54, 55, 56, 57, 58, 59, 60, 61, 62, 63, 64, 65, 66, 67, 68, 69, 70, 71, 72, 73, 74, 75, 76, 77, 78, 79, 80, 81, 82, 83, 84, 85, 86, 87, 88, 89, 90, 91, 92, 93, 94, 95, 96, 97, 98, 99, 100, 101, 102, 103, 104, 105, 106, 107, 108, 109, 110, 111, 112, 113, 114, 115, 116, 117, 118, 119, 120, 121, 122, 123, 124, 125, 126, 127, 128, 129, 130, 131, 132, 133, 134, 135, 136, 137, 138, 139],
      "LargestImagePixelValue": [40984, 39664, 39327, 38677, 38731, 38430, 38400, 38374, 38219, 38279, 38451, 38343, 38114, 38103, 38044, 38272, 38209, 38359, 38362, 38277, 38135, 38300, 37850, 38398, 38356, 38382, 38455, 38250, 38162, 38495, 38397, 38374, 38274, 38177, 38287, 38265, 38062, 38308, 38390, 38248, 38113, 38180, 38222, 38110, 37843, 38668, 38255, 38506, 38296, 38271, 38095, 38169, 38288, 38337, 38211, 38213, 38022, 38484, 38011, 38543, 38024, 38494, 38180, 38210, 38477, 38377, 38117, 38272, 38381, 38204, 38279, 38408, 38191, 38331, 38383, 37932, 38285, 38264, 38779, 37905, 38360, 38196, 38267, 38562, 38678, 38192, 38143, 38227, 38524, 38366, 38349, 38335, 38127, 38123, 37746, 38263, 38447, 38769, 38554, 38817, 38161, 38590, 38150, 38209, 38107, 37701, 38613, 38051, 37848, 38045, 38492, 38489, 37971, 38264, 37848, 38182, 38114, 37928, 38124, 38261, 38298, 38089, 38337, 38092, 38162, 38121, 38126, 38244, 38376, 38036, 38310, 38176, 38337, 38814, 38454, 38638, 38043, 37943, 38257],
      "WindowCenter": [10011.0, 9976.0, 9965.0, 9950.0, 9941.0, 9934.0, 9939.0, 9946.0, 9950.0, 9959.0, 9966.0, 9965.0, 9958.0, 9952.0, 9943.0, 9939.0, 9933.0, 9939.0, 9940.0, 9942.0, 9927.0, 9929.0, 9916.0, 9921.0, 9935.0, 9946.0, 9943.0, 9931.0, 9914.0, 9911.0, 9920.0, 9931.0, 9930.0, 9921.0, 9914.0, 9928.0, 9932.0, 9942.0, 9943.0, 9941.0, 9934.0, 9940.0, 9949.0, 9944.0, 9935.0, 9932.0, 9931.0, 9933.0, 9940.0, 9942.0, 9948.0, 9941.0, 9940.0, 9941.0, 9941.0, 9936.0, 9933.0, 9930.0, 9925.0, 9939.0, 9942.0, 9949.0, 9941.0, 9933.0, 9931.0, 9936.0, 9949.0, 9957.0, 9958.0, 9952.0, 9958.0, 9957.0, 9953.0, 9958.0, 9942.0, 9935.0, 9929.0, 9921.0, 9930.0, 9935.0, 9940.0, 9917.0, 9905.0, 9910.0, 9921.0, 9933.0, 9928.0, 9910.0, 9905.0, 9899.0, 9913.0, 9925.0, 9935.0, 9934.0, 9918.0, 9914.0, 9915.0, 9921.0, 9931.0, 9939.0, 9940.0, 9947.0, 9943.0, 9944.0, 9946.0, 9913.0, 9957.0, 9952.0, 9937.0, 9924.0, 9929.0, 9932.0, 9948.0, 9968.0, 9971.0, 9962.0, 9937.0, 9925.0, 9917.0, 9931.0, 9933.0, 9935.0, 9933.0, 9935.0, 9935.0, 9935.0, 9928.0, 9930.0, 9933.0, 9934.0, 9924.0, 9900.0, 9903.0, 9905.0, 9911.0, 9920.0, 9917.0, 9914.0, 9904.0],
      "WindowWidth": [21254.0, 21160.0, 21124.0, 21085.0, 21062.0, 21046.0, 21056.0, 21068.0, 21080.0, 21099.0, 21113.0, 21112.0, 21096.0, 21083.0, 21061.0, 21051.0, 21041.0, 21054.0, 21057.0, 21061.0, 21030.0, 21027.0, 21003.0, 21009.0, 21039.0, 21066.0, 21060.0, 21032.0, 20994.0, 20987.0, 21009.0, 21034.0, 21032.0, 21011.0, 20994.0, 21026.0, 21037.0, 21062.0, 21064.0, 21058.0, 21045.0, 21057.0, 21076.0, 21068.0, 21043.0, 21033.0, 21032.0, 21037.0, 21053.0, 21058.0, 21069.0, 21055.0, 21053.0, 21055.0, 21058.0, 21047.0, 21040.0, 21029.0, 21022.0, 21050.0, 21062.0, 21074.0, 21055.0, 21041.0, 21034.0, 21043.0, 21075.0, 21090.0, 21095.0, 21083.0, 21096.0, 21093.0, 21086.0, 21091.0, 21056.0, 21038.0, 21021.0, 21006.0, 21025.0, 21042.0, 21049.0, 20999.0, 20969.0, 20979.0, 21010.0, 21039.0, 21031.0, 20987.0, 20972.0, 20963.0, 20993.0, 21021.0, 21045.0, 21040.0, 21006.0, 20991.0, 20993.0, 21006.0, 21031.0, 21047.0, 21052.0, 21065.0, 21061.0, 21065.0, 21071.0, 20991.0, 21090.0, 21083.0, 21047.0, 21013.0, 21023.0, 21032.0, 21069.0, 21117.0, 21128.0, 21106.0, 21047.0, 21016.0, 21003.0, 21032.0, 21038.0, 21044.0, 21037.0, 21042.0, 21043.0, 21040.0, 21024.0, 21025.0, 21036.0, 21037.0, 21011.0, 20959.0, 20962.0, 20969.0, 20983.0, 21002.0, 20997.0, 20986.0, 20965.0]
    },
    "slices": {}
  }
}