{
  "AcquisitionMatrixPE": 104,
  "AcquisitionNumber": 1,
  "AcquisitionTime": "17:55:12.690000",
  "BandwidthPerPixelPhaseEncode": 17.17,
  "BaseResolution": 104,
  "BodyPartExamined": "BRAIN",
  "CoilString": "HC1-7;NC1_2",
  "ConsistencyInfo": "N4_VE11C_LATEST_20160120",
  "ConversionSoftware": "dcm2niix",
  "ConversionSoftwareVersion": "v1.0.20190720  (JP2:OpenJPEG) GCC7.3.0",
  "DerivedVendorReportedEchoSpacing": 0.000560011,
  "DeviceSerialNumber": "167006",
  "DwellTime": 2.1e-06,
  "EchoTime": 0.037,
  "EchoTrainLength": 104,
  "EffectiveEchoSpacing": 0.000560011,
  "FlipAngle": 52,
  "ImageComments": "Unaliased_MB4_PE3_LB",
  "ImageOrientationPatientDICOM": [0.999399, -0.0311999, -0.0151239, 0.022854, 0.920802, -0.389361],
  "ImageType": [
    "ORIGINAL",
    "PRIMARY",
    "M",
    "MB",
    "ND",
    "MOSAIC"
],
  "ImagingFrequency": 123.259,
  "InPlanePhaseEncodingDirectionDICOM": "COL",
  "InstitutionAddress": "Chemin_Queen-Mary_4565_Montreal_District_CA_H3W_1W5",
  "InstitutionName": "IUGM",
  "InstitutionalDepartmentName": "Department",
  "MRAcquisitionType": "2D",
  "MagneticFieldStrength": 3,
  "Manufacturer": "Siemens",
  "ManufacturersModelName": "Prisma_fit",
  "Modality": "MR",
  "MultibandAccelerationFactor": 4,
  "PartialFourier": 1,
  "PatientPosition": "HFS",
  "PercentPhaseFOV": 100,
  "PhaseEncodingDirection": "j",
  "PhaseEncodingSteps": 104,
  "PhaseResolution": 1,
  "PixelBandwidth": 2290,
  "ProcedureStepDescription": "hcptrt_generic",
  "ProtocolName": "func_task-relational_run-1",
  "PulseSequenceDetails": "%CustomerSeq%_cmrr_mbep2d_bold",
  "ReceiveCoilActiveElements": "HC1-7;NC1,2",
  "ReceiveCoilName": "HeadNeck_64",
  "ReconMatrixPE": 104,
  "RepetitionTime": 1.49,
  "SAR": 0.0343598,
  "ScanOptions": "FS",
  "ScanningSequence": "EP",
  "SequenceName": "epfid2d1_104",
  "SequenceVariant": "SK_SS",
  "SeriesDescription": "func_task-relational_run-1",
  "SeriesNumber": 15,
  "ShimSetting": [614, -7258, -8845, 403, 29, -362, 6, 29],
  "SliceThickness": 2,
  "SliceTiming": [0, 0.7825, 0.0975, 0.88, 0.195, 0.98, 0.2925, 1.0775, 0.39, 1.175, 0.49, 1.2725, 0.5875, 1.37, 0.685, 0, 0.7825, 0.0975, 0.88, 0.195, 0.98, 0.2925, 1.0775, 0.39, 1.175, 0.49, 1.2725, 0.5875, 1.37, 0.685, 0, 0.7825, 0.0975, 0.88, 0.195, 0.98, 0.2925, 1.0775, 0.39, 1.175, 0.49, 1.2725, 0.5875, 1.37, 0.685, 0, 0.7825, 0.0975, 0.88, 0.195, 0.98, 0.2925, 1.0775, 0.39, 1.175, 0.49, 1.2725, 0.5875, 1.37, 0.685],
  "SoftwareVersions": "syngo_MR_E11",
  "SpacingBetweenSlices": 2,
  "StationName": "MRC35049",
  "TaskName": "relational",
  "TotalReadoutTime": 0.0576811,
  "TxRefAmp": 236.209,
  "WipMemBlock": "65f9a7ce-1750-4e90-b558-15a0dbb631cf||Sequence: R016 ve11c/master r/e634e98; Dec 19 2017 11:00:25 by eja",
  "dcmmeta_affine": [
    [-1.9987974166870117, 0.045708075165748596, -0.052148353308439255, 103.32699584960938],
    [0.06239989772439003, 1.84160315990448, -0.7775627970695496, -63.5421142578125],
    [-0.03024783544242382, 0.7787222862243652, 1.8419220447540283, -66.52650451660156],
    [0.0, 0.0, 0.0, 1.0]
],
  "dcmmeta_reorient_transform": [
    [0.0, -1.0, 0.0, 103.0],
    [1.0, 0.0, 0.0, 0.0],
    [0.0, 0.0, 1.0, 0.0],
    [0.0, 0.0, 0.0, 1.0]
],
  "dcmmeta_shape": [104, 104, 60, 119],
  "dcmmeta_slice_dim": 2,
  "dcmmeta_version": 0.6,
  "global": {
    "const": {
      "AcquisitionMatrix": [104, 0, 0, 104],
      "AngioFlag": "N",
      "BitsAllocated": 16,
      "BitsStored": 16,
      "BodyPartExamined": "BRAIN",
      "Columns": 832,
      "EchoNumbers": 1,
      "EchoTime": 37.0,
      "EchoTrainLength": 104,
      "FlipAngle": 52.0,
      "HighBit": 15,
      "ImageOrientationPatient": [0.99939873438602, -0.0311999489634, -0.0151239178889, 0.02285403820546, 0.92080160027832, -0.3893611509416],
      "ImagePositionPatient": [-852.23494507126, -773.77301694818, 308.14702526509],
      "ImageType": [
        "ORIGINAL",
        "PRIMARY",
        "M",
        "MB",
        "ND",
        "MOSAIC"
],
      "ImagedNucleus": "1H",
      "ImagingFrequency": 123.259238,
      "InPlanePhaseEncodingDirection": "COL",
      "MRAcquisitionType": "2D",
      "MagneticFieldStrength": 3.0,
      "Manufacturer": "SIEMENS",
      "ManufacturerModelName": "Prisma_fit",
      "Modality": "MR",
      "NumberOfAverages": 1.0,
      "NumberOfPhaseEncodingSteps": 104,
      "PercentPhaseFieldOfView": 100.0,
      "PercentSampling": 100.0,
      "PerformedProcedureStepStartTime": "171513.964000",
      "PhotometricInterpretation": "MONOCHROME2",
      "PixelBandwidth": 2290.0,
      "PixelRepresentation": 0,
      "PixelSpacing": [2.0, 2.0],
      "ProtocolName": "func_task-relational_run-1",
      "RepetitionTime": 1490.0,
      "Rows": 832,
      "SAR": 0.03435975423572,
      "SamplesPerPixel": 1,
      "ScanOptions": "FS",
      "ScanningSequence": "EP",
      "SequenceName": "epfid2d1_104",
      "SequenceVariant": [
        "SK",
        "SS"
],
      "SeriesDescription": "func_task-relational_run-1",
      "SeriesNumber": 15,
      "SeriesTime": "175608.788000",
      "SliceLocation": -39.258487593062,
      "SliceThickness": 2.0,
      "SmallestImagePixelValue": 0,
      "SoftwareVersions": "syngo MR E11",
      "SpacingBetweenSlices": 2.0000000426937,
      "SpecificCharacterSet": "ISO_IR 100",
      "StudyID": "1",
      "StudyTime": "171513.909000",
      "TransmitCoilName": "Body",
      "VariableFlipAngleFlag": "N",
      "WindowCenterWidthExplanation": "Algo1",
      "dBdt": 0.0},
    "slices": {}
  },
  "time": {
    "samples": {
      "AcquisitionNumber": [1, 2, 3, 4, 5, 6, 7, 8, 9, 10, 11, 12, 13, 14, 15, 16, 17, 18, 19, 20, 21, 22, 23, 24, 25, 26, 27, 28, 29, 30, 31, 32, 33, 34, 35, 36, 37, 38, 39, 40, 41, 42, 43, 44, 45, 46, 47, 48, 49, 50, 51, 52, 53, 54, 55, 56, 57, 58, 59, 60, 61, 62, 63, 64, 65, 66, 67, 68, 69, 70, 71, 72, 73, 74, 75, 76, 77, 78, 79, 80, 81, 82, 83, 84, 85, 86, 87, 88, 89, 90, 91, 92, 93, 94, 95, 96, 97, 98, 99, 100, 101, 102, 103, 104, 105, 106, 107, 108, 109, 110, 111, 112, 113, 114, 115, 116, 117, 118, 119],
      "AcquisitionTime": ["175512.690000", "175514.180000", "175515.670000", "175517.160000", "175518.650000", "175520.140000", "175521.630000", "175523.120000", "175524.610000", "175526.100000", "175527.590000", "175529.080000", "175530.570000", "175532.060000", "175533.550000", "175535.040000", "175536.530000", "175538.020000", "175539.510000", "175541.000000", "175542.490000", "175543.980000", "175545.470000", "175546.960000", "175548.450000", "175549.940000", "175551.430000", "175552.920000", "175554.410000", "175555.900000", "175557.390000", "175558.880000", "175600.370000", "175601.860000", "175603.350000", "175604.840000", "175606.330000", "175607.820000", "175609.310000", "175610.800000", "175612.290000", "175613.780000", "175615.270000", "175616.760000", "175618.250000", "175619.740000", "175621.230000", "175622.720000", "175624.210000", "175625.700000", "175627.190000", "175628.680000", "175630.170000", "175631.660000", "175633.150000", "175634.640000", "175636.130000", "175637.620000", "175639.110000", "175640.600000", "175642.090000", "175643.580000", "175645.070000", "175646.560000", "175648.050000", "175649.540000", "175651.030000", "175652.520000", "175654.010000", "175655.500000", "175656.990000", "175658.480000", "175659.970000", "175701.460000", "175702.950000", "175704.440000", "175705.930000", "175707.420000", "175708.910000", "175710.400000", "175711.890000", "175713.380000", "175714.870000", "175716.360000", "175717.850000", "175719.340000", "175720.830000", "175722.320000", "175723.810000", "175725.300000", "175726.790000", "175728.280000", "175729.770000", "175731.260000", "175732.750000", "175734.240000", "175735.730000", "175737.220000", "175738.710000", "175740.200000", "175741.690000", "175743.180000", "175744.670000", "175746.160000", "175747.650000", "175749.140000", "175750.630000", "175752.120000", "175753.610000", "175755.100000", "175756.590000", "175758.080000", "175759.570000", "175801.060000", "175802.550000", "175804.040000", "175805.530000", "175807.020000", "175808.510000"],
      "ContentTime": ["175608.790000", "175609.289000", "175610.789000", "175611.289000", "175612.289000", "175613.289000", "175614.289000", "175615.288000", "175616.288000", "175617.289000", "175618.289000", "175619.289000", "175620.289000", "175621.289000", "175622.289000", "175623.289000", "175624.289000", "175625.289000", "175626.289000", "175627.289000", "175628.289000", "175629.289000", "175630.289000", "175631.289000", "175632.293000", "175633.288000", "175634.289000", "175635.289000", "175636.289000", "175637.289000", "175638.289000", "175639.289000", "175640.289000", "175641.289000", "175642.289000", "175643.289000", "175644.289000", "175644.789000", "175646.289000", "175647.289000", "175648.289000", "175649.289000", "175650.288000", "175651.288000", "175652.289000", "175653.289000", "175654.309000", "175655.289000", "175656.289000", "175657.289000", "175658.289000", "175658.789000", "175659.789000", "175700.789000", "175701.789000", "175702.789000", "175703.789000", "175704.789000", "175705.789000", "175706.789000", "175707.788000", "175708.788000", "175709.789000", "175710.789000", "175711.789000", "175712.789000", "175713.789000", "175714.789000", "175715.789000", "175716.789000", "175717.789000", "175718.789000", "175719.789000", "175720.789000", "175721.789000", "175722.789000", "175723.789000", "175724.788000", "175725.788000", "175726.789000", "175727.789000", "175728.789000", "175729.789000", "175730.789000", "175731.789000", "175732.789000", "175733.789000", "175734.789000", "175735.789000", "175736.789000", "175737.789000", "175738.789000", "175739.289000", "175740.789000", "175741.289000", "175742.288000", "175743.288000", "175744.289000", "175745.289000", "175746.289000", "175747.289000", "175748.289000", "175749.289000", "175750.289000", "175751.289000", "175752.289000", "175753.289000", "175754.789000", "175756.289000", "175757.789000", "175759.289000", "175800.788000", "175802.289000", "175803.789000", "175805.289000", "175806.789000", "175808.289000", "175809.789000", "175811.027000"],
      "InstanceCreationTime": ["175608.790000", "175609.289000", "175610.789000", "175611.289000", "175612.289000", "175613.289000", "175614.289000", "175615.288000", "175616.288000", "175617.289000", "175618.289000", "175619.289000", "175620.289000", "175621.289000", "175622.289000", "175623.289000", "175624.289000", "175625.289000", "175626.289000", "175627.289000", "175628.289000", "175629.289000", "175630.289000", "175631.289000", "175632.293000", "175633.288000", "175634.289000", "175635.289000", "175636.289000", "175637.289000", "175638.289000", "175639.289000", "175640.289000", "175641.289000", "175642.289000", "175643.289000", "175644.289000", "175644.789000", "175646.289000", "175647.289000", "175648.289000", "175649.289000", "175650.288000", "175651.288000", "175652.289000", "175653.289000", "175654.309000", "175655.289000", "175656.289000", "175657.289000", "175658.289000", "175658.789000", "175659.789000", "175700.789000", "175701.789000", "175702.789000", "175703.789000", "175704.789000", "175705.789000", "175706.789000", "175707.788000", "175708.788000", "175709.789000", "175710.789000", "175711.789000", "175712.789000", "175713.789000", "175714.789000", "175715.789000", "175716.789000", "175717.789000", "175718.789000", "175719.789000", "175720.789000", "175721.789000", "175722.789000", "175723.789000", "175724.788000", "175725.788000", "175726.789000", "175727.789000", "175728.789000", "175729.789000", "175730.789000", "175731.789000", "175732.789000", "175733.789000", "175734.789000", "175735.789000", "175736.789000", "175737.789000", "175738.789000", "175739.289000", "175740.789000", "175741.289000", "175742.288000", "175743.288000", "175744.289000", "175745.289000", "175746.289000", "175747.289000", "175748.289000", "175749.289000", "175750.289000", "175751.289000", "175752.289000", "175753.289000", "175754.789000", "175756.289000", "175757.789000", "175759.289000", "175800.788000", "175802.289000", "175803.789000", "175805.289000", "175806.789000", "175808.289000", "175809.789000", "175811.027000"],
      "InstanceNumber": [1, 2, 3, 4, 5, 6, 7, 8, 9, 10, 11, 12, 13, 14, 15, 16, 17, 18, 19, 20, 21, 22, 23, 24, 25, 26, 27, 28, 29, 30, 31, 32, 33, 34, 35, 36, 37, 38, 39, 40, 41, 42, 43, 44, 45, 46, 47, 48, 49, 50, 51, 52, 53, 54, 55, 56, 57, 58, 59, 60, 61, 62, 63, 64, 65, 66, 67, 68, 69, 70, 71, 72, 73, 74, 75, 76, 77, 78, 79, 80, 81, 82, 83, 84, 85, 86, 87, 88, 89, 90, 91, 92, 93, 94, 95, 96, 97, 98, 99, 100, 101, 102, 103, 104, 105, 106, 107, 108, 109, 110, 111, 112, 113, 114, 115, 116, 117, 118, 119],
      "LargestImagePixelValue": [60281, 57874, 56551, 56754, 55609, 55258, 55168, 55104, 55522, 55657, 55352, 55379, 55416, 55172, 55400, 55099, 55464, 55463, 55869, 54904, 56465, 55105, 55178, 55047, 54866, 55542, 55110, 54451, 55341, 54843, 55704, 54604, 54447, 54472, 53772, 54331, 53947, 54002, 53890, 54044, 53064, 54165, 53670, 53530, 54315, 53768, 53950, 54321, 53827, 54509, 53968, 54731, 53341, 53797, 54364, 54305, 53573, 54066, 53653, 54196, 54271, 53498, 54318, 53709, 54247, 53722, 54281, 53852, 53656, 53598, 53330, 53552, 52954, 53314, 52977, 53341, 53612, 53563, 53535, 53671, 53536, 53442, 53072, 53106, 52980, 53469, 53042, 53608, 52767, 53138, 52504, 52911, 53164, 53255, 53002, 52988, 53229, 53083, 53129, 53542, 53193, 52721, 53115, 52948, 53154, 52994, 53364, 52754, 53206, 53099, 53294, 53349, 53034, 54634, 55104, 54321, 53857, 53678, 53769],
      "WindowCenter": [10465.0, 10412.0, 10375.0, 10331.0, 10279.0, 10256.0, 10255.0, 10268.0, 10289.0, 10306.0, 10318.0, 10321.0, 10330.0, 10322.0, 10335.0, 10335.0, 10351.0, 10355.0, 10367.0, 10357.0, 10376.0, 10354.0, 10338.0, 10331.0, 10323.0, 10341.0, 10336.0, 10332.0, 10336.0, 10327.0, 10332.0, 10326.0, 10323.0, 10330.0, 10324.0, 10331.0, 10332.0, 10333.0, 10333.0, 10327.0, 10323.0, 10334.0, 10334.0, 10321.0, 10328.0, 10314.0, 10311.0, 10313.0, 10313.0, 10320.0, 10312.0, 10310.0, 10298.0, 10306.0, 10320.0, 10327.0, 10324.0, 10324.0, 10323.0, 10324.0, 10339.0, 10341.0, 10348.0, 10332.0, 10331.0, 10331.0, 10340.0, 10327.0, 10310.0, 10278.0, 10259.0, 10248.0, 10240.0, 10253.0, 10257.0, 10263.0, 10270.0, 10271.0, 10279.0, 10287.0, 10296.0, 10299.0, 10299.0, 10306.0, 10316.0, 10324.0, 10315.0, 10313.0, 10294.0, 10298.0, 10279.0, 10277.0, 10272.0, 10265.0, 10257.0, 10247.0, 10254.0, 10255.0, 10257.0, 10272.0, 10281.0, 10276.0, 10282.0, 10283.0, 10293.0, 10300.0, 10293.0, 10284.0, 10283.0, 10283.0, 10276.0, 10266.0, 10292.0, 10368.0, 10363.0, 10355.0, 10341.0, 10331.0, 10324.0],
      "WindowWidth": [22595.0, 22438.0, 22332.0, 22218.0, 22090.0, 22028.0, 22026.0, 22057.0, 22102.0, 22138.0, 22166.0, 22175.0, 22196.0, 22179.0, 22206.0, 22207.0, 22241.0, 22254.0, 22278.0, 22259.0, 22299.0, 22251.0, 22214.0, 22201.0, 22181.0, 22222.0, 22210.0, 22204.0, 22210.0, 22190.0, 22197.0, 22187.0, 22181.0, 22198.0, 22188.0, 22201.0, 22203.0, 22209.0, 22207.0, 22195.0, 22193.0, 22210.0, 22210.0, 22182.0, 22191.0, 22160.0, 22151.0, 22155.0, 22157.0, 22170.0, 22154.0, 22147.0, 22124.0, 22140.0, 22172.0, 22188.0, 22183.0, 22182.0, 22181.0, 22186.0, 22216.0, 22224.0, 22236.0, 22198.0, 22196.0, 22196.0, 22215.0, 22188.0, 22148.0, 22079.0, 22036.0, 22011.0, 21995.0, 22019.0, 22034.0, 22047.0, 22059.0, 22060.0, 22076.0, 22095.0, 22116.0, 22125.0, 22125.0, 22140.0, 22164.0, 22180.0, 22160.0, 22153.0, 22115.0, 22119.0, 22081.0, 22077.0, 22061.0, 22047.0, 22031.0, 22007.0, 22024.0, 22027.0, 22033.0, 22064.0, 22089.0, 22075.0, 22089.0, 22092.0, 22114.0, 22132.0, 22113.0, 22095.0, 22093.0, 22091.0, 22075.0, 22047.0, 22113.0, 22305.0, 22286.0, 22260.0, 22229.0, 22205.0, 22188.0]
    },
    "slices": {}
  }
}