{
  "AcquisitionMatrixPE": 104,
  "AcquisitionNumber": 1,
  "AcquisitionTime": "17:34:51.147500",
  "BandwidthPerPixelPhaseEncode": 17.17,
  "BaseResolution": 104,
  "BodyPartExamined": "BRAIN",
  "CoilString": "HC1-7;NC1_2",
  "ConsistencyInfo": "N4_VE11C_LATEST_20160120",
  "ConversionSoftware": "dcm2niix",
  "ConversionSoftwareVersion": "v1.0.20190720  (JP2:OpenJPEG) GCC7.3.0",
  "DerivedVendorReportedEchoSpacing": 0.000560011,
  "DeviceSerialNumber": "167006",
  "DwellTime": 2.1e-06,
  "EchoTime": 0.037,
  "EchoTrainLength": 104,
  "EffectiveEchoSpacing": 0.000560011,
  "FlipAngle": 52,
  "ImageComments": "Unaliased_MB4_PE3_LB",
  "ImageOrientationPatientDICOM": [0.999399, -0.0311999, -0.0151239, 0.022854, 0.920802, -0.389361],
  "ImageType": [
    "ORIGINAL",
    "PRIMARY",
    "M",
    "MB",
    "ND",
    "MOSAIC"
],
  "ImagingFrequency": 123.259,
  "InPlanePhaseEncodingDirectionDICOM": "COL",
  "InstitutionAddress": "Chemin_Queen-Mary_4565_Montreal_District_CA_H3W_1W5",
  "InstitutionName": "IUGM",
  "InstitutionalDepartmentName": "Department",
  "MRAcquisitionType": "2D",
  "MagneticFieldStrength": 3,
  "Manufacturer": "Siemens",
  "ManufacturersModelName": "Prisma_fit",
  "Modality": "MR",
  "MultibandAccelerationFactor": 4,
  "PartialFourier": 1,
  "PatientPosition": "HFS",
  "PercentPhaseFOV": 100,
  "PhaseEncodingDirection": "j",
  "PhaseEncodingSteps": 104,
  "PhaseResolution": 1,
  "PixelBandwidth": 2290,
  "ProcedureStepDescription": "hcptrt_generic",
  "ProtocolName": "func_task-motor_run-1",
  "PulseSequenceDetails": "%CustomerSeq%_cmrr_mbep2d_bold",
  "ReceiveCoilActiveElements": "HC1-7;NC1,2",
  "ReceiveCoilName": "HeadNeck_64",
  "ReconMatrixPE": 104,
  "RepetitionTime": 1.49,
  "SAR": 0.0344527,
  "ScanOptions": "FS",
  "ScanningSequence": "EP",
  "SequenceName": "epfid2d1_104",
  "SequenceVariant": "SK_SS",
  "SeriesDescription": "func_task-motor_run-1",
  "SeriesNumber": 7,
  "ShimSetting": [614, -7256, -8847, 398, 27, -345, 11, 28],
  "SliceThickness": 2,
  "SliceTiming": [0, 0.785, 0.0975, 0.8825, 0.195, 0.98, 0.295, 1.0775, 0.3925, 1.175, 0.49, 1.275, 0.5875, 1.3725, 0.685, 0, 0.785, 0.0975, 0.8825, 0.195, 0.98, 0.295, 1.0775, 0.3925, 1.175, 0.49, 1.275, 0.5875, 1.3725, 0.685, 0, 0.785, 0.0975, 0.8825, 0.195, 0.98, 0.295, 1.0775, 0.3925, 1.175, 0.49, 1.275, 0.5875, 1.3725, 0.685, 0, 0.785, 0.0975, 0.8825, 0.195, 0.98, 0.295, 1.0775, 0.3925, 1.175, 0.49, 1.275, 0.5875, 1.3725, 0.685],
  "SoftwareVersions": "syngo_MR_E11",
  "SpacingBetweenSlices": 2,
  "StationName": "MRC35049",
  "TaskName": "motor",
  "TotalReadoutTime": 0.0576811,
  "TxRefAmp": 236.209,
  "WipMemBlock": "bd119b70-c2ba-435c-bb84-fae18b2a02e5||Sequence: R016 ve11c/master r/e634e98; Dec 19 2017 11:00:25 by eja",
  "dcmmeta_affine": [
    [-1.9987974166870117, 0.045708075165748596, -0.052148353308439255, 103.32699584960938],
    [0.06239989772439003, 1.84160315990448, -0.7775627970695496, -63.5421142578125],
    [-0.03024783544242382, 0.7787222862243652, 1.8419220447540283, -66.52650451660156],
    [0.0, 0.0, 0.0, 1.0]
],
  "dcmmeta_reorient_transform": [
    [0.0, -1.0, 0.0, 103.0],
    [1.0, 0.0, 0.0, 0.0],
    [0.0, 0.0, 1.0, 0.0],
    [0.0, 0.0, 0.0, 1.0]
],
  "dcmmeta_shape": [104, 104, 60, 144],
  "dcmmeta_slice_dim": 2,
  "dcmmeta_version": 0.6,
  "global": {
    "const": {
      "AcquisitionMatrix": [104, 0, 0, 104],
      "AngioFlag": "N",
      "BitsAllocated": 16,
      "BitsStored": 16,
      "BodyPartExamined": "BRAIN",
      "Columns": 832,
      "EchoNumbers": 1,
      "EchoTime": 37.0,
      "EchoTrainLength": 104,
      "FlipAngle": 52.0,
      "HighBit": 15,
      "ImageOrientationPatient": [0.99939873438602, -0.0311999489634, -0.0151239178889, 0.02285403820546, 0.92080160027832, -0.3893611509416],
      "ImagePositionPatient": [-852.23494507126, -773.77301694818, 308.14702526509],
      "ImageType": [
        "ORIGINAL",
        "PRIMARY",
        "M",
        "MB",
        "ND",
        "MOSAIC"
],
      "ImagedNucleus": "1H",
      "ImagingFrequency": 123.259227,
      "InPlanePhaseEncodingDirection": "COL",
      "MRAcquisitionType": "2D",
      "MagneticFieldStrength": 3.0,
      "Manufacturer": "SIEMENS",
      "ManufacturerModelName": "Prisma_fit",
      "Modality": "MR",
      "NumberOfAverages": 1.0,
      "NumberOfPhaseEncodingSteps": 104,
      "PercentPhaseFieldOfView": 100.0,
      "PercentSampling": 100.0,
      "PerformedProcedureStepStartTime": "171513.964000",
      "PhotometricInterpretation": "MONOCHROME2",
      "PixelBandwidth": 2290.0,
      "PixelRepresentation": 0,
      "PixelSpacing": [2.0, 2.0],
      "ProtocolName": "func_task-motor_run-1",
      "RepetitionTime": 1490.0,
      "Rows": 832,
      "SAR": 0.03445272892401,
      "SamplesPerPixel": 1,
      "ScanOptions": "FS",
      "ScanningSequence": "EP",
      "SequenceName": "epfid2d1_104",
      "SequenceVariant": [
        "SK",
        "SS"
],
      "SeriesDescription": "func_task-motor_run-1",
      "SeriesNumber": 7,
      "SeriesTime": "173545.115000",
      "SliceLocation": -39.258487593062,
      "SliceThickness": 2.0,
      "SmallestImagePixelValue": 0,
      "SoftwareVersions": "syngo MR E11",
      "SpacingBetweenSlices": 2.0000000426937,
      "SpecificCharacterSet": "ISO_IR 100",
      "StudyID": "1",
      "StudyTime": "171513.909000",
      "TransmitCoilName": "Body",
      "VariableFlipAngleFlag": "N",
      "WindowCenterWidthExplanation": "Algo1",
      "dBdt": 0.0},
    "slices": {}
  },
  "time": {
    "samples": {
      "AcquisitionNumber": [1, 2, 3, 4, 5, 6, 7, 8, 9, 10, 11, 12, 13, 14, 15, 16, 17, 18, 19, 20, 21, 22, 23, 24, 25, 26, 27, 28, 29, 30, 31, 32, 33, 34, 35, 36, 37, 38, 39, 40, 41, 42, 43, 44, 45, 46, 47, 48, 49, 50, 51, 52, 53, 54, 55, 56, 57, 58, 59, 60, 61, 62, 63, 64, 65, 66, 67, 68, 69, 70, 71, 72, 73, 74, 75, 76, 77, 78, 79, 80, 81, 82, 83, 84, 85, 86, 87, 88, 89, 90, 91, 92, 93, 94, 95, 96, 97, 98, 99, 100, 101, 102, 103, 104, 105, 106, 107, 108, 109, 110, 111, 112, 113, 114, 115, 116, 117, 118, 119, 120, 121, 122, 123, 124, 125, 126, 127, 128, 129, 130, 131, 132, 133, 134, 135, 136, 137, 138, 139, 140, 141, 142, 143, 144],
      "AcquisitionTime": ["173451.147500", "173452.637500", "173454.127500", "173455.617500", "173457.107500", "173458.597500", "173500.087500", "173501.577500", "173503.067500", "173504.557500", "173506.047500", "173507.537500", "173509.027500", "173510.517500", "173512.007500", "173513.497500", "173514.987500", "173516.477500", "173517.967500", "173519.457500", "173520.947500", "173522.437500", "173523.927500", "173525.417500", "173526.907500", "173528.397500", "173529.887500", "173531.377500", "173532.867500", "173534.357500", "173535.847500", "173537.337500", "173538.827500", "173540.317500", "173541.807500", "173543.297500", "173544.787500", "173546.277500", "173547.767500", "173549.257500", "173550.747500", "173552.237500", "173553.727500", "173555.217500", "173556.707500", "173558.197500", "173559.687500", "173601.177500", "173602.667500", "173604.157500", "173605.647500", "173607.137500", "173608.627500", "173610.117500", "173611.607500", "173613.097500", "173614.587500", "173616.077500", "173617.567500", "173619.057500", "173620.547500", "173622.037500", "173623.527500", "173625.017500", "173626.507500", "173627.997500", "173629.487500", "173630.977500", "173632.467500", "173633.957500", "173635.447500", "173636.937500", "173638.427500", "173639.917500", "173641.407500", "173642.897500", "173644.387500", "173645.877500", "173647.367500", "173648.857500", "173650.347500", "173651.837500", "173653.327500", "173654.817500", "173656.307500", "173657.797500", "173659.287500", "173700.777500", "173702.267500", "173703.757500", "173705.247500", "173706.737500", "173708.227500", "173709.717500", "173711.207500", "173712.697500", "173714.187500", "173715.677500", "173717.167500", "173718.657500", "173720.147500", "173721.637500", "173723.127500", "173724.617500", "173726.107500", "173727.597500", "173729.087500", "173730.577500", "173732.067500", "173733.557500", "173735.047500", "173736.537500", "173738.027500", "173739.517500", "173741.007500", "173742.497500", "173743.987500", "173745.477500", "173746.967500", "173748.457500", "173749.947500", "173751.437500", "173752.927500", "173754.417500", "173755.907500", "173757.397500", "173758.887500", "173800.377500", "173801.867500", "173803.357500", "173804.847500", "173806.337500", "173807.827500", "173809.317500", "173810.807500", "173812.297500", "173813.787500", "173815.277500", "173816.767500", "173818.257500", "173819.747500", "173821.237500", "173822.727500", "173824.217500"],
      "ContentTime": ["173545.118000", "173546.116000", "173547.116000", "173548.116000", "173549.116000", "173550.116000", "173551.116000", "173552.116000", "173553.118000", "173554.116000", "173555.117000", "173556.116000", "173557.117000", "173558.616000", "173559.616000", "173600.616000", "173601.636000", "173602.616000", "173603.616000", "173604.616000", "173605.616000", "173606.616000", "173607.616000", "173608.616000", "173609.616000", "173610.616000", "173611.616000", "173612.616000", "173613.616000", "173614.616000", "173616.116000", "173617.116000", "173618.116000", "173619.116000", "173620.116000", "173621.116000", "173622.116000", "173623.116000", "173624.116000", "173625.116000", "173626.116000", "173627.116000", "173628.116000", "173629.116000", "173630.116000", "173631.116000", "173631.616000", "173633.116000", "173633.616000", "173635.116000", "173635.616000", "173637.116000", "173637.616000", "173638.616000", "173639.616000", "173641.116000", "173641.616000", "173642.616000", "173643.616000", "173644.616000", "173645.616000", "173646.616000", "173647.616000", "173648.616000", "173649.616000", "173650.616000", "173651.616000", "173652.616000", "173653.616000", "173654.616000", "173655.616000", "173656.616000", "173657.616000", "173658.616000", "173659.616000", "173700.616000", "173701.616000", "173702.616000", "173703.616000", "173704.616000", "173705.616000", "173706.616000", "173707.616000", "173708.616000", "173709.616000", "173710.616000", "173711.616000", "173712.627000", "173713.616000", "173714.616000", "173715.616000", "173716.616000", "173717.616000", "173718.616000", "173719.616000", "173720.616000", "173721.616000", "173722.616000", "173723.616000", "173724.616000", "173725.616000", "173726.616000", "173727.616000", "173728.616000", "173729.116000", "173730.616000", "173731.116000", "173732.616000", "173734.116000", "173735.616000", "173737.116000", "173738.616000", "173740.116000", "173741.616000", "173743.116000", "173744.616000", "173746.116000", "173747.616000", "173749.116000", "173750.616000", "173752.116000", "173753.616000", "173755.116000", "173756.616000", "173758.116000", "173759.616000", "173801.116000", "173802.616000", "173804.116000", "173805.616000", "173807.116000", "173808.616000", "173810.116000", "173811.616000", "173813.116000", "173814.616000", "173816.116000", "173817.616000", "173819.116000", "173820.616000", "173822.116000", "173823.616000", "173825.116000", "173826.170000"],
      "InstanceCreationTime": ["173545.118000", "173546.116000", "173547.116000", "173548.116000", "173549.116000", "173550.116000", "173551.116000", "173552.116000", "173553.118000", "173554.116000", "173555.117000", "173556.116000", "173557.117000", "173558.616000", "173559.616000", "173600.616000", "173601.636000", "173602.616000", "173603.616000", "173604.616000", "173605.616000", "173606.616000", "173607.616000", "173608.616000", "173609.616000", "173610.616000", "173611.616000", "173612.616000", "173613.616000", "173614.616000", "173616.116000", "173617.116000", "173618.116000", "173619.116000", "173620.116000", "173621.116000", "173622.116000", "173623.116000", "173624.116000", "173625.116000", "173626.116000", "173627.116000", "173628.116000", "173629.116000", "173630.116000", "173631.116000", "173631.616000", "173633.116000", "173633.616000", "173635.116000", "173635.616000", "173637.116000", "173637.616000", "173638.616000", "173639.616000", "173641.116000", "173641.616000", "173642.616000", "173643.616000", "173644.616000", "173645.616000", "173646.616000", "173647.616000", "173648.616000", "173649.616000", "173650.616000", "173651.616000", "173652.616000", "173653.616000", "173654.616000", "173655.616000", "173656.616000", "173657.616000", "173658.616000", "173659.616000", "173700.616000", "173701.616000", "173702.616000", "173703.616000", "173704.616000", "173705.616000", "173706.616000", "173707.616000", "173708.616000", "173709.616000", "173710.616000", "173711.616000", "173712.627000", "173713.616000", "173714.616000", "173715.616000", "173716.616000", "173717.616000", "173718.616000", "173719.616000", "173720.616000", "173721.616000", "173722.616000", "173723.616000", "173724.616000", "173725.616000", "173726.616000", "173727.616000", "173728.616000", "173729.116000", "173730.616000", "173731.116000", "173732.616000", "173734.116000", "173735.616000", "173737.116000", "173738.616000", "173740.116000", "173741.616000", "173743.116000", "173744.616000", "173746.116000", "173747.616000", "173749.116000", "173750.616000", "173752.116000", "173753.616000", "173755.116000", "173756.616000", "173758.116000", "173759.616000", "173801.116000", "173802.616000", "173804.116000", "173805.616000", "173807.116000", "173808.616000", "173810.116000", "173811.616000", "173813.116000", "173814.616000", "173816.116000", "173817.616000", "173819.116000", "173820.616000", "173822.116000", "173823.616000", "173825.116000", "173826.170000"],
      "InstanceNumber": [1, 2, 3, 4, 5, 6, 7, 8, 9, 10, 11, 12, 13, 14, 15, 16, 17, 18, 19, 20, 21, 22, 23, 24, 25, 26, 27, 28, 29, 30, 31, 32, 33, 34, 35, 36, 37, 38, 39, 40, 41, 42, 43, 44, 45, 46, 47, 48, 49, 50, 51, 52, 53, 54, 55, 56, 57, 58, 59, 60, 61, 62, 63, 64, 65, 66, 67, 68, 69, 70, 71, 72, 73, 74, 75, 76, 77, 78, 79, 80, 81, 82, 83, 84, 85, 86, 87, 88, 89, 90, 91, 92, 93, 94, 95, 96, 97, 98, 99, 100, 101, 102, 103, 104, 105, 106, 107, 108, 109, 110, 111, 112, 113, 114, 115, 116, 117, 118, 119, 120, 121, 122, 123, 124, 125, 126, 127, 128, 129, 130, 131, 132, 133, 134, 135, 136, 137, 138, 139, 140, 141, 142, 143, 144],
      "LargestImagePixelValue": [61353, 59160, 58062, 57644, 56589, 57836, 59069, 56685, 55029, 53947, 53428, 54515, 53901, 54226, 53879, 53579, 53297, 54209, 53461, 53869, 53862, 53699, 54095, 54096, 53989, 53544, 54238, 54539, 54316, 54610, 54043, 54720, 53798, 53929, 54222, 53485, 54111, 53201, 54124, 54424, 55552, 55020, 54495, 55146, 54642, 54533, 55065, 54641, 54616, 54922, 54582, 54755, 54117, 54070, 53991, 54386, 54721, 54316, 54933, 54118, 55151, 55042, 54943, 55341, 54787, 55244, 54736, 54738, 55467, 54659, 54995, 54952, 54992, 54586, 54004, 54750, 54612, 54475, 54441, 54579, 54397, 54398, 53845, 54459, 54763, 54590, 54734, 55253, 54622, 54519, 55669, 55135, 55029, 55617, 55614, 54649, 54898, 55150, 54562, 55262, 55128, 55084, 55537, 54874, 55732, 54658, 54662, 54293, 54634, 54488, 55057, 54703, 55046, 55066, 54835, 54219, 55898, 53842, 53987, 54169, 54311, 53523, 54334, 53783, 54123, 53350, 53620, 53873, 53663, 53516, 53275, 52789, 53029, 54381, 53837, 53533, 53672, 53775, 54388, 54366, 53699, 53390, 53197, 53181],
      "WindowCenter": [10619.0, 10571.0, 10547.0, 10533.0, 10460.0, 10407.0, 10480.0, 10491.0, 10482.0, 10485.0, 10478.0, 10495.0, 10487.0, 10494.0, 10495.0, 10485.0, 10474.0, 10476.0, 10463.0, 10452.0, 10451.0, 10459.0, 10474.0, 10475.0, 10464.0, 10449.0, 10455.0, 10468.0, 10470.0, 10475.0, 10470.0, 10475.0, 10471.0, 10474.0, 10473.0, 10462.0, 10467.0, 10459.0, 10467.0, 10473.0, 10484.0, 10483.0, 10475.0, 10473.0, 10462.0, 10445.0, 10459.0, 10472.0, 10480.0, 10487.0, 10474.0, 10469.0, 10462.0, 10460.0, 10447.0, 10454.0, 10462.0, 10467.0, 10473.0, 10462.0, 10463.0, 10471.0, 10480.0, 10496.0, 10507.0, 10515.0, 10494.0, 10477.0, 10464.0, 10440.0, 10447.0, 10452.0, 10453.0, 10449.0, 10432.0, 10427.0, 10438.0, 10455.0, 10446.0, 10443.0, 10427.0, 10411.0, 10410.0, 10432.0, 10442.0, 10442.0, 10435.0, 10430.0, 10428.0, 10441.0, 10469.0, 10477.0, 10475.0, 10464.0, 10462.0, 10447.0, 10449.0, 10469.0, 10478.0, 10482.0, 10469.0, 10468.0, 10473.0, 10468.0, 10481.0, 10470.0, 10470.0, 10470.0, 10461.0, 10460.0, 10467.0, 10468.0, 10473.0, 10474.0, 10475.0, 10471.0, 10493.0, 10473.0, 10464.0, 10464.0, 10460.0, 10456.0, 10461.0, 10454.0, 10445.0, 10445.0, 10454.0, 10446.0, 10462.0, 10441.0, 10441.0, 10435.0, 10443.0, 10455.0, 10458.0, 10451.0, 10448.0, 10438.0, 10434.0, 10447.0, 10450.0, 10445.0, 10435.0, 10421.0],
      "WindowWidth": [22998.0, 22839.0, 22771.0, 22717.0, 22528.0, 22386.0, 22576.0, 22611.0, 22588.0, 22596.0, 22583.0, 22629.0, 22612.0, 22623.0, 22625.0, 22597.0, 22577.0, 22580.0, 22555.0, 22525.0, 22526.0, 22540.0, 22579.0, 22578.0, 22544.0, 22512.0, 22521.0, 22551.0, 22555.0, 22565.0, 22557.0, 22564.0, 22562.0, 22572.0, 22568.0, 22544.0, 22552.0, 22546.0, 22558.0, 22568.0, 22595.0, 22590.0, 22569.0, 22567.0, 22534.0, 22494.0, 22526.0, 22568.0, 22580.0, 22596.0, 22572.0, 22560.0, 22547.0, 22539.0, 22512.0, 22517.0, 22536.0, 22554.0, 22566.0, 22544.0, 22542.0, 22562.0, 22585.0, 22620.0, 22645.0, 22659.0, 22613.0, 22575.0, 22540.0, 22487.0, 22507.0, 22511.0, 22509.0, 22506.0, 22463.0, 22450.0, 22476.0, 22525.0, 22503.0, 22491.0, 22457.0, 22419.0, 22419.0, 22464.0, 22487.0, 22488.0, 22473.0, 22453.0, 22459.0, 22487.0, 22545.0, 22571.0, 22565.0, 22535.0, 22532.0, 22496.0, 22501.0, 22555.0, 22574.0, 22579.0, 22553.0, 22548.0, 22560.0, 22552.0, 22579.0, 22559.0, 22558.0, 22555.0, 22539.0, 22536.0, 22548.0, 22552.0, 22559.0, 22563.0, 22563.0, 22557.0, 22603.0, 22562.0, 22535.0, 22537.0, 22524.0, 22521.0, 22526.0, 22517.0, 22493.0, 22497.0, 22512.0, 22495.0, 22582.0, 22481.0, 22482.0, 22470.0, 22490.0, 22515.0, 22524.0, 22506.0, 22498.0, 22472.0, 22479.0, 22504.0, 22510.0, 22500.0, 22477.0, 22447.0]
    },
    "slices": {}
  }
}