{
  "AcquisitionMatrixPE": 104,
  "AcquisitionNumber": 1,
  "AcquisitionTime": "17:45:46.367500",
  "BandwidthPerPixelPhaseEncode": 17.17,
  "BaseResolution": 104,
  "BodyPartExamined": "BRAIN",
  "CoilString": "HC1-7;NC1_2",
  "ConsistencyInfo": "N4_VE11C_LATEST_20160120",
  "ConversionSoftware": "dcm2niix",
  "ConversionSoftwareVersion": "v1.0.20190720  (JP2:OpenJPEG) GCC7.3.0",
  "DerivedVendorReportedEchoSpacing": 0.000560011,
  "DeviceSerialNumber": "167006",
  "DwellTime": 2.1e-06,
  "EchoTime": 0.037,
  "EchoTrainLength": 104,
  "EffectiveEchoSpacing": 0.000560011,
  "FlipAngle": 52,
  "ImageComments": "Unaliased_MB4_PE3_LB",
  "ImageOrientationPatientDICOM": [0.999403, -0.0310392, -0.0151919, 0.0226796, 0.920807, -0.389358],
  "ImageType": [
    "ORIGINAL",
    "PRIMARY",
    "M",
    "MB",
    "ND",
    "MOSAIC"
],
  "ImagingFrequency": 123.259,
  "InPlanePhaseEncodingDirectionDICOM": "COL",
  "InstitutionAddress": "Chemin_Queen-Mary_4565_Montreal_District_CA_H3W_1W5",
  "InstitutionName": "IUGM",
  "InstitutionalDepartmentName": "Department",
  "MRAcquisitionType": "2D",
  "MagneticFieldStrength": 3,
  "Manufacturer": "Siemens",
  "ManufacturersModelName": "Prisma_fit",
  "Modality": "MR",
  "MultibandAccelerationFactor": 4,
  "PartialFourier": 1,
  "PatientPosition": "HFS",
  "PercentPhaseFOV": 100,
  "PhaseEncodingDirection": "j",
  "PhaseEncodingSteps": 104,
  "PhaseResolution": 1,
  "PixelBandwidth": 2290,
  "ProcedureStepDescription": "hcptrt_generic",
  "ProtocolName": "func_task-gambling_run-1",
  "PulseSequenceDetails": "%CustomerSeq%_cmrr_mbep2d_bold",
  "ReceiveCoilActiveElements": "HC1-7;NC1,2",
  "ReceiveCoilName": "HeadNeck_64",
  "ReconMatrixPE": 104,
  "RepetitionTime": 1.49,
  "SAR": 0.034401,
  "ScanOptions": "FS",
  "ScanningSequence": "EP",
  "SequenceName": "epfid2d1_104",
  "SequenceVariant": "SK_SS",
  "SeriesDescription": "func_task-gambling_run-1",
  "SeriesNumber": 11,
  "ShimSetting": [614, -7258, -8845, 403, 29, -362, 6, 29],
  "SliceThickness": 2,
  "SliceTiming": [0, 0.785, 0.0975, 0.8825, 0.1975, 0.98, 0.295, 1.0775, 0.3925, 1.1775, 0.49, 1.275, 0.5875, 1.3725, 0.6875, 0, 0.785, 0.0975, 0.8825, 0.1975, 0.98, 0.295, 1.0775, 0.3925, 1.1775, 0.49, 1.275, 0.5875, 1.3725, 0.6875, 0, 0.785, 0.0975, 0.8825, 0.1975, 0.98, 0.295, 1.0775, 0.3925, 1.1775, 0.49, 1.275, 0.5875, 1.3725, 0.6875, 0, 0.785, 0.0975, 0.8825, 0.1975, 0.98, 0.295, 1.0775, 0.3925, 1.1775, 0.49, 1.275, 0.5875, 1.3725, 0.6875],
  "SoftwareVersions": "syngo_MR_E11",
  "SpacingBetweenSlices": 2,
  "StationName": "MRC35049",
  "TaskName": "gambling",
  "TotalReadoutTime": 0.0576811,
  "TxRefAmp": 236.209,
  "WipMemBlock": "77659f63-5bf9-4473-85cf-dba79af827f7||Sequence: R016 ve11c/master r/e634e98; Dec 19 2017 11:00:25 by eja",
  "dcmmeta_affine": [
    [-1.9988054037094116, 0.045359231531620026, -0.052148304879665375, 103.34519958496094],
    [0.06207846850156784, 1.8416141271591187, -0.7775627970695496, -63.52595520019531],
    [-0.030383700504899025, 0.7787169814109802, 1.8419220447540283, -66.5191650390625],
    [0.0, 0.0, 0.0, 1.0]
],
  "dcmmeta_reorient_transform": [
    [0.0, -1.0, 0.0, 103.0],
    [1.0, 0.0, 0.0, 0.0],
    [0.0, 0.0, 1.0, 0.0],
    [0.0, 0.0, 0.0, 1.0]
],
  "dcmmeta_shape": [104, 104, 60, 129],
  "dcmmeta_slice_dim": 2,
  "dcmmeta_version": 0.6,
  "global": {
    "const": {
      "AcquisitionMatrix": [104, 0, 0, 104],
      "AngioFlag": "N",
      "BitsAllocated": 16,
      "BitsStored": 16,
      "BodyPartExamined": "BRAIN",
      "Columns": 832,
      "EchoNumbers": 1,
      "EchoTime": 37.0,
      "EchoTrainLength": 104,
      "FlipAngle": 52.0,
      "HighBit": 15,
      "ImageOrientationPatient": [0.99940270846047, -0.0310392334586, -0.0151918500577, 0.02267961490814, 0.92080703417729, -0.3893584991717],
      "ImagePositionPatient": [-852.09313131783, -773.91125325215, 308.20133855693],
      "ImageType": [
        "ORIGINAL",
        "PRIMARY",
        "M",
        "MB",
        "ND",
        "MOSAIC"
],
      "ImagedNucleus": "1H",
      "ImagingFrequency": 123.259234,
      "InPlanePhaseEncodingDirection": "COL",
      "MRAcquisitionType": "2D",
      "MagneticFieldStrength": 3.0,
      "Manufacturer": "SIEMENS",
      "ManufacturerModelName": "Prisma_fit",
      "Modality": "MR",
      "NumberOfAverages": 1.0,
      "NumberOfPhaseEncodingSteps": 104,
      "PercentPhaseFieldOfView": 100.0,
      "PercentSampling": 100.0,
      "PerformedProcedureStepStartTime": "171513.964000",
      "PhotometricInterpretation": "MONOCHROME2",
      "PixelBandwidth": 2290.0,
      "PixelRepresentation": 0,
      "PixelSpacing": [2.0, 2.0],
      "ProtocolName": "func_task-gambling_run-1",
      "RepetitionTime": 1490.0,
      "Rows": 832,
      "SAR": 0.03440104519578,
      "SamplesPerPixel": 1,
      "ScanOptions": "FS",
      "ScanningSequence": "EP",
      "SequenceName": "epfid2d1_104",
      "SequenceVariant": [
        "SK",
        "SS"
],
      "SeriesDescription": "func_task-gambling_run-1",
      "SeriesNumber": 11,
      "SeriesTime": "174639.223000",
      "SliceLocation": -39.258487450917,
      "SliceThickness": 2.0,
      "SmallestImagePixelValue": 0,
      "SoftwareVersions": "syngo MR E11",
      "SpacingBetweenSlices": 2.0000000426937,
      "SpecificCharacterSet": "ISO_IR 100",
      "StudyID": "1",
      "StudyTime": "171513.909000",
      "TransmitCoilName": "Body",
      "VariableFlipAngleFlag": "N",
      "WindowCenterWidthExplanation": "Algo1",
      "dBdt": 0.0},
    "slices": {}
  },
  "time": {
    "samples": {
      "AcquisitionNumber": [1, 2, 3, 4, 5, 6, 7, 8, 9, 10, 11, 12, 13, 14, 15, 16, 17, 18, 19, 20, 21, 22, 23, 24, 25, 26, 27, 28, 29, 30, 31, 32, 33, 34, 35, 36, 37, 38, 39, 40, 41, 42, 43, 44, 45, 46, 47, 48, 49, 50, 51, 52, 53, 54, 55, 56, 57, 58, 59, 60, 61, 62, 63, 64, 65, 66, 67, 68, 69, 70, 71, 72, 73, 74, 75, 76, 77, 78, 79, 80, 81, 82, 83, 84, 85, 86, 87, 88, 89, 90, 91, 92, 93, 94, 95, 96, 97, 98, 99, 100, 101, 102, 103, 104, 105, 106, 107, 108, 109, 110, 111, 112, 113, 114, 115, 116, 117, 118, 119, 120, 121, 122, 123, 124, 125, 126, 127, 128, 129],
      "AcquisitionTime": ["174546.367500", "174547.857500", "174549.347500", "174550.837500", "174552.327500", "174553.817500", "174555.307500", "174556.797500", "174558.287500", "174559.777500", "174601.267500", "174602.757500", "174604.247500", "174605.737500", "174607.227500", "174608.717500", "174610.207500", "174611.697500", "174613.187500", "174614.677500", "174616.167500", "174617.657500", "174619.147500", "174620.637500", "174622.127500", "174623.617500", "174625.107500", "174626.597500", "174628.087500", "174629.577500", "174631.067500", "174632.557500", "174634.047500", "174635.537500", "174637.027500", "174638.517500", "174640.007500", "174641.497500", "174642.987500", "174644.477500", "174645.967500", "174647.457500", "174648.947500", "174650.437500", "174651.927500", "174653.417500", "174654.907500", "174656.397500", "174657.887500", "174659.377500", "174700.867500", "174702.357500", "174703.847500", "174705.337500", "174706.827500", "174708.317500", "174709.807500", "174711.297500", "174712.787500", "174714.277500", "174715.767500", "174717.257500", "174718.747500", "174720.237500", "174721.727500", "174723.217500", "174724.707500", "174726.197500", "174727.687500", "174729.177500", "174730.667500", "174732.157500", "174733.647500", "174735.137500", "174736.627500", "174738.117500", "174739.607500", "174741.097500", "174742.587500", "174744.077500", "174745.567500", "174747.057500", "174748.547500", "174750.037500", "174751.527500", "174753.017500", "174754.507500", "174755.997500", "174757.487500", "174758.977500", "174800.467500", "174801.957500", "174803.447500", "174804.937500", "174806.427500", "174807.917500", "174809.407500", "174810.897500", "174812.387500", "174813.877500", "174815.367500", "174816.857500", "174818.347500", "174819.837500", "174821.327500", "174822.817500", "174824.307500", "174825.797500", "174827.287500", "174828.777500", "174830.267500", "174831.757500", "174833.247500", "174834.737500", "174836.227500", "174837.717500", "174839.207500", "174840.697500", "174842.187500", "174843.677500", "174845.167500", "174846.657500", "174848.147500", "174849.637500", "174851.127500", "174852.617500", "174854.107500", "174855.597500", "174857.087500"],
      "ContentTime": ["174639.225000", "174640.225000", "174641.225000", "174642.225000", "174643.225000", "174644.225000", "174645.225000", "174646.225000", "174647.225000", "174648.225000", "174649.225000", "174650.225000", "174651.225000", "174652.225000", "174653.225000", "174654.225000", "174655.224000", "174656.224000", "174657.225000", "174658.225000", "174659.225000", "174659.725000", "174700.725000", "174701.725000", "174702.725000", "174703.725000", "174704.725000", "174705.725000", "174706.725000", "174707.725000", "174708.725000", "174709.725000", "174710.725000", "174711.725000", "174712.724000", "174713.724000", "174714.725000", "174715.725000", "174716.725000", "174717.725000", "174718.725000", "174719.725000", "174720.725000", "174721.725000", "174722.725000", "174723.725000", "174724.725000", "174725.725000", "174726.725000", "174727.725000", "174728.725000", "174729.725000", "174730.724000", "174731.724000", "174732.725000", "174733.725000", "174734.225000", "174735.725000", "174736.225000", "174737.225000", "174738.225000", "174739.225000", "174740.225000", "174741.225000", "174742.225000", "174743.225000", "174744.225000", "174745.225000", "174746.225000", "174747.225000", "174748.224000", "174749.224000", "174750.225000", "174751.225000", "174752.225000", "174753.225000", "174754.225000", "174755.225000", "174756.225000", "174757.225000", "174758.225000", "174759.225000", "174800.225000", "174801.225000", "174802.225000", "174803.225000", "174804.225000", "174805.224000", "174806.224000", "174807.225000", "174808.225000", "174809.225000", "174810.225000", "174811.225000", "174812.225000", "174813.225000", "174813.725000", "174814.725000", "174815.725000", "174816.725000", "174817.725000", "174818.725000", "174820.225000", "174821.725000", "174823.224000", "174824.725000", "174826.225000", "174827.725000", "174829.225000", "174830.725000", "174832.225000", "174833.725000", "174835.225000", "174836.725000", "174838.225000", "174839.725000", "174841.224000", "174842.725000", "174844.225000", "174845.725000", "174847.225000", "174848.725000", "174850.225000", "174851.725000", "174853.225000", "174854.725000", "174856.225000", "174857.724000", "174859.000000"],
      "InstanceCreationTime": ["174639.225000", "174640.225000", "174641.225000", "174642.225000", "174643.225000", "174644.225000", "174645.225000", "174646.225000", "174647.225000", "174648.225000", "174649.225000", "174650.225000", "174651.225000", "174652.225000", "174653.225000", "174654.225000", "174655.224000", "174656.224000", "174657.225000", "174658.225000", "174659.225000", "174659.725000", "174700.725000", "174701.725000", "174702.725000", "174703.725000", "174704.725000", "174705.725000", "174706.725000", "174707.725000", "174708.725000", "174709.725000", "174710.725000", "174711.725000", "174712.724000", "174713.724000", "174714.725000", "174715.725000", "174716.725000", "174717.725000", "174718.725000", "174719.725000", "174720.725000", "174721.725000", "174722.725000", "174723.725000", "174724.725000", "174725.725000", "174726.725000", "174727.725000", "174728.725000", "174729.725000", "174730.724000", "174731.724000", "174732.725000", "174733.725000", "174734.225000", "174735.725000", "174736.225000", "174737.225000", "174738.225000", "174739.225000", "174740.225000", "174741.225000", "174742.225000", "174743.225000", "174744.225000", "174745.225000", "174746.225000", "174747.225000", "174748.224000", "174749.224000", "174750.225000", "174751.225000", "174752.225000", "174753.225000", "174754.225000", "174755.225000", "174756.225000", "174757.225000", "174758.225000", "174759.225000", "174800.225000", "174801.225000", "174802.225000", "174803.225000", "174804.225000", "174805.224000", "174806.224000", "174807.225000", "174808.225000", "174809.225000", "174810.225000", "174811.225000", "174812.225000", "174813.225000", "174813.725000", "174814.725000", "174815.725000", "174816.725000", "174817.725000", "174818.725000", "174820.225000", "174821.725000", "174823.224000", "174824.725000", "174826.225000", "174827.725000", "174829.225000", "174830.725000", "174832.225000", "174833.725000", "174835.225000", "174836.725000", "174838.225000", "174839.725000", "174841.224000", "174842.725000", "174844.225000", "174845.725000", "174847.225000", "174848.725000", "174850.225000", "174851.725000", "174853.225000", "174854.725000", "174856.225000", "174857.724000", "174859.000000"],
      "InstanceNumber": [1, 2, 3, 4, 5, 6, 7, 8, 9, 10, 11, 12, 13, 14, 15, 16, 17, 18, 19, 20, 21, 22, 23, 24, 25, 26, 27, 28, 29, 30, 31, 32, 33, 34, 35, 36, 37, 38, 39, 40, 41, 42, 43, 44, 45, 46, 47, 48, 49, 50, 51, 52, 53, 54, 55, 56, 57, 58, 59, 60, 61, 62, 63, 64, 65, 66, 67, 68, 69, 70, 71, 72, 73, 74, 75, 76, 77, 78, 79, 80, 81, 82, 83, 84, 85, 86, 87, 88, 89, 90, 91, 92, 93, 94, 95, 96, 97, 98, 99, 100, 101, 102, 103, 104, 105, 106, 107, 108, 109, 110, 111, 112, 113, 114, 115, 116, 117, 118, 119, 120, 121, 122, 123, 124, 125, 126, 127, 128, 129],
      "LargestImagePixelValue": [58562, 57240, 56418, 55385, 55454, 55405, 55103, 54820, 55248, 54810, 54883, 54500, 54688, 54379, 54489, 54471, 54354, 54419, 54481, 55108, 54704, 55015, 54290, 54590, 54535, 54258, 54168, 54131, 53688, 54266, 53913, 53983, 54036, 54016, 54422, 54816, 54298, 54489, 54394, 54638, 54782, 54519, 54740, 54412, 54693, 53983, 54440, 54526, 54283, 54182, 54836, 53862, 54575, 53887, 54049, 54631, 53549, 54559, 54232, 54056, 53191, 54241, 53773, 54030, 53785, 53794, 53573, 54580, 53722, 54203, 53827, 54458, 53854, 54323, 54176, 54688, 54100, 54536, 54307, 53815, 54249, 54598, 54154, 54509, 54357, 54330, 55063, 55166, 55114, 54695, 55248, 54619, 54616, 54557, 54200, 54634, 54958, 54729, 54644, 55361, 54840, 54905, 54403, 54685, 54291, 54804, 54461, 55001, 54952, 55027, 55142, 55000, 54961, 55578, 54919, 55236, 54301, 53996, 55280, 53855, 54405, 54468, 54583, 56084, 56057, 55490, 55712, 56087, 55675],
      "WindowCenter": [10480.0, 10433.0, 10404.0, 10401.0, 10413.0, 10422.0, 10423.0, 10416.0, 10420.0, 10414.0, 10414.0, 10414.0, 10420.0, 10421.0, 10409.0, 10400.0, 10384.0, 10373.0, 10363.0, 10359.0, 10358.0, 10360.0, 10359.0, 10361.0, 10362.0, 10369.0, 10373.0, 10381.0, 10381.0, 10389.0, 10389.0, 10398.0, 10390.0, 10381.0, 10370.0, 10372.0, 10375.0, 10392.0, 10404.0, 10403.0, 10393.0, 10378.0, 10381.0, 10376.0, 10391.0, 10389.0, 10394.0, 10388.0, 10370.0, 10360.0, 10359.0, 10352.0, 10373.0, 10364.0, 10362.0, 10360.0, 10338.0, 10351.0, 10354.0, 10368.0, 10375.0, 10403.0, 10391.0, 10382.0, 10367.0, 10370.0, 10366.0, 10384.0, 10366.0, 10366.0, 10357.0, 10370.0, 10374.0, 10393.0, 10385.0, 10386.0, 10372.0, 10368.0, 10360.0, 10361.0, 10362.0, 10367.0, 10356.0, 10360.0, 10360.0, 10358.0, 10354.0, 10371.0, 10373.0, 10357.0, 10344.0, 10327.0, 10313.0, 10320.0, 10325.0, 10341.0, 10357.0, 10358.0, 10338.0, 10337.0, 10336.0, 10350.0, 10355.0, 10370.0, 10351.0, 10339.0, 10316.0, 10310.0, 10310.0, 10318.0, 10325.0, 10329.0, 10335.0, 10351.0, 10362.0, 10380.0, 10384.0, 10385.0, 10399.0, 10379.0, 10376.0, 10370.0, 10389.0, 10468.0, 10459.0, 10451.0, 10425.0, 10389.0, 10354.0],
      "WindowWidth": [22667.0, 22517.0, 22422.0, 22407.0, 22419.0, 22435.0, 22432.0, 22415.0, 22418.0, 22409.0, 22408.0, 22410.0, 22420.0, 22428.0, 22398.0, 22375.0, 22339.0, 22314.0, 22290.0, 22280.0, 22278.0, 22282.0, 22282.0, 22286.0, 22289.0, 22305.0, 22314.0, 22333.0, 22336.0, 22356.0, 22357.0, 22378.0, 22360.0, 22338.0, 22309.0, 22307.0, 22313.0, 22354.0, 22382.0, 22380.0, 22355.0, 22324.0, 22326.0, 22320.0, 22353.0, 22351.0, 22362.0, 22351.0, 22308.0, 22282.0, 22279.0, 22266.0, 22310.0, 22293.0, 22287.0, 22287.0, 22236.0, 22265.0, 22275.0, 22302.0, 22322.0, 22384.0, 22359.0, 22338.0, 22305.0, 22306.0, 22299.0, 22334.0, 22298.0, 22297.0, 22278.0, 22303.0, 22315.0, 22355.0, 22343.0, 22339.0, 22307.0, 22300.0, 22280.0, 22282.0, 22286.0, 22297.0, 22273.0, 22282.0, 22282.0, 22277.0, 22263.0, 22303.0, 22308.0, 22273.0, 22241.0, 22200.0, 22172.0, 22186.0, 22200.0, 22232.0, 22268.0, 22278.0, 22229.0, 22224.0, 22225.0, 22250.0, 22267.0, 22299.0, 22259.0, 22229.0, 22178.0, 22161.0, 22162.0, 22183.0, 22196.0, 22211.0, 22219.0, 22256.0, 22285.0, 22324.0, 22336.0, 22337.0, 22367.0, 22326.0, 22320.0, 22307.0, 22345.0, 22551.0, 22523.0, 22498.0, 22433.0, 22349.0, 22269.0]
    },
    "slices": {}
  }
}