{
  "AcquisitionMatrixPE": 104,
  "AcquisitionNumber": 1,
  "AcquisitionTime": "18:14:54.275000",
  "BandwidthPerPixelPhaseEncode": 17.17,
  "BaseResolution": 104,
  "BodyPartExamined": "BRAIN",
  "CoilString": "HC1-7;NC1_2",
  "ConsistencyInfo": "N4_VE11C_LATEST_20160120",
  "ConversionSoftware": "dcm2niix",
  "ConversionSoftwareVersion": "v1.0.20190720  (JP2:OpenJPEG) GCC7.3.0",
  "DerivedVendorReportedEchoSpacing": 0.000560011,
  "DeviceSerialNumber": "167006",
  "DwellTime": 2.1e-06,
  "EchoTime": 0.037,
  "EchoTrainLength": 104,
  "EffectiveEchoSpacing": 0.000560011,
  "FlipAngle": 52,
  "ImageComments": "Unaliased_MB4_PE3_LB",
  "ImageOrientationPatientDICOM": [0.999399, -0.0311999, -0.0151239, 0.022854, 0.920802, -0.389361],
  "ImageType": [
    "ORIGINAL",
    "PRIMARY",
    "M",
    "MB",
    "ND",
    "MOSAIC"
],
  "ImagingFrequency": 123.259,
  "InPlanePhaseEncodingDirectionDICOM": "COL",
  "InstitutionAddress": "Chemin_Queen-Mary_4565_Montreal_District_CA_H3W_1W5",
  "InstitutionName": "IUGM",
  "InstitutionalDepartmentName": "Department",
  "MRAcquisitionType": "2D",
  "MagneticFieldStrength": 3,
  "Manufacturer": "Siemens",
  "ManufacturersModelName": "Prisma_fit",
  "Modality": "MR",
  "MultibandAccelerationFactor": 4,
  "PartialFourier": 1,
  "PatientPosition": "HFS",
  "PercentPhaseFOV": 100,
  "PhaseEncodingDirection": "j",
  "PhaseEncodingSteps": 104,
  "PhaseResolution": 1,
  "PixelBandwidth": 2290,
  "ProcedureStepDescription": "hcptrt_generic",
  "ProtocolName": "func_task-relational_run-2",
  "PulseSequenceDetails": "%CustomerSeq%_cmrr_mbep2d_bold",
  "ReceiveCoilActiveElements": "HC1-7;NC1,2",
  "ReceiveCoilName": "HeadNeck_64",
  "ReconMatrixPE": 104,
  "RepetitionTime": 1.49,
  "SAR": 0.0343598,
  "ScanOptions": "FS",
  "ScanningSequence": "EP",
  "SequenceName": "epfid2d1_104",
  "SequenceVariant": "SK_SS",
  "SeriesDescription": "func_task-relational_run-2",
  "SeriesNumber": 25,
  "ShimSetting": [614, -7256, -8847, 398, 27, -345, 11, 28],
  "SliceThickness": 2,
  "SliceTiming": [0, 0.785, 0.1, 0.8825, 0.1975, 0.98, 0.295, 1.08, 0.3925, 1.1775, 0.49, 1.275, 0.59, 1.3725, 0.6875, 0, 0.785, 0.1, 0.8825, 0.1975, 0.98, 0.295, 1.08, 0.3925, 1.1775, 0.49, 1.275, 0.59, 1.3725, 0.6875, 0, 0.785, 0.1, 0.8825, 0.1975, 0.98, 0.295, 1.08, 0.3925, 1.1775, 0.49, 1.275, 0.59, 1.3725, 0.6875, 0, 0.785, 0.1, 0.8825, 0.1975, 0.98, 0.295, 1.08, 0.3925, 1.1775, 0.49, 1.275, 0.59, 1.3725, 0.6875],
  "SoftwareVersions": "syngo_MR_E11",
  "SpacingBetweenSlices": 2,
  "StationName": "MRC35049",
  "TaskName": "relational",
  "TotalReadoutTime": 0.0576811,
  "TxRefAmp": 236.209,
  "WipMemBlock": "37d36dcf-ba08-41b9-8634-7f13f0e59b09||Sequence: R016 ve11c/master r/e634e98; Dec 19 2017 11:00:25 by eja",
  "dcmmeta_affine": [
    [-1.9987974166870117, 0.045708075165748596, -0.052148353308439255, 103.32699584960938],
    [0.06239989772439003, 1.84160315990448, -0.7775627970695496, -63.5421142578125],
    [-0.03024783544242382, 0.7787222862243652, 1.8419220447540283, -66.52650451660156],
    [0.0, 0.0, 0.0, 1.0]
],
  "dcmmeta_reorient_transform": [
    [0.0, -1.0, 0.0, 103.0],
    [1.0, 0.0, 0.0, 0.0],
    [0.0, 0.0, 1.0, 0.0],
    [0.0, 0.0, 0.0, 1.0]
],
  "dcmmeta_shape": [104, 104, 60, 119],
  "dcmmeta_slice_dim": 2,
  "dcmmeta_version": 0.6,
  "global": {
    "const": {
      "AcquisitionMatrix": [104, 0, 0, 104],
      "AngioFlag": "N",
      "BitsAllocated": 16,
      "BitsStored": 16,
      "BodyPartExamined": "BRAIN",
      "Columns": 832,
      "EchoNumbers": 1,
      "EchoTime": 37.0,
      "EchoTrainLength": 104,
      "FlipAngle": 52.0,
      "HighBit": 15,
      "ImageOrientationPatient": [0.99939873438602, -0.0311999489634, -0.0151239178889, 0.02285403820546, 0.92080160027832, -0.3893611509416],
      "ImagePositionPatient": [-852.23494507126, -773.77301694818, 308.14702526509],
      "ImageType": [
        "ORIGINAL",
        "PRIMARY",
        "M",
        "MB",
        "ND",
        "MOSAIC"
],
      "ImagedNucleus": "1H",
      "ImagingFrequency": 123.259243,
      "InPlanePhaseEncodingDirection": "COL",
      "MRAcquisitionType": "2D",
      "MagneticFieldStrength": 3.0,
      "Manufacturer": "SIEMENS",
      "ManufacturerModelName": "Prisma_fit",
      "Modality": "MR",
      "NumberOfAverages": 1.0,
      "NumberOfPhaseEncodingSteps": 104,
      "PercentPhaseFieldOfView": 100.0,
      "PercentSampling": 100.0,
      "PerformedProcedureStepStartTime": "171513.964000",
      "PhotometricInterpretation": "MONOCHROME2",
      "PixelBandwidth": 2290.0,
      "PixelRepresentation": 0,
      "PixelSpacing": [2.0, 2.0],
      "ProtocolName": "func_task-relational_run-2",
      "RepetitionTime": 1490.0,
      "Rows": 832,
      "SAR": 0.03435975423572,
      "SamplesPerPixel": 1,
      "ScanOptions": "FS",
      "ScanningSequence": "EP",
      "SequenceName": "epfid2d1_104",
      "SequenceVariant": [
        "SK",
        "SS"
],
      "SeriesDescription": "func_task-relational_run-2",
      "SeriesNumber": 25,
      "SeriesTime": "181548.418000",
      "SliceLocation": -39.258487593062,
      "SliceThickness": 2.0,
      "SmallestImagePixelValue": 0,
      "SoftwareVersions": "syngo MR E11",
      "SpacingBetweenSlices": 2.0000000426937,
      "SpecificCharacterSet": "ISO_IR 100",
      "StudyID": "1",
      "StudyTime": "171513.909000",
      "TransmitCoilName": "Body",
      "VariableFlipAngleFlag": "N",
      "WindowCenterWidthExplanation": "Algo1",
      "dBdt": 0.0},
    "slices": {}
  },
  "time": {
    "samples": {
      "AcquisitionNumber": [1, 2, 3, 4, 5, 6, 7, 8, 9, 10, 11, 12, 13, 14, 15, 16, 17, 18, 19, 20, 21, 22, 23, 24, 25, 26, 27, 28, 29, 30, 31, 32, 33, 34, 35, 36, 37, 38, 39, 40, 41, 42, 43, 44, 45, 46, 47, 48, 49, 50, 51, 52, 53, 54, 55, 56, 57, 58, 59, 60, 61, 62, 63, 64, 65, 66, 67, 68, 69, 70, 71, 72, 73, 74, 75, 76, 77, 78, 79, 80, 81, 82, 83, 84, 85, 86, 87, 88, 89, 90, 91, 92, 93, 94, 95, 96, 97, 98, 99, 100, 101, 102, 103, 104, 105, 106, 107, 108, 109, 110, 111, 112, 113, 114, 115, 116, 117, 118, 119],
      "AcquisitionTime": ["181454.275000", "181455.765000", "181457.255000", "181458.745000", "181500.235000", "181501.725000", "181503.215000", "181504.705000", "181506.195000", "181507.685000", "181509.175000", "181510.665000", "181512.155000", "181513.645000", "181515.135000", "181516.625000", "181518.115000", "181519.605000", "181521.095000", "181522.585000", "181524.075000", "181525.565000", "181527.055000", "181528.545000", "181530.035000", "181531.525000", "181533.015000", "181534.505000", "181535.995000", "181537.485000", "181538.975000", "181540.465000", "181541.955000", "181543.445000", "181544.935000", "181546.425000", "181547.915000", "181549.405000", "181550.895000", "181552.385000", "181553.875000", "181555.365000", "181556.855000", "181558.345000", "181559.835000", "181601.325000", "181602.815000", "181604.305000", "181605.795000", "181607.285000", "181608.775000", "181610.265000", "181611.755000", "181613.245000", "181614.735000", "181616.225000", "181617.715000", "181619.205000", "181620.695000", "181622.185000", "181623.675000", "181625.165000", "181626.655000", "181628.145000", "181629.635000", "181631.125000", "181632.615000", "181634.105000", "181635.595000", "181637.085000", "181638.575000", "181640.065000", "181641.555000", "181643.045000", "181644.535000", "181646.025000", "181647.515000", "181649.005000", "181650.495000", "181651.985000", "181653.475000", "181654.965000", "181656.455000", "181657.945000", "181659.435000", "181700.925000", "181702.415000", "181703.905000", "181705.395000", "181706.885000", "181708.375000", "181709.865000", "181711.355000", "181712.845000", "181714.335000", "181715.825000", "181717.315000", "181718.805000", "181720.295000", "181721.785000", "181723.275000", "181724.765000", "181726.255000", "181727.745000", "181729.235000", "181730.725000", "181732.215000", "181733.705000", "181735.195000", "181736.685000", "181738.175000", "181739.665000", "181741.155000", "181742.645000", "181744.135000", "181745.625000", "181747.115000", "181748.605000", "181750.095000"],
      "ContentTime": ["181548.421000", "181549.419000", "181550.419000", "181551.419000", "181552.419000", "181553.419000", "181554.418000", "181555.418000", "181556.418000", "181557.418000", "181558.418000", "181559.418000", "181600.418000", "181601.418000", "181602.418000", "181603.418000", "181604.418000", "181605.419000", "181606.419000", "181607.419000", "181608.419000", "181609.419000", "181610.419000", "181611.418000", "181612.418000", "181613.418000", "181614.418000", "181615.418000", "181616.418000", "181617.418000", "181618.418000", "181619.418000", "181620.418000", "181621.418000", "181622.418000", "181622.919000", "181624.419000", "181624.919000", "181626.419000", "181626.919000", "181627.919000", "181628.918000", "181629.918000", "181630.918000", "181631.918000", "181632.918000", "181633.918000", "181634.918000", "181635.918000", "181636.918000", "181637.918000", "181638.918000", "181639.918000", "181640.919000", "181641.919000", "181642.919000", "181643.919000", "181644.919000", "181645.919000", "181646.918000", "181647.918000", "181648.918000", "181649.918000", "181650.918000", "181651.918000", "181652.918000", "181653.918000", "181654.918000", "181655.918000", "181656.918000", "181657.919000", "181658.919000", "181659.919000", "181700.919000", "181701.919000", "181702.919000", "181703.918000", "181704.918000", "181705.918000", "181706.918000", "181707.918000", "181708.918000", "181709.918000", "181710.918000", "181711.918000", "181712.918000", "181713.918000", "181714.918000", "181715.919000", "181716.919000", "181717.919000", "181718.919000", "181719.919000", "181720.919000", "181721.418000", "181722.918000", "181723.418000", "181724.418000", "181725.418000", "181726.418000", "181727.418000", "181728.418000", "181729.418000", "181730.418000", "181731.418000", "181732.418000", "181733.919000", "181735.419000", "181736.919000", "181738.419000", "181739.918000", "181741.418000", "181742.918000", "181744.418000", "181745.918000", "181747.418000", "181748.918000", "181750.419000", "181751.794000"],
      "InstanceCreationTime": ["181548.421000", "181549.419000", "181550.419000", "181551.419000", "181552.419000", "181553.419000", "181554.418000", "181555.418000", "181556.418000", "181557.418000", "181558.418000", "181559.418000", "181600.418000", "181601.418000", "181602.418000", "181603.418000", "181604.418000", "181605.419000", "181606.419000", "181607.419000", "181608.419000", "181609.419000", "181610.419000", "181611.418000", "181612.418000", "181613.418000", "181614.418000", "181615.418000", "181616.418000", "181617.418000", "181618.418000", "181619.418000", "181620.418000", "181621.418000", "181622.418000", "181622.919000", "181624.419000", "181624.919000", "181626.419000", "181626.919000", "181627.919000", "181628.918000", "181629.918000", "181630.918000", "181631.918000", "181632.918000", "181633.918000", "181634.918000", "181635.918000", "181636.918000", "181637.918000", "181638.918000", "181639.918000", "181640.919000", "181641.919000", "181642.919000", "181643.919000", "181644.919000", "181645.919000", "181646.918000", "181647.918000", "181648.918000", "181649.918000", "181650.918000", "181651.918000", "181652.918000", "181653.918000", "181654.918000", "181655.918000", "181656.918000", "181657.919000", "181658.919000", "181659.919000", "181700.919000", "181701.919000", "181702.919000", "181703.918000", "181704.918000", "181705.918000", "181706.918000", "181707.918000", "181708.918000", "181709.918000", "181710.918000", "181711.918000", "181712.918000", "181713.918000", "181714.918000", "181715.919000", "181716.919000", "181717.919000", "181718.919000", "181719.919000", "181720.919000", "181721.418000", "181722.918000", "181723.418000", "181724.418000", "181725.418000", "181726.418000", "181727.418000", "181728.418000", "181729.418000", "181730.418000", "181731.418000", "181732.418000", "181733.919000", "181735.419000", "181736.919000", "181738.419000", "181739.918000", "181741.418000", "181742.918000", "181744.418000", "181745.918000", "181747.418000", "181748.918000", "181750.419000", "181751.794000"],
      "InstanceNumber": [1, 2, 3, 4, 5, 6, 7, 8, 9, 10, 11, 12, 13, 14, 15, 16, 17, 18, 19, 20, 21, 22, 23, 24, 25, 26, 27, 28, 29, 30, 31, 32, 33, 34, 35, 36, 37, 38, 39, 40, 41, 42, 43, 44, 45, 46, 47, 48, 49, 50, 51, 52, 53, 54, 55, 56, 57, 58, 59, 60, 61, 62, 63, 64, 65, 66, 67, 68, 69, 70, 71, 72, 73, 74, 75, 76, 77, 78, 79, 80, 81, 82, 83, 84, 85, 86, 87, 88, 89, 90, 91, 92, 93, 94, 95, 96, 97, 98, 99, 100, 101, 102, 103, 104, 105, 106, 107, 108, 109, 110, 111, 112, 113, 114, 115, 116, 117, 118, 119],
      "LargestImagePixelValue": [60289, 58405, 57139, 56668, 56282, 56319, 55379, 55777, 55039, 55590, 55579, 55571, 55759, 55798, 55329, 55471, 54818, 55339, 54917, 54974, 55657, 56318, 55377, 55868, 55020, 55605, 54966, 55043, 55290, 55190, 55693, 55148, 54996, 55388, 55423, 55670, 55494, 55360, 55090, 55261, 54966, 54823, 55039, 55378, 54558, 54236, 54397, 53615, 54011, 54141, 54229, 52782, 53833, 53970, 53500, 53312, 53626, 53486, 52807, 53117, 53423, 53070, 53014, 53484, 53122, 52854, 53126, 53587, 53206, 52829, 52425, 52779, 52816, 52711, 51796, 52154, 52146, 52148, 52613, 52259, 52073, 51552, 51707, 52347, 52095, 52119, 52180, 52388, 52191, 51222, 51763, 51547, 51593, 51765, 51787, 52148, 51464, 51521, 51547, 51771, 51406, 51660, 50765, 51337, 51030, 50898, 50756, 50890, 50680, 51418, 51434, 51281, 51731, 55050, 55459, 53830, 54352, 53733, 53827],
      "WindowCenter": [10368.0, 10301.0, 10279.0, 10283.0, 10308.0, 10332.0, 10335.0, 10335.0, 10302.0, 10287.0, 10278.0, 10268.0, 10254.0, 10237.0, 10225.0, 10216.0, 10210.0, 10223.0, 10226.0, 10235.0, 10261.0, 10280.0, 10282.0, 10278.0, 10265.0, 10273.0, 10282.0, 10291.0, 10300.0, 10293.0, 10288.0, 10269.0, 10264.0, 10256.0, 10263.0, 10268.0, 10265.0, 10283.0, 10285.0, 10275.0, 10260.0, 10256.0, 10271.0, 10287.0, 10283.0, 10277.0, 10282.0, 10264.0, 10260.0, 10251.0, 10248.0, 10239.0, 10242.0, 10256.0, 10253.0, 10245.0, 10234.0, 10225.0, 10209.0, 10208.0, 10221.0, 10226.0, 10245.0, 10261.0, 10262.0, 10255.0, 10246.0, 10236.0, 10226.0, 10236.0, 10256.0, 10282.0, 10274.0, 10257.0, 10227.0, 10215.0, 10207.0, 10219.0, 10245.0, 10258.0, 10251.0, 10227.0, 10216.0, 10220.0, 10222.0, 10230.0, 10231.0, 10220.0, 10213.0, 10210.0, 10216.0, 10212.0, 10218.0, 10241.0, 10267.0, 10272.0, 10262.0, 10249.0, 10237.0, 10227.0, 10225.0, 10226.0, 10230.0, 10232.0, 10216.0, 10206.0, 10196.0, 10187.0, 10187.0, 10196.0, 10204.0, 10215.0, 10273.0, 10330.0, 10318.0, 10307.0, 10301.0, 10286.0, 10278.0],
      "WindowWidth": [22376.0, 22184.0, 22112.0, 22104.0, 22152.0, 22200.0, 22208.0, 22204.0, 22130.0, 22089.0, 22069.0, 22046.0, 22019.0, 21980.0, 21954.0, 21928.0, 21918.0, 21945.0, 21956.0, 21975.0, 22030.0, 22074.0, 22077.0, 22063.0, 22035.0, 22058.0, 22074.0, 22097.0, 22112.0, 22105.0, 22084.0, 22051.0, 22036.0, 22018.0, 22035.0, 22043.0, 22045.0, 22083.0, 22087.0, 22063.0, 22034.0, 22018.0, 22052.0, 22086.0, 22077.0, 22069.0, 22071.0, 22039.0, 22027.0, 22010.0, 22004.0, 21988.0, 21990.0, 22017.0, 22013.0, 21995.0, 21969.0, 21949.0, 21917.0, 21914.0, 21941.0, 21956.0, 21999.0, 22038.0, 22039.0, 22024.0, 22004.0, 21987.0, 21959.0, 21987.0, 22031.0, 22086.0, 22067.0, 22030.0, 21965.0, 21936.0, 21920.0, 21945.0, 22000.0, 22033.0, 22015.0, 21962.0, 21939.0, 21942.0, 21949.0, 21966.0, 21970.0, 21946.0, 21929.0, 21932.0, 21943.0, 21937.0, 21944.0, 21993.0, 22054.0, 22064.0, 22040.0, 22012.0, 21985.0, 21963.0, 21959.0, 21959.0, 21974.0, 21976.0, 21944.0, 21917.0, 21895.0, 21875.0, 21875.0, 21889.0, 21907.0, 21934.0, 22072.0, 22208.0, 22177.0, 22150.0, 22134.0, 22100.0, 22082.0]
    },
    "slices": {}
  }
}