{
  "AcquisitionMatrixPE": 104,
  "AcquisitionNumber": 1,
  "AcquisitionTime": "17:39:46.965000",
  "BandwidthPerPixelPhaseEncode": 17.17,
  "BaseResolution": 104,
  "BodyPartExamined": "BRAIN",
  "CoilString": "HC1-7;NC1_2",
  "ConsistencyInfo": "N4_VE11C_LATEST_20160120",
  "ConversionSoftware": "dcm2niix",
  "ConversionSoftwareVersion": "v1.0.20190720  (JP2:OpenJPEG) GCC7.3.0",
  "DerivedVendorReportedEchoSpacing": 0.000560011,
  "DeviceSerialNumber": "167006",
  "DwellTime": 2.1e-06,
  "EchoTime": 0.037,
  "EchoTrainLength": 104,
  "EffectiveEchoSpacing": 0.000560011,
  "FlipAngle": 52,
  "ImageComments": "Unaliased_MB4_PE3_LB",
  "ImageOrientationPatientDICOM": [0.999403, -0.0310392, -0.0151919, 0.0226796, 0.920807, -0.389358],
  "ImageType": [
    "ORIGINAL",
    "PRIMARY",
    "M",
    "MB",
    "ND",
    "MOSAIC"
],
  "ImagingFrequency": 123.259,
  "InPlanePhaseEncodingDirectionDICOM": "COL",
  "InstitutionAddress": "Chemin_Queen-Mary_4565_Montreal_District_CA_H3W_1W5",
  "InstitutionName": "IUGM",
  "InstitutionalDepartmentName": "Department",
  "MRAcquisitionType": "2D",
  "MagneticFieldStrength": 3,
  "Manufacturer": "Siemens",
  "ManufacturersModelName": "Prisma_fit",
  "Modality": "MR",
  "MultibandAccelerationFactor": 4,
  "PartialFourier": 1,
  "PatientPosition": "HFS",
  "PercentPhaseFOV": 100,
  "PhaseEncodingDirection": "j",
  "PhaseEncodingSteps": 104,
  "PhaseResolution": 1,
  "PixelBandwidth": 2290,
  "ProcedureStepDescription": "hcptrt_generic",
  "ProtocolName": "func_task-wm_run-1",
  "PulseSequenceDetails": "%CustomerSeq%_cmrr_mbep2d_bold",
  "ReceiveCoilActiveElements": "HC1-7;NC1,2",
  "ReceiveCoilName": "HeadNeck_64",
  "ReconMatrixPE": 104,
  "RepetitionTime": 1.49,
  "SAR": 0.0345828,
  "ScanOptions": "FS",
  "ScanningSequence": "EP",
  "SequenceName": "epfid2d1_104",
  "SequenceVariant": "SK_SS",
  "SeriesDescription": "func_task-wm_run-1",
  "SeriesNumber": 9,
  "ShimSetting": [614, -7258, -8845, 403, 29, -362, 6, 29],
  "SliceThickness": 2,
  "SliceTiming": [0, 0.7825, 0.0975, 0.88, 0.195, 0.98, 0.2925, 1.0775, 0.39, 1.175, 0.49, 1.2725, 0.5875, 1.37, 0.685, 0, 0.7825, 0.0975, 0.88, 0.195, 0.98, 0.2925, 1.0775, 0.39, 1.175, 0.49, 1.2725, 0.5875, 1.37, 0.685, 0, 0.7825, 0.0975, 0.88, 0.195, 0.98, 0.2925, 1.0775, 0.39, 1.175, 0.49, 1.2725, 0.5875, 1.37, 0.685, 0, 0.7825, 0.0975, 0.88, 0.195, 0.98, 0.2925, 1.0775, 0.39, 1.175, 0.49, 1.2725, 0.5875, 1.37, 0.685],
  "SoftwareVersions": "syngo_MR_E11",
  "SpacingBetweenSlices": 2,
  "StationName": "MRC35049",
  "TaskName": "wm",
  "TotalReadoutTime": 0.0576811,
  "TxRefAmp": 236.209,
  "WipMemBlock": "3e702ff0-d64a-4562-8e5c-2febba0fdd50||Sequence: R016 ve11c/master r/e634e98; Dec 19 2017 11:00:25 by eja",
  "dcmmeta_affine": [
    [-1.9988054037094116, 0.045359231531620026, -0.052148304879665375, 103.34519958496094],
    [0.06207846850156784, 1.8416141271591187, -0.7775627970695496, -63.52595520019531],
    [-0.030383700504899025, 0.7787169814109802, 1.8419220447540283, -66.5191650390625],
    [0.0, 0.0, 0.0, 1.0]
],
  "dcmmeta_reorient_transform": [
    [0.0, -1.0, 0.0, 103.0],
    [1.0, 0.0, 0.0, 0.0],
    [0.0, 0.0, 1.0, 0.0],
    [0.0, 0.0, 0.0, 1.0]
],
  "dcmmeta_shape": [104, 104, 60, 202],
  "dcmmeta_slice_dim": 2,
  "dcmmeta_version": 0.6,
  "global": {
    "const": {
      "AcquisitionMatrix": [104, 0, 0, 104],
      "AngioFlag": "N",
      "BitsAllocated": 16,
      "BitsStored": 16,
      "BodyPartExamined": "BRAIN",
      "Columns": 832,
      "EchoNumbers": 1,
      "EchoTime": 37.0,
      "EchoTrainLength": 104,
      "FlipAngle": 52.0,
      "HighBit": 15,
      "ImageOrientationPatient": [0.99940270846047, -0.0310392334586, -0.0151918500577, 0.02267961490814, 0.92080703417729, -0.3893584991717],
      "ImagePositionPatient": [-852.09313131783, -773.91125325215, 308.20133855693],
      "ImageType": [
        "ORIGINAL",
        "PRIMARY",
        "M",
        "MB",
        "ND",
        "MOSAIC"
],
      "ImagedNucleus": "1H",
      "ImagingFrequency": 123.25923,
      "InPlanePhaseEncodingDirection": "COL",
      "MRAcquisitionType": "2D",
      "MagneticFieldStrength": 3.0,
      "Manufacturer": "SIEMENS",
      "ManufacturerModelName": "Prisma_fit",
      "Modality": "MR",
      "NumberOfAverages": 1.0,
      "NumberOfPhaseEncodingSteps": 104,
      "PercentPhaseFieldOfView": 100.0,
      "PercentSampling": 100.0,
      "PerformedProcedureStepStartTime": "171513.964000",
      "PhotometricInterpretation": "MONOCHROME2",
      "PixelBandwidth": 2290.0,
      "PixelRepresentation": 0,
      "PixelSpacing": [2.0, 2.0],
      "ProtocolName": "func_task-wm_run-1",
      "RepetitionTime": 1490.0,
      "Rows": 832,
      "SAR": 0.03458276503255,
      "SamplesPerPixel": 1,
      "ScanOptions": "FS",
      "ScanningSequence": "EP",
      "SequenceName": "epfid2d1_104",
      "SequenceVariant": [
        "SK",
        "SS"
],
      "SeriesDescription": "func_task-wm_run-1",
      "SeriesNumber": 9,
      "SeriesTime": "174043.234000",
      "SliceLocation": -39.258487450917,
      "SliceThickness": 2.0,
      "SmallestImagePixelValue": 0,
      "SoftwareVersions": "syngo MR E11",
      "SpacingBetweenSlices": 2.0000000426937,
      "SpecificCharacterSet": "ISO_IR 100",
      "StudyID": "1",
      "StudyTime": "171513.909000",
      "TransmitCoilName": "Body",
      "VariableFlipAngleFlag": "N",
      "WindowCenterWidthExplanation": "Algo1",
      "dBdt": 0.0},
    "slices": {}
  },
  "time": {
    "samples": {
      "AcquisitionNumber": [1, 2, 3, 4, 5, 6, 7, 8, 9, 10, 11, 12, 13, 14, 15, 16, 17, 18, 19, 20, 21, 22, 23, 24, 25, 26, 27, 28, 29, 30, 31, 32, 33, 34, 35, 36, 37, 38, 39, 40, 41, 42, 43, 44, 45, 46, 47, 48, 49, 50, 51, 52, 53, 54, 55, 56, 57, 58, 59, 60, 61, 62, 63, 64, 65, 66, 67, 68, 69, 70, 71, 72, 73, 74, 75, 76, 77, 78, 79, 80, 81, 82, 83, 84, 85, 86, 87, 88, 89, 90, 91, 92, 93, 94, 95, 96, 97, 98, 99, 100, 101, 102, 103, 104, 105, 106, 107, 108, 109, 110, 111, 112, 113, 114, 115, 116, 117, 118, 119, 120, 121, 122, 123, 124, 125, 126, 127, 128, 129, 130, 131, 132, 133, 134, 135, 136, 137, 138, 139, 140, 141, 142, 143, 144, 145, 146, 147, 148, 149, 150, 151, 152, 153, 154, 155, 156, 157, 158, 159, 160, 161, 162, 163, 164, 165, 166, 167, 168, 169, 170, 171, 172, 173, 174, 175, 176, 177, 178, 179, 180, 181, 182, 183, 184, 185, 186, 187, 188, 189, 190, 191, 192, 193, 194, 195, 196, 197, 198, 199, 200, 201, 202],
      "AcquisitionTime": ["173946.965000", "173948.455000", "173949.945000", "173951.435000", "173952.925000", "173954.415000", "173955.905000", "173957.395000", "173958.885000", "174000.375000", "174001.865000", "174003.355000", "174004.845000", "174006.335000", "174007.825000", "174009.315000", "174010.805000", "174012.295000", "174013.785000", "174015.275000", "174016.765000", "174018.255000", "174019.745000", "174021.235000", "174022.725000", "174024.215000", "174025.705000", "174027.195000", "174028.685000", "174030.175000", "174031.665000", "174033.155000", "174034.645000", "174036.135000", "174037.625000", "174039.115000", "174040.605000", "174042.095000", "174043.585000", "174045.075000", "174046.565000", "174048.055000", "174049.545000", "174051.035000", "174052.525000", "174054.015000", "174055.505000", "174056.995000", "174058.485000", "174059.975000", "174101.465000", "174102.955000", "174104.445000", "174105.935000", "174107.425000", "174108.915000", "174110.405000", "174111.895000", "174113.385000", "174114.875000", "174116.365000", "174117.855000", "174119.345000", "174120.835000", "174122.325000", "174123.815000", "174125.305000", "174126.795000", "174128.285000", "174129.775000", "174131.265000", "174132.755000", "174134.245000", "174135.735000", "174137.225000", "174138.715000", "174140.205000", "174141.695000", "174143.185000", "174144.675000", "174146.165000", "174147.655000", "174149.145000", "174150.635000", "174152.125000", "174153.615000", "174155.105000", "174156.595000", "174158.085000", "174159.575000", "174201.065000", "174202.555000", "174204.045000", "174205.535000", "174207.025000", "174208.515000", "174210.005000", "174211.495000", "174212.985000", "174214.475000", "174215.965000", "174217.455000", "174218.945000", "174220.435000", "174221.925000", "174223.415000", "174224.905000", "174226.395000", "174227.885000", "174229.375000", "174230.865000", "174232.355000", "174233.845000", "174235.335000", "174236.825000", "174238.315000", "174239.805000", "174241.295000", "174242.785000", "174244.275000", "174245.765000", "174247.255000", "174248.745000", "174250.235000", "174251.725000", "174253.215000", "174254.705000", "174256.195000", "174257.685000", "174259.175000", "174300.665000", "174302.155000", "174303.645000", "174305.135000", "174306.625000", "174308.115000", "174309.605000", "174311.095000", "174312.585000", "174314.075000", "174315.565000", "174317.055000", "174318.545000", "174320.035000", "174321.525000", "174323.015000", "174324.505000", "174325.995000", "174327.485000", "174328.975000", "174330.465000", "174331.955000", "174333.445000", "174334.935000", "174336.425000", "174337.915000", "174339.405000", "174340.895000", "174342.385000", "174343.875000", "174345.365000", "174346.855000", "174348.345000", "174349.835000", "174351.325000", "174352.815000", "174354.305000", "174355.795000", "174357.285000", "174358.775000", "174400.265000", "174401.755000", "174403.245000", "174404.735000", "174406.225000", "174407.715000", "174409.205000", "174410.695000", "174412.185000", "174413.675000", "174415.165000", "174416.655000", "174418.145000", "174419.635000", "174421.125000", "174422.615000", "174424.105000", "174425.595000", "174427.085000", "174428.575000", "174430.065000", "174431.555000", "174433.045000", "174434.535000", "174436.025000", "174437.515000", "174439.005000", "174440.495000", "174441.985000", "174443.475000", "174444.965000", "174446.455000"],
      "ContentTime": ["174043.237000", "174044.235000", "174045.235000", "174046.235000", "174047.235000", "174048.235000", "174049.235000", "174050.236000", "174051.236000", "174052.236000", "174053.236000", "174054.235000", "174055.235000", "174056.235000", "174057.235000", "174058.235000", "174059.235000", "174100.235000", "174101.235000", "174102.235000", "174103.235000", "174104.235000", "174105.235000", "174106.235000", "174107.235000", "174108.236000", "174109.236000", "174110.236000", "174111.235000", "174112.235000", "174113.235000", "174114.235000", "174115.235000", "174116.235000", "174117.235000", "174118.235000", "174119.235000", "174120.235000", "174121.235000", "174122.235000", "174123.235000", "174124.235000", "174125.256000", "174126.236000", "174127.236000", "174127.736000", "174128.735000", "174129.735000", "174130.735000", "174131.735000", "174132.735000", "174133.735000", "174134.735000", "174135.735000", "174136.735000", "174137.735000", "174138.735000", "174139.735000", "174140.735000", "174141.735000", "174142.736000", "174143.736000", "174144.736000", "174145.736000", "174146.735000", "174147.735000", "174148.735000", "174149.735000", "174150.735000", "174151.735000", "174152.735000", "174153.735000", "174154.735000", "174155.735000", "174156.735000", "174157.735000", "174158.735000", "174159.735000", "174200.736000", "174201.736000", "174202.736000", "174203.735000", "174204.735000", "174205.735000", "174206.735000", "174207.735000", "174208.735000", "174209.735000", "174210.735000", "174211.735000", "174212.735000", "174213.735000", "174214.735000", "174215.735000", "174216.735000", "174217.736000", "174218.736000", "174219.236000", "174220.236000", "174221.235000", "174222.235000", "174223.235000", "174224.235000", "174225.235000", "174226.235000", "174227.235000", "174228.235000", "174229.235000", "174230.235000", "174231.735000", "174233.235000", "174234.735000", "174236.236000", "174237.736000", "174239.235000", "174240.735000", "174242.235000", "174243.735000", "174245.235000", "174246.735000", "174247.735000", "174249.235000", "174250.735000", "174252.236000", "174253.736000", "174255.236000", "174256.735000", "174258.235000", "174259.735000", "174301.235000", "174302.735000", "174304.235000", "174305.735000", "174307.235000", "174308.735000", "174310.236000", "174311.736000", "174313.236000", "174314.735000", "174316.235000", "174317.735000", "174319.245000", "174320.735000", "174322.235000", "174323.735000", "174325.235000", "174326.735000", "174328.236000", "174329.736000", "174331.235000", "174332.735000", "174334.235000", "174335.735000", "174337.235000", "174338.735000", "174340.235000", "174341.735000", "174343.235000", "174344.736000", "174346.236000", "174347.736000", "174349.235000", "174350.735000", "174352.235000", "174353.735000", "174355.235000", "174356.735000", "174358.235000", "174359.735000", "174400.735000", "174402.236000", "174403.736000", "174405.236000", "174406.735000", "174408.235000", "174409.735000", "174411.235000", "174412.735000", "174414.235000", "174415.735000", "174417.235000", "174418.735000", "174420.236000", "174421.736000", "174423.236000", "174424.735000", "174426.235000", "174427.735000", "174429.235000", "174430.735000", "174432.235000", "174433.735000", "174435.235000", "174436.735000", "174438.236000", "174439.736000", "174441.235000", "174442.735000", "174444.235000", "174445.735000", "174447.235000", "174448.474000"],
      "InstanceCreationTime": ["174043.237000", "174044.235000", "174045.235000", "174046.235000", "174047.235000", "174048.235000", "174049.235000", "174050.236000", "174051.236000", "174052.236000", "174053.236000", "174054.235000", "174055.235000", "174056.235000", "174057.235000", "174058.235000", "174059.235000", "174100.235000", "174101.235000", "174102.235000", "174103.235000", "174104.235000", "174105.235000", "174106.235000", "174107.235000", "174108.236000", "174109.236000", "174110.236000", "174111.235000", "174112.235000", "174113.235000", "174114.235000", "174115.235000", "174116.235000", "174117.235000", "174118.235000", "174119.235000", "174120.235000", "174121.235000", "174122.235000", "174123.235000", "174124.235000", "174125.256000", "174126.236000", "174127.236000", "174127.736000", "174128.735000", "174129.735000", "174130.735000", "174131.735000", "174132.735000", "174133.735000", "174134.735000", "174135.735000", "174136.735000", "174137.735000", "174138.735000", "174139.735000", "174140.735000", "174141.735000", "174142.736000", "174143.736000", "174144.736000", "174145.736000", "174146.735000", "174147.735000", "174148.735000", "174149.735000", "174150.735000", "174151.735000", "174152.735000", "174153.735000", "174154.735000", "174155.735000", "174156.735000", "174157.735000", "174158.735000", "174159.735000", "174200.736000", "174201.736000", "174202.736000", "174203.735000", "174204.735000", "174205.735000", "174206.735000", "174207.735000", "174208.735000", "174209.735000", "174210.735000", "174211.735000", "174212.735000", "174213.735000", "174214.735000", "174215.735000", "174216.735000", "174217.736000", "174218.736000", "174219.236000", "174220.236000", "174221.235000", "174222.235000", "174223.235000", "174224.235000", "174225.235000", "174226.235000", "174227.235000", "174228.235000", "174229.235000", "174230.235000", "174231.735000", "174233.235000", "174234.735000", "174236.236000", "174237.736000", "174239.235000", "174240.735000", "174242.235000", "174243.735000", "174245.235000", "174246.735000", "174247.735000", "174249.235000", "174250.735000", "174252.236000", "174253.736000", "174255.236000", "174256.735000", "174258.235000", "174259.735000", "174301.235000", "174302.735000", "174304.235000", "174305.735000", "174307.235000", "174308.735000", "174310.236000", "174311.736000", "174313.236000", "174314.735000", "174316.235000", "174317.735000", "174319.245000", "174320.735000", "174322.235000", "174323.735000", "174325.235000", "174326.735000", "174328.236000", "174329.736000", "174331.235000", "174332.735000", "174334.235000", "174335.735000", "174337.235000", "174338.735000", "174340.235000", "174341.735000", "174343.235000", "174344.736000", "174346.236000", "174347.736000", "174349.235000", "174350.735000", "174352.235000", "174353.735000", "174355.235000", "174356.735000", "174358.235000", "174359.735000", "174400.735000", "174402.236000", "174403.736000", "174405.236000", "174406.735000", "174408.235000", "174409.735000", "174411.235000", "174412.735000", "174414.235000", "174415.735000", "174417.235000", "174418.735000", "174420.236000", "174421.736000", "174423.236000", "174424.735000", "174426.235000", "174427.735000", "174429.235000", "174430.735000", "174432.235000", "174433.735000", "174435.235000", "174436.735000", "174438.236000", "174439.736000", "174441.235000", "174442.735000", "174444.235000", "174445.735000", "174447.235000", "174448.474000"],
      "InstanceNumber": [1, 2, 3, 4, 5, 6, 7, 8, 9, 10, 11, 12, 13, 14, 15, 16, 17, 18, 19, 20, 21, 22, 23, 24, 25, 26, 27, 28, 29, 30, 31, 32, 33, 34, 35, 36, 37, 38, 39, 40, 41, 42, 43, 44, 45, 46, 47, 48, 49, 50, 51, 52, 53, 54, 55, 56, 57, 58, 59, 60, 61, 62, 63, 64, 65, 66, 67, 68, 69, 70, 71, 72, 73, 74, 75, 76, 77, 78, 79, 80, 81, 82, 83, 84, 85, 86, 87, 88, 89, 90, 91, 92, 93, 94, 95, 96, 97, 98, 99, 100, 101, 102, 103, 104, 105, 106, 107, 108, 109, 110, 111, 112, 113, 114, 115, 116, 117, 118, 119, 120, 121, 122, 123, 124, 125, 126, 127, 128, 129, 130, 131, 132, 133, 134, 135, 136, 137, 138, 139, 140, 141, 142, 143, 144, 145, 146, 147, 148, 149, 150, 151, 152, 153, 154, 155, 156, 157, 158, 159, 160, 161, 162, 163, 164, 165, 166, 167, 168, 169, 170, 171, 172, 173, 174, 175, 176, 177, 178, 179, 180, 181, 182, 183, 184, 185, 186, 187, 188, 189, 190, 191, 192, 193, 194, 195, 196, 197, 198, 199, 200, 201, 202],
      "LargestImagePixelValue": [59809, 57736, 56868, 55372, 54594, 54284, 54144, 52864, 53404, 53574, 53975, 53579, 53499, 54149, 54244, 54031, 53466, 53653, 53433, 53239, 53455, 52451, 53091, 52836, 52827, 53308, 53559, 53164, 53373, 53150, 53035, 52991, 53092, 52763, 52810, 52903, 52942, 52936, 53035, 53325, 53156, 53546, 53342, 53435, 53491, 53283, 55125, 53130, 53100, 53132, 53026, 53216, 52758, 53570, 52558, 53438, 52810, 53117, 52952, 53517, 53396, 53176, 52662, 53528, 53318, 53454, 53199, 53610, 53256, 53702, 53208, 53629, 53555, 53134, 53783, 53525, 53236, 54038, 53241, 53319, 52960, 52899, 53327, 53657, 53121, 53061, 53193, 53375, 53261, 53441, 53307, 53139, 53480, 53380, 53452, 53397, 53480, 53396, 53454, 53108, 53384, 53219, 53338, 53723, 53091, 53257, 53171, 52895, 52773, 52744, 52862, 52632, 52254, 52611, 52233, 52251, 52443, 52528, 51883, 53078, 52184, 52541, 52720, 52012, 52140, 52601, 52198, 52085, 52145, 51905, 52218, 52241, 52270, 52027, 52496, 52689, 52075, 52348, 52079, 52735, 51581, 51997, 51929, 51533, 51737, 52507, 52116, 53583, 52861, 53428, 52601, 52996, 52759, 52890, 52822, 52588, 52947, 52574, 52563, 52868, 52690, 52434, 52235, 52529, 52073, 51983, 51750, 51410, 52071, 51390, 51838, 52214, 52538, 52482, 51720, 52202, 51857, 52265, 51724, 52095, 51935, 52237, 51445, 51977, 51852, 51463, 51507, 51790, 51332, 51856, 51909, 52288, 52001, 51994, 52235, 51956, 52566, 52075, 53732, 52181, 53154, 51850],
      "WindowCenter": [10530.0, 10495.0, 10479.0, 10450.0, 10442.0, 10427.0, 10370.0, 10357.0, 10378.0, 10386.0, 10387.0, 10379.0, 10379.0, 10385.0, 10392.0, 10409.0, 10415.0, 10425.0, 10428.0, 10427.0, 10433.0, 10427.0, 10436.0, 10437.0, 10421.0, 10411.0, 10392.0, 10382.0, 10380.0, 10389.0, 10407.0, 10418.0, 10427.0, 10413.0, 10393.0, 10383.0, 10376.0, 10392.0, 10401.0, 10407.0, 10393.0, 10382.0, 10371.0, 10363.0, 10372.0, 10377.0, 10409.0, 10384.0, 10390.0, 10390.0, 10392.0, 10400.0, 10402.0, 10407.0, 10389.0, 10398.0, 10401.0, 10409.0, 10409.0, 10407.0, 10391.0, 10375.0, 10367.0, 10365.0, 10362.0, 10360.0, 10355.0, 10359.0, 10353.0, 10368.0, 10371.0, 10385.0, 10387.0, 10379.0, 10379.0, 10381.0, 10378.0, 10375.0, 10348.0, 10347.0, 10334.0, 10341.0, 10356.0, 10366.0, 10368.0, 10362.0, 10354.0, 10347.0, 10342.0, 10348.0, 10358.0, 10358.0, 10357.0, 10355.0, 10357.0, 10372.0, 10382.0, 10386.0, 10388.0, 10379.0, 10369.0, 10351.0, 10354.0, 10362.0, 10372.0, 10376.0, 10368.0, 10353.0, 10344.0, 10342.0, 10349.0, 10351.0, 10347.0, 10352.0, 10353.0, 10345.0, 10336.0, 10335.0, 10330.0, 10340.0, 10337.0, 10343.0, 10351.0, 10359.0, 10362.0, 10369.0, 10364.0, 10348.0, 10339.0, 10337.0, 10353.0, 10353.0, 10345.0, 10329.0, 10327.0, 10327.0, 10324.0, 10314.0, 10315.0, 10323.0, 10328.0, 10329.0, 10328.0, 10316.0, 10311.0, 10323.0, 10326.0, 10355.0, 10363.0, 10370.0, 10348.0, 10344.0, 10334.0, 10331.0, 10337.0, 10339.0, 10340.0, 10341.0, 10335.0, 10340.0, 10356.0, 10368.0, 10356.0, 10338.0, 10326.0, 10313.0, 10327.0, 10336.0, 10345.0, 10334.0, 10336.0, 10351.0, 10372.0, 10370.0, 10363.0, 10359.0, 10345.0, 10342.0, 10336.0, 10350.0, 10344.0, 10343.0, 10317.0, 10295.0, 10289.0, 10284.0, 10300.0, 10292.0, 10294.0, 10290.0, 10290.0, 10312.0, 10316.0, 10317.0, 10317.0, 10316.0, 10329.0, 10339.0, 10408.0, 10402.0, 10398.0, 10362.0],
      "WindowWidth": [22769.0, 22652.0, 22584.0, 22509.0, 22482.0, 22446.0, 22300.0, 22272.0, 22318.0, 22340.0, 22343.0, 22326.0, 22328.0, 22340.0, 22357.0, 22396.0, 22413.0, 22438.0, 22448.0, 22446.0, 22457.0, 22446.0, 22463.0, 22465.0, 22429.0, 22408.0, 22361.0, 22339.0, 22334.0, 22355.0, 22395.0, 22421.0, 22443.0, 22410.0, 22365.0, 22340.0, 22327.0, 22364.0, 22382.0, 22395.0, 22364.0, 22338.0, 22310.0, 22293.0, 22317.0, 22328.0, 22408.0, 22345.0, 22356.0, 22355.0, 22365.0, 22381.0, 22389.0, 22401.0, 22362.0, 22375.0, 22387.0, 22403.0, 22401.0, 22395.0, 22360.0, 22327.0, 22306.0, 22303.0, 22289.0, 22284.0, 22270.0, 22279.0, 22270.0, 22302.0, 22308.0, 22342.0, 22345.0, 22326.0, 22325.0, 22331.0, 22321.0, 22313.0, 22256.0, 22251.0, 22224.0, 22241.0, 22270.0, 22295.0, 22301.0, 22287.0, 22270.0, 22260.0, 22242.0, 22251.0, 22276.0, 22277.0, 22273.0, 22268.0, 22275.0, 22313.0, 22331.0, 22344.0, 22348.0, 22329.0, 22302.0, 22264.0, 22269.0, 22281.0, 22304.0, 22314.0, 22294.0, 22263.0, 22245.0, 22241.0, 22256.0, 22261.0, 22254.0, 22265.0, 22267.0, 22250.0, 22228.0, 22224.0, 22215.0, 22234.0, 22230.0, 22241.0, 22258.0, 22275.0, 22284.0, 22300.0, 22295.0, 22256.0, 22236.0, 22232.0, 22269.0, 22270.0, 22249.0, 22211.0, 22205.0, 22206.0, 22194.0, 22173.0, 22172.0, 22193.0, 22207.0, 22211.0, 22206.0, 22189.0, 22170.0, 22194.0, 22205.0, 22266.0, 22293.0, 22303.0, 22255.0, 22246.0, 22220.0, 22212.0, 22222.0, 22226.0, 22229.0, 22233.0, 22220.0, 22229.0, 22265.0, 22294.0, 22270.0, 22228.0, 22199.0, 22171.0, 22200.0, 22223.0, 22243.0, 22227.0, 22223.0, 22254.0, 22301.0, 22299.0, 22288.0, 22273.0, 22243.0, 22236.0, 22225.0, 22257.0, 22242.0, 22236.0, 22181.0, 22130.0, 22110.0, 22102.0, 22139.0, 22123.0, 22143.0, 22114.0, 22117.0, 22165.0, 22176.0, 22179.0, 22182.0, 22179.0, 22203.0, 22230.0, 22398.0, 22397.0, 22386.0, 22291.0]
    },
    "slices": {}
  }
}