{
  "AcquisitionMatrixPE": 104,
  "AcquisitionNumber": 1,
  "AcquisitionTime": "17:59:11.552500",
  "BandwidthPerPixelPhaseEncode": 17.17,
  "BaseResolution": 104,
  "BodyPartExamined": "BRAIN",
  "CoilString": "HC1-7;NC1_2",
  "ConsistencyInfo": "N4_VE11C_LATEST_20160120",
  "ConversionSoftware": "dcm2niix",
  "ConversionSoftwareVersion": "v1.0.20190720  (JP2:OpenJPEG) GCC7.3.0",
  "DerivedVendorReportedEchoSpacing": 0.000560011,
  "DeviceSerialNumber": "167006",
  "DwellTime": 2.1e-06,
  "EchoTime": 0.037,
  "EchoTrainLength": 104,
  "EffectiveEchoSpacing": 0.000560011,
  "FlipAngle": 52,
  "ImageComments": "Unaliased_MB4_PE3_LB",
  "ImageOrientationPatientDICOM": [0.999399, -0.0311999, -0.0151239, 0.022854, 0.920802, -0.389361],
  "ImageType": [
    "ORIGINAL",
    "PRIMARY",
    "M",
    "MB",
    "ND",
    "MOSAIC"
],
  "ImagingFrequency": 123.259,
  "InPlanePhaseEncodingDirectionDICOM": "COL",
  "InstitutionAddress": "Chemin_Queen-Mary_4565_Montreal_District_CA_H3W_1W5",
  "InstitutionName": "IUGM",
  "InstitutionalDepartmentName": "Department",
  "MRAcquisitionType": "2D",
  "MagneticFieldStrength": 3,
  "Manufacturer": "Siemens",
  "ManufacturersModelName": "Prisma_fit",
  "Modality": "MR",
  "MultibandAccelerationFactor": 4,
  "PartialFourier": 1,
  "PatientPosition": "HFS",
  "PercentPhaseFOV": 100,
  "PhaseEncodingDirection": "j",
  "PhaseEncodingSteps": 104,
  "PhaseResolution": 1,
  "PixelBandwidth": 2290,
  "ProcedureStepDescription": "hcptrt_generic",
  "ProtocolName": "func_task-social_run-1",
  "PulseSequenceDetails": "%CustomerSeq%_cmrr_mbep2d_bold",
  "ReceiveCoilActiveElements": "HC1-7;NC1,2",
  "ReceiveCoilName": "HeadNeck_64",
  "ReconMatrixPE": 104,
  "RepetitionTime": 1.49,
  "SAR": 0.0344367,
  "ScanOptions": "FS",
  "ScanningSequence": "EP",
  "SequenceName": "epfid2d1_104",
  "SequenceVariant": "SK_SS",
  "SeriesDescription": "func_task-social_run-1",
  "SeriesNumber": 17,
  "ShimSetting": [614, -7258, -8845, 403, 29, -362, 6, 29],
  "SliceThickness": 2,
  "SliceTiming": [0, 0.785, 0.1, 0.8825, 0.1975, 0.98, 0.295, 1.08, 0.3925, 1.1775, 0.49, 1.275, 0.59, 1.3725, 0.6875, 0, 0.785, 0.1, 0.8825, 0.1975, 0.98, 0.295, 1.08, 0.3925, 1.1775, 0.49, 1.275, 0.59, 1.3725, 0.6875, 0, 0.785, 0.1, 0.8825, 0.1975, 0.98, 0.295, 1.08, 0.3925, 1.1775, 0.49, 1.275, 0.59, 1.3725, 0.6875, 0, 0.785, 0.1, 0.8825, 0.1975, 0.98, 0.295, 1.08, 0.3925, 1.1775, 0.49, 1.275, 0.59, 1.3725, 0.6875],
  "SoftwareVersions": "syngo_MR_E11",
  "SpacingBetweenSlices": 2,
  "StationName": "MRC35049",
  "TaskName": "social",
  "TotalReadoutTime": 0.0576811,
  "TxRefAmp": 236.209,
  "WipMemBlock": "b00721ba-9b90-4820-98c2-e1fa1a615d84||Sequence: R016 ve11c/master r/e634e98; Dec 19 2017 11:00:25 by eja",
  "dcmmeta_affine": [
    [-1.9987974166870117, 0.045708075165748596, -0.052148353308439255, 103.32699584960938],
    [0.06239989772439003, 1.84160315990448, -0.7775627970695496, -63.5421142578125],
    [-0.03024783544242382, 0.7787222862243652, 1.8419220447540283, -66.52650451660156],
    [0.0, 0.0, 0.0, 1.0]
],
  "dcmmeta_reorient_transform": [
    [0.0, -1.0, 0.0, 103.0],
    [1.0, 0.0, 0.0, 0.0],
    [0.0, 0.0, 1.0, 0.0],
    [0.0, 0.0, 0.0, 1.0]
],
  "dcmmeta_shape": [104, 104, 60, 139],
  "dcmmeta_slice_dim": 2,
  "dcmmeta_version": 0.6,
  "global": {
    "const": {
      "AcquisitionMatrix": [104, 0, 0, 104],
      "AngioFlag": "N",
      "BitsAllocated": 16,
      "BitsStored": 16,
      "BodyPartExamined": "BRAIN",
      "Columns": 832,
      "EchoNumbers": 1,
      "EchoTime": 37.0,
      "EchoTrainLength": 104,
      "FlipAngle": 52.0,
      "HighBit": 15,
      "ImageOrientationPatient": [0.99939873438602, -0.0311999489634, -0.0151239178889, 0.02285403820546, 0.92080160027832, -0.3893611509416],
      "ImagePositionPatient": [-852.23494507126, -773.77301694818, 308.14702526509],
      "ImageType": [
        "ORIGINAL",
        "PRIMARY",
        "M",
        "MB",
        "ND",
        "MOSAIC"
],
      "ImagedNucleus": "1H",
      "ImagingFrequency": 123.259239,
      "InPlanePhaseEncodingDirection": "COL",
      "MRAcquisitionType": "2D",
      "MagneticFieldStrength": 3.0,
      "Manufacturer": "SIEMENS",
      "ManufacturerModelName": "Prisma_fit",
      "Modality": "MR",
      "NumberOfAverages": 1.0,
      "NumberOfPhaseEncodingSteps": 104,
      "PercentPhaseFieldOfView": 100.0,
      "PercentSampling": 100.0,
      "PerformedProcedureStepStartTime": "171513.964000",
      "PhotometricInterpretation": "MONOCHROME2",
      "PixelBandwidth": 2290.0,
      "PixelRepresentation": 0,
      "PixelSpacing": [2.0, 2.0],
      "ProtocolName": "func_task-social_run-1",
      "RepetitionTime": 1490.0,
      "Rows": 832,
      "SAR": 0.03443667925718,
      "SamplesPerPixel": 1,
      "ScanOptions": "FS",
      "ScanningSequence": "EP",
      "SequenceName": "epfid2d1_104",
      "SequenceVariant": [
        "SK",
        "SS"
],
      "SeriesDescription": "func_task-social_run-1",
      "SeriesNumber": 17,
      "SeriesTime": "180006.655000",
      "SliceLocation": -39.258487593062,
      "SliceThickness": 2.0,
      "SmallestImagePixelValue": 0,
      "SoftwareVersions": "syngo MR E11",
      "SpacingBetweenSlices": 2.0000000426937,
      "SpecificCharacterSet": "ISO_IR 100",
      "StudyID": "1",
      "StudyTime": "171513.909000",
      "TransmitCoilName": "Body",
      "VariableFlipAngleFlag": "N",
      "WindowCenterWidthExplanation": "Algo1",
      "dBdt": 0.0},
    "slices": {}
  },
  "time": {
    "samples": {
      "AcquisitionNumber": [1, 2, 3, 4, 5, 6, 7, 8, 9, 10, 11, 12, 13, 14, 15, 16, 17, 18, 19, 20, 21, 22, 23, 24, 25, 26, 27, 28, 29, 30, 31, 32, 33, 34, 35, 36, 37, 38, 39, 40, 41, 42, 43, 44, 45, 46, 47, 48, 49, 50, 51, 52, 53, 54, 55, 56, 57, 58, 59, 60, 61, 62, 63, 64, 65, 66, 67, 68, 69, 70, 71, 72, 73, 74, 75, 76, 77, 78, 79, 80, 81, 82, 83, 84, 85, 86, 87, 88, 89, 90, 91, 92, 93, 94, 95, 96, 97, 98, 99, 100, 101, 102, 103, 104, 105, 106, 107, 108, 109, 110, 111, 112, 113, 114, 115, 116, 117, 118, 119, 120, 121, 122, 123, 124, 125, 126, 127, 128, 129, 130, 131, 132, 133, 134, 135, 136, 137, 138, 139],
      "AcquisitionTime": ["175911.552500", "175913.042500", "175914.532500", "175916.022500", "175917.512500", "175919.002500", "175920.492500", "175921.982500", "175923.472500", "175924.962500", "175926.452500", "175927.942500", "175929.432500", "175930.922500", "175932.412500", "175933.902500", "175935.392500", "175936.882500", "175938.372500", "175939.862500", "175941.352500", "175942.842500", "175944.332500", "175945.822500", "175947.312500", "175948.802500", "175950.292500", "175951.782500", "175953.272500", "175954.762500", "175956.252500", "175957.742500", "175959.232500", "180000.722500", "180002.212500", "180003.702500", "180005.192500", "180006.682500", "180008.172500", "180009.662500", "180011.152500", "180012.642500", "180014.132500", "180015.622500", "180017.112500", "180018.602500", "180020.092500", "180021.582500", "180023.072500", "180024.562500", "180026.052500", "180027.542500", "180029.032500", "180030.522500", "180032.012500", "180033.502500", "180034.992500", "180036.482500", "180037.972500", "180039.462500", "180040.952500", "180042.442500", "180043.932500", "180045.422500", "180046.912500", "180048.402500", "180049.892500", "180051.382500", "180052.872500", "180054.362500", "180055.852500", "180057.342500", "180058.832500", "180100.322500", "180101.812500", "180103.302500", "180104.792500", "180106.282500", "180107.772500", "180109.262500", "180110.752500", "180112.242500", "180113.732500", "180115.222500", "180116.712500", "180118.202500", "180119.692500", "180121.182500", "180122.672500", "180124.162500", "180125.652500", "180127.142500", "180128.632500", "180130.122500", "180131.612500", "180133.102500", "180134.592500", "180136.082500", "180137.572500", "180139.062500", "180140.552500", "180142.042500", "180143.532500", "180145.022500", "180146.512500", "180148.002500", "180149.492500", "180150.982500", "180152.472500", "180153.962500", "180155.452500", "180156.942500", "180158.432500", "180159.922500", "180201.412500", "180202.902500", "180204.392500", "180205.882500", "180207.372500", "180208.862500", "180210.352500", "180211.842500", "180213.332500", "180214.822500", "180216.312500", "180217.802500", "180219.292500", "180220.782500", "180222.272500", "180223.762500", "180225.252500", "180226.742500", "180228.232500", "180229.722500", "180231.212500", "180232.702500", "180234.192500", "180235.682500", "180237.172500"],
      "ContentTime": ["180006.657000", "180007.656000", "180008.656000", "180009.656000", "180010.656000", "180011.656000", "180012.656000", "180013.656000", "180014.656000", "180015.656000", "180016.655000", "180017.655000", "180018.655000", "180019.655000", "180020.655000", "180021.656000", "180022.656000", "180023.656000", "180024.656000", "180025.656000", "180026.656000", "180027.656000", "180028.156000", "180029.656000", "180030.156000", "180031.156000", "180032.156000", "180033.156000", "180034.155000", "180035.155000", "180036.155000", "180037.155000", "180038.155000", "180039.156000", "180040.156000", "180041.156000", "180042.156000", "180043.156000", "180044.156000", "180045.156000", "180046.156000", "180047.156000", "180048.156000", "180049.156000", "180050.156000", "180051.155000", "180052.155000", "180053.155000", "180054.155000", "180055.155000", "180056.155000", "180057.156000", "180058.156000", "180058.656000", "180100.156000", "180100.656000", "180101.656000", "180102.656000", "180103.656000", "180104.656000", "180105.656000", "180106.656000", "180107.656000", "180108.655000", "180109.655000", "180110.655000", "180111.655000", "180112.655000", "180113.655000", "180114.656000", "180115.656000", "180116.656000", "180117.656000", "180118.656000", "180119.656000", "180120.656000", "180121.656000", "180122.656000", "180123.656000", "180124.656000", "180125.656000", "180126.655000", "180127.655000", "180128.655000", "180129.655000", "180130.655000", "180131.656000", "180132.656000", "180133.656000", "180134.667000", "180135.656000", "180136.656000", "180137.656000", "180138.656000", "180139.656000", "180140.656000", "180141.656000", "180142.656000", "180143.655000", "180144.655000", "180145.655000", "180146.655000", "180147.655000", "180148.656000", "180149.656000", "180150.656000", "180151.656000", "180153.156000", "180154.656000", "180156.156000", "180157.656000", "180159.156000", "180200.656000", "180202.155000", "180203.655000", "180205.155000", "180206.656000", "180208.156000", "180209.656000", "180211.156000", "180212.656000", "180214.156000", "180215.656000", "180216.656000", "180218.156000", "180219.655000", "180221.155000", "180222.655000", "180224.156000", "180225.656000", "180227.156000", "180228.656000", "180230.156000", "180231.656000", "180233.156000", "180234.656000", "180236.155000", "180237.655000", "180239.049000"],
      "InstanceCreationTime": ["180006.657000", "180007.656000", "180008.656000", "180009.656000", "180010.656000", "180011.656000", "180012.656000", "180013.656000", "180014.656000", "180015.656000", "180016.655000", "180017.655000", "180018.655000", "180019.655000", "180020.655000", "180021.656000", "180022.656000", "180023.656000", "180024.656000", "180025.656000", "180026.656000", "180027.656000", "180028.156000", "180029.656000", "180030.156000", "180031.156000", "180032.156000", "180033.156000", "180034.155000", "180035.155000", "180036.155000", "180037.155000", "180038.155000", "180039.156000", "180040.156000", "180041.156000", "180042.156000", "180043.156000", "180044.156000", "180045.156000", "180046.156000", "180047.156000", "180048.156000", "180049.156000", "180050.156000", "180051.155000", "180052.155000", "180053.155000", "180054.155000", "180055.155000", "180056.155000", "180057.156000", "180058.156000", "180058.656000", "180100.156000", "180100.656000", "180101.656000", "180102.656000", "180103.656000", "180104.656000", "180105.656000", "180106.656000", "180107.656000", "180108.655000", "180109.655000", "180110.655000", "180111.655000", "180112.655000", "180113.655000", "180114.656000", "180115.656000", "180116.656000", "180117.656000", "180118.656000", "180119.656000", "180120.656000", "180121.656000", "180122.656000", "180123.656000", "180124.656000", "180125.656000", "180126.655000", "180127.655000", "180128.655000", "180129.655000", "180130.655000", "180131.656000", "180132.656000", "180133.656000", "180134.667000", "180135.656000", "180136.656000", "180137.656000", "180138.656000", "180139.656000", "180140.656000", "180141.656000", "180142.656000", "180143.655000", "180144.655000", "180145.655000", "180146.655000", "180147.655000", "180148.656000", "180149.656000", "180150.656000", "180151.656000", "180153.156000", "180154.656000", "180156.156000", "180157.656000", "180159.156000", "180200.656000", "180202.155000", "180203.655000", "180205.155000", "180206.656000", "180208.156000", "180209.656000", "180211.156000", "180212.656000", "180214.156000", "180215.656000", "180216.656000", "180218.156000", "180219.655000", "180221.155000", "180222.655000", "180224.156000", "180225.656000", "180227.156000", "180228.656000", "180230.156000", "180231.656000", "180233.156000", "180234.656000", "180236.155000", "180237.655000", "180239.049000"],
      "InstanceNumber": [1, 2, 3, 4, 5, 6, 7, 8, 9, 10, 11, 12, 13, 14, 15, 16, 17, 18, 19, 20, 21, 22, 23, 24, 25, 26, 27, 28, 29, 30, 31, 32, 33, 34, 35, 36, 37, 38, 39, 40, 41, 42, 43, 44, 45, 46, 47, 48, 49, 50, 51, 52, 53, 54, 55, 56, 57, 58, 59, 60, 61, 62, 63, 64, 65, 66, 67, 68, 69, 70, 71, 72, 73, 74, 75, 76, 77, 78, 79, 80, 81, 82, 83, 84, 85, 86, 87, 88, 89, 90, 91, 92, 93, 94, 95, 96, 97, 98, 99, 100, 101, 102, 103, 104, 105, 106, 107, 108, 109, 110, 111, 112, 113, 114, 115, 116, 117, 118, 119, 120, 121, 122, 123, 124, 125, 126, 127, 128, 129, 130, 131, 132, 133, 134, 135, 136, 137, 138, 139],
      "LargestImagePixelValue": [56811, 58129, 55362, 54536, 54365, 53351, 53803, 53365, 53323, 53210, 52710, 52812, 52979, 52671, 53138, 52764, 52365, 53028, 52573, 52847, 52704, 52428, 53094, 52953, 52757, 53339, 52900, 52857, 53044, 52955, 53616, 52890, 53181, 53274, 53020, 53036, 52848, 53011, 53586, 53052, 53441, 53253, 53319, 53519, 53523, 52906, 52907, 52997, 53769, 53611, 53555, 53315, 53197, 53330, 52708, 52946, 53081, 53009, 52473, 52348, 51859, 51897, 52720, 52456, 52245, 52540, 52370, 52074, 52342, 52126, 52716, 51760, 52365, 51744, 52150, 51947, 51709, 52182, 51938, 52503, 52453, 52838, 52596, 52524, 52517, 52568, 53090, 53054, 52755, 52793, 52379, 52538, 52171, 52193, 52052, 52439, 51878, 51869, 52083, 51676, 51816, 52234, 52539, 51963, 52188, 52166, 52266, 53440, 52788, 53063, 52584, 52477, 52529, 52152, 52153, 51788, 52397, 51834, 52000, 51816, 51887, 52094, 51971, 52149, 51720, 51975, 51903, 51867, 51818, 51972, 52755, 52273, 52159, 53283, 53443, 53734, 53841, 53040, 53344],
      "WindowCenter": [10359.0, 10331.0, 10283.0, 10246.0, 10217.0, 10186.0, 10181.0, 10189.0, 10224.0, 10247.0, 10255.0, 10258.0, 10264.0, 10274.0, 10292.0, 10292.0, 10296.0, 10310.0, 10311.0, 10303.0, 10293.0, 10286.0, 10291.0, 10294.0, 10294.0, 10299.0, 10301.0, 10302.0, 10302.0, 10288.0, 10284.0, 10268.0, 10263.0, 10264.0, 10264.0, 10254.0, 10255.0, 10269.0, 10280.0, 10281.0, 10279.0, 10273.0, 10277.0, 10276.0, 10278.0, 10279.0, 10280.0, 10284.0, 10302.0, 10298.0, 10273.0, 10255.0, 10237.0, 10239.0, 10227.0, 10225.0, 10233.0, 10243.0, 10246.0, 10257.0, 10261.0, 10261.0, 10267.0, 10267.0, 10277.0, 10276.0, 10271.0, 10270.0, 10257.0, 10251.0, 10263.0, 10269.0, 10267.0, 10246.0, 10233.0, 10216.0, 10206.0, 10212.0, 10209.0, 10214.0, 10215.0, 10212.0, 10228.0, 10263.0, 10269.0, 10267.0, 10254.0, 10244.0, 10237.0, 10254.0, 10263.0, 10276.0, 10266.0, 10262.0, 10246.0, 10231.0, 10223.0, 10224.0, 10228.0, 10217.0, 10185.0, 10171.0, 10177.0, 10181.0, 10204.0, 10226.0, 10252.0, 10254.0, 10251.0, 10260.0, 10278.0, 10281.0, 10288.0, 10282.0, 10274.0, 10260.0, 10254.0, 10238.0, 10222.0, 10215.0, 10206.0, 10203.0, 10195.0, 10202.0, 10204.0, 10205.0, 10210.0, 10212.0, 10213.0, 10200.0, 10227.0, 10231.0, 10262.0, 10300.0, 10353.0, 10338.0, 10327.0, 10319.0, 10309.0],
      "WindowWidth": [22347.0, 22255.0, 22116.0, 22015.0, 21950.0, 21864.0, 21850.0, 21868.0, 21945.0, 22002.0, 22021.0, 22029.0, 22042.0, 22062.0, 22105.0, 22107.0, 22115.0, 22145.0, 22151.0, 22131.0, 22107.0, 22092.0, 22101.0, 22113.0, 22112.0, 22119.0, 22126.0, 22128.0, 22127.0, 22099.0, 22089.0, 22054.0, 22038.0, 22040.0, 22039.0, 22015.0, 22016.0, 22049.0, 22075.0, 22080.0, 22068.0, 22058.0, 22063.0, 22062.0, 22070.0, 22074.0, 22075.0, 22085.0, 22117.0, 22115.0, 22056.0, 22013.0, 21977.0, 21979.0, 21956.0, 21950.0, 21966.0, 21991.0, 22001.0, 22027.0, 22038.0, 22041.0, 22051.0, 22052.0, 22089.0, 22068.0, 22059.0, 22053.0, 22024.0, 22013.0, 22033.0, 22049.0, 22042.0, 22000.0, 21971.0, 21930.0, 21910.0, 21923.0, 21918.0, 21927.0, 21931.0, 21919.0, 21955.0, 22038.0, 22054.0, 22044.0, 22014.0, 21987.0, 21976.0, 22011.0, 22032.0, 22061.0, 22046.0, 22035.0, 22002.0, 21962.0, 21943.0, 21948.0, 21963.0, 21937.0, 21862.0, 21830.0, 21841.0, 21859.0, 21906.0, 21959.0, 22017.0, 22018.0, 22011.0, 22032.0, 22074.0, 22081.0, 22095.0, 22082.0, 22065.0, 22037.0, 22018.0, 21982.0, 21949.0, 21937.0, 21912.0, 21904.0, 21884.0, 21898.0, 21907.0, 21911.0, 21918.0, 21923.0, 21928.0, 21893.0, 21957.0, 21969.0, 22033.0, 22129.0, 22265.0, 22227.0, 22193.0, 22175.0, 22149.0]
    },
    "slices": {}
  }
}