{
  "AcquisitionMatrixPE": 104,
  "AcquisitionNumber": 1,
  "AcquisitionTime": "17:50:9.225000",
  "BandwidthPerPixelPhaseEncode": 17.17,
  "BaseResolution": 104,
  "BodyPartExamined": "BRAIN",
  "CoilString": "HC1-7;NC1_2",
  "ConsistencyInfo": "N4_VE11C_LATEST_20160120",
  "ConversionSoftware": "dcm2niix",
  "ConversionSoftwareVersion": "v1.0.20190720  (JP2:OpenJPEG) GCC7.3.0",
  "DerivedVendorReportedEchoSpacing": 0.000560011,
  "DeviceSerialNumber": "167006",
  "DwellTime": 2.1e-06,
  "EchoTime": 0.037,
  "EchoTrainLength": 104,
  "EffectiveEchoSpacing": 0.000560011,
  "FlipAngle": 52,
  "ImageComments": "Unaliased_MB4_PE3_LB",
  "ImageOrientationPatientDICOM": [0.999399, -0.0311999, -0.0151239, 0.022854, 0.920802, -0.389361],
  "ImageType": [
    "ORIGINAL",
    "PRIMARY",
    "M",
    "MB",
    "ND",
    "MOSAIC"
],
  "ImagingFrequency": 123.259,
  "InPlanePhaseEncodingDirectionDICOM": "COL",
  "InstitutionAddress": "Chemin_Queen-Mary_4565_Montreal_District_CA_H3W_1W5",
  "InstitutionName": "IUGM",
  "InstitutionalDepartmentName": "Department",
  "MRAcquisitionType": "2D",
  "MagneticFieldStrength": 3,
  "Manufacturer": "Siemens",
  "ManufacturersModelName": "Prisma_fit",
  "Modality": "MR",
  "MultibandAccelerationFactor": 4,
  "PartialFourier": 1,
  "PatientPosition": "HFS",
  "PercentPhaseFOV": 100,
  "PhaseEncodingDirection": "j",
  "PhaseEncodingSteps": 104,
  "PhaseResolution": 1,
  "PixelBandwidth": 2290,
  "ProcedureStepDescription": "hcptrt_generic",
  "ProtocolName": "func_task-language_run-1",
  "PulseSequenceDetails": "%CustomerSeq%_cmrr_mbep2d_bold",
  "ReceiveCoilActiveElements": "HC1-7;NC1,2",
  "ReceiveCoilName": "HeadNeck_64",
  "ReconMatrixPE": 104,
  "RepetitionTime": 1.49,
  "SAR": 0.0344951,
  "ScanOptions": "FS",
  "ScanningSequence": "EP",
  "SequenceName": "epfid2d1_104",
  "SequenceVariant": "SK_SS",
  "SeriesDescription": "func_task-language_run-1",
  "SeriesNumber": 13,
  "ShimSetting": [614, -7256, -8847, 398, 27, -345, 11, 28],
  "SliceThickness": 2,
  "SliceTiming": [0, 0.785, 0.1, 0.8825, 0.1975, 0.98, 0.295, 1.0775, 0.3925, 1.1775, 0.49, 1.275, 0.59, 1.3725, 0.6875, 0, 0.785, 0.1, 0.8825, 0.1975, 0.98, 0.295, 1.0775, 0.3925, 1.1775, 0.49, 1.275, 0.59, 1.3725, 0.6875, 0, 0.785, 0.1, 0.8825, 0.1975, 0.98, 0.295, 1.0775, 0.3925, 1.1775, 0.49, 1.275, 0.59, 1.3725, 0.6875, 0, 0.785, 0.1, 0.8825, 0.1975, 0.98, 0.295, 1.0775, 0.3925, 1.1775, 0.49, 1.275, 0.59, 1.3725, 0.6875],
  "SoftwareVersions": "syngo_MR_E11",
  "SpacingBetweenSlices": 2,
  "StationName": "MRC35049",
  "TaskName": "language",
  "TotalReadoutTime": 0.0576811,
  "TxRefAmp": 236.209,
  "WipMemBlock": "255eb711-ecce-4db8-8e9b-69fe522fd6e5||Sequence: R016 ve11c/master r/e634e98; Dec 19 2017 11:00:25 by eja",
  "dcmmeta_affine": [
    [-1.9987974166870117, 0.045708075165748596, -0.052148353308439255, 103.32699584960938],
    [0.06239989772439003, 1.84160315990448, -0.7775627970695496, -63.5421142578125],
    [-0.03024783544242382, 0.7787222862243652, 1.8419220447540283, -66.52650451660156],
    [0.0, 0.0, 0.0, 1.0]
],
  "dcmmeta_reorient_transform": [
    [0.0, -1.0, 0.0, 103.0],
    [1.0, 0.0, 0.0, 0.0],
    [0.0, 0.0, 1.0, 0.0],
    [0.0, 0.0, 0.0, 1.0]
],
  "dcmmeta_shape": [104, 104, 60, 159],
  "dcmmeta_slice_dim": 2,
  "dcmmeta_version": 0.6,
  "global": {
    "const": {
      "AcquisitionMatrix": [104, 0, 0, 104],
      "AngioFlag": "N",
      "BitsAllocated": 16,
      "BitsStored": 16,
      "BodyPartExamined": "BRAIN",
      "Columns": 832,
      "EchoNumbers": 1,
      "EchoTime": 37.0,
      "EchoTrainLength": 104,
      "FlipAngle": 52.0,
      "HighBit": 15,
      "ImageOrientationPatient": [0.99939873438602, -0.0311999489634, -0.0151239178889, 0.02285403820546, 0.92080160027832, -0.3893611509416],
      "ImagePositionPatient": [-852.23494507126, -773.77301694818, 308.14702526509],
      "ImageType": [
        "ORIGINAL",
        "PRIMARY",
        "M",
        "MB",
        "ND",
        "MOSAIC"
],
      "ImagedNucleus": "1H",
      "ImagingFrequency": 123.259236,
      "InPlanePhaseEncodingDirection": "COL",
      "MRAcquisitionType": "2D",
      "MagneticFieldStrength": 3.0,
      "Manufacturer": "SIEMENS",
      "ManufacturerModelName": "Prisma_fit",
      "Modality": "MR",
      "NumberOfAverages": 1.0,
      "NumberOfPhaseEncodingSteps": 104,
      "PercentPhaseFieldOfView": 100.0,
      "PercentSampling": 100.0,
      "PerformedProcedureStepStartTime": "171513.964000",
      "PhotometricInterpretation": "MONOCHROME2",
      "PixelBandwidth": 2290.0,
      "PixelRepresentation": 0,
      "PixelSpacing": [2.0, 2.0],
      "ProtocolName": "func_task-language_run-1",
      "RepetitionTime": 1490.0,
      "Rows": 832,
      "SAR": 0.03449506888027,
      "SamplesPerPixel": 1,
      "ScanOptions": "FS",
      "ScanningSequence": "EP",
      "SequenceName": "epfid2d1_104",
      "SequenceVariant": [
        "SK",
        "SS"
],
      "SeriesDescription": "func_task-language_run-1",
      "SeriesNumber": 13,
      "SeriesTime": "175103.626000",
      "SliceLocation": -39.258487593062,
      "SliceThickness": 2.0,
      "SmallestImagePixelValue": 0,
      "SoftwareVersions": "syngo MR E11",
      "SpacingBetweenSlices": 2.0000000426937,
      "SpecificCharacterSet": "ISO_IR 100",
      "StudyID": "1",
      "StudyTime": "171513.909000",
      "TransmitCoilName": "Body",
      "VariableFlipAngleFlag": "N",
      "WindowCenterWidthExplanation": "Algo1",
      "dBdt": 0.0},
    "slices": {}
  },
  "time": {
    "samples": {
      "AcquisitionNumber": [1, 2, 3, 4, 5, 6, 7, 8, 9, 10, 11, 12, 13, 14, 15, 16, 17, 18, 19, 20, 21, 22, 23, 24, 25, 26, 27, 28, 29, 30, 31, 32, 33, 34, 35, 36, 37, 38, 39, 40, 41, 42, 43, 44, 45, 46, 47, 48, 49, 50, 51, 52, 53, 54, 55, 56, 57, 58, 59, 60, 61, 62, 63, 64, 65, 66, 67, 68, 69, 70, 71, 72, 73, 74, 75, 76, 77, 78, 79, 80, 81, 82, 83, 84, 85, 86, 87, 88, 89, 90, 91, 92, 93, 94, 95, 96, 97, 98, 99, 100, 101, 102, 103, 104, 105, 106, 107, 108, 109, 110, 111, 112, 113, 114, 115, 116, 117, 118, 119, 120, 121, 122, 123, 124, 125, 126, 127, 128, 129, 130, 131, 132, 133, 134, 135, 136, 137, 138, 139, 140, 141, 142, 143, 144, 145, 146, 147, 148, 149, 150, 151, 152, 153, 154, 155, 156, 157, 158, 159],
      "AcquisitionTime": ["175009.225000", "175010.715000", "175012.205000", "175013.695000", "175015.185000", "175016.675000", "175018.165000", "175019.655000", "175021.145000", "175022.635000", "175024.125000", "175025.615000", "175027.105000", "175028.595000", "175030.085000", "175031.575000", "175033.065000", "175034.555000", "175036.045000", "175037.535000", "175039.025000", "175040.515000", "175042.005000", "175043.495000", "175044.985000", "175046.475000", "175047.965000", "175049.455000", "175050.945000", "175052.435000", "175053.925000", "175055.415000", "175056.905000", "175058.395000", "175059.885000", "175101.375000", "175102.865000", "175104.355000", "175105.845000", "175107.335000", "175108.825000", "175110.315000", "175111.805000", "175113.295000", "175114.785000", "175116.275000", "175117.765000", "175119.255000", "175120.745000", "175122.235000", "175123.725000", "175125.215000", "175126.705000", "175128.195000", "175129.685000", "175131.175000", "175132.665000", "175134.155000", "175135.645000", "175137.135000", "175138.625000", "175140.115000", "175141.605000", "175143.095000", "175144.585000", "175146.075000", "175147.565000", "175149.055000", "175150.545000", "175152.035000", "175153.525000", "175155.015000", "175156.505000", "175157.995000", "175159.485000", "175200.975000", "175202.465000", "175203.955000", "175205.445000", "175206.935000", "175208.425000", "175209.915000", "175211.405000", "175212.895000", "175214.385000", "175215.875000", "175217.365000", "175218.855000", "175220.345000", "175221.835000", "175223.325000", "175224.815000", "175226.305000", "175227.795000", "175229.285000", "175230.775000", "175232.265000", "175233.755000", "175235.245000", "175236.735000", "175238.225000", "175239.715000", "175241.205000", "175242.695000", "175244.185000", "175245.675000", "175247.165000", "175248.655000", "175250.145000", "175251.635000", "175253.125000", "175254.615000", "175256.105000", "175257.595000", "175259.085000", "175300.575000", "175302.065000", "175303.555000", "175305.045000", "175306.535000", "175308.025000", "175309.515000", "175311.005000", "175312.495000", "175313.985000", "175315.475000", "175316.965000", "175318.455000", "175319.945000", "175321.435000", "175322.925000", "175324.415000", "175325.905000", "175327.395000", "175328.885000", "175330.375000", "175331.865000", "175333.355000", "175334.845000", "175336.335000", "175337.825000", "175339.315000", "175340.805000", "175342.295000", "175343.785000", "175345.275000", "175346.765000", "175348.255000", "175349.745000", "175351.235000", "175352.725000", "175354.215000", "175355.705000", "175357.195000", "175358.685000", "175400.175000", "175401.665000", "175403.155000", "175404.645000"],
      "ContentTime": ["175103.629000", "175104.627000", "175105.627000", "175106.626000", "175107.626000", "175108.626000", "175109.626000", "175110.626000", "175111.626000", "175112.626000", "175113.626000", "175114.626000", "175115.626000", "175116.626000", "175117.626000", "175118.626000", "175119.627000", "175120.627000", "175121.627000", "175122.627000", "175123.627000", "175124.626000", "175125.626000", "175126.626000", "175127.626000", "175128.626000", "175129.626000", "175130.626000", "175131.626000", "175132.626000", "175133.126000", "175134.626000", "175135.126000", "175136.126000", "175137.127000", "175138.127000", "175139.127000", "175140.127000", "175141.127000", "175142.126000", "175143.126000", "175144.126000", "175145.126000", "175146.126000", "175147.126000", "175148.126000", "175149.126000", "175150.126000", "175151.126000", "175152.126000", "175153.126000", "175154.126000", "175155.127000", "175156.127000", "175157.127000", "175158.127000", "175159.126000", "175200.126000", "175201.126000", "175202.126000", "175203.126000", "175204.126000", "175205.126000", "175206.126000", "175207.126000", "175208.126000", "175209.126000", "175210.126000", "175211.126000", "175212.127000", "175213.127000", "175214.127000", "175215.127000", "175216.127000", "175217.126000", "175218.126000", "175219.126000", "175220.126000", "175221.126000", "175221.626000", "175222.626000", "175223.626000", "175224.626000", "175225.626000", "175226.626000", "175227.626000", "175228.626000", "175229.627000", "175230.627000", "175231.627000", "175232.627000", "175233.627000", "175234.626000", "175235.626000", "175236.626000", "175237.626000", "175238.626000", "175239.626000", "175240.626000", "175241.626000", "175242.626000", "175243.626000", "175244.626000", "175245.626000", "175246.626000", "175248.127000", "175249.627000", "175251.127000", "175252.626000", "175254.126000", "175255.626000", "175257.126000", "175258.626000", "175300.126000", "175301.626000", "175303.126000", "175304.627000", "175306.127000", "175307.627000", "175309.126000", "175310.626000", "175312.126000", "175313.626000", "175315.126000", "175316.626000", "175318.126000", "175319.626000", "175321.126000", "175322.627000", "175324.127000", "175325.627000", "175327.126000", "175328.626000", "175330.126000", "175331.626000", "175333.126000", "175334.626000", "175336.126000", "175337.626000", "175339.127000", "175340.627000", "175342.127000", "175343.627000", "175344.626000", "175346.126000", "175347.626000", "175349.126000", "175350.626000", "175352.126000", "175353.626000", "175355.126000", "175356.627000", "175358.127000", "175359.627000", "175401.127000", "175402.626000", "175404.126000", "175405.626000", "175407.018000"],
      "InstanceCreationTime": ["175103.629000", "175104.627000", "175105.627000", "175106.626000", "175107.626000", "175108.626000", "175109.626000", "175110.626000", "175111.626000", "175112.626000", "175113.626000", "175114.626000", "175115.626000", "175116.626000", "175117.626000", "175118.626000", "175119.627000", "175120.627000", "175121.627000", "175122.627000", "175123.627000", "175124.626000", "175125.626000", "175126.626000", "175127.626000", "175128.626000", "175129.626000", "175130.626000", "175131.626000", "175132.626000", "175133.126000", "175134.626000", "175135.126000", "175136.126000", "175137.127000", "175138.127000", "175139.127000", "175140.127000", "175141.127000", "175142.126000", "175143.126000", "175144.126000", "175145.126000", "175146.126000", "175147.126000", "175148.126000", "175149.126000", "175150.126000", "175151.126000", "175152.126000", "175153.126000", "175154.126000", "175155.127000", "175156.127000", "175157.127000", "175158.127000", "175159.126000", "175200.126000", "175201.126000", "175202.126000", "175203.126000", "175204.126000", "175205.126000", "175206.126000", "175207.126000", "175208.126000", "175209.126000", "175210.126000", "175211.126000", "175212.127000", "175213.127000", "175214.127000", "175215.127000", "175216.127000", "175217.126000", "175218.126000", "175219.126000", "175220.126000", "175221.126000", "175221.626000", "175222.626000", "175223.626000", "175224.626000", "175225.626000", "175226.626000", "175227.626000", "175228.626000", "175229.627000", "175230.627000", "175231.627000", "175232.627000", "175233.627000", "175234.626000", "175235.626000", "175236.626000", "175237.626000", "175238.626000", "175239.626000", "175240.626000", "175241.626000", "175242.626000", "175243.626000", "175244.626000", "175245.626000", "175246.626000", "175248.127000", "175249.627000", "175251.127000", "175252.626000", "175254.126000", "175255.626000", "175257.126000", "175258.626000", "175300.126000", "175301.626000", "175303.126000", "175304.627000", "175306.127000", "175307.627000", "175309.126000", "175310.626000", "175312.126000", "175313.626000", "175315.126000", "175316.626000", "175318.126000", "175319.626000", "175321.126000", "175322.627000", "175324.127000", "175325.627000", "175327.126000", "175328.626000", "175330.126000", "175331.626000", "175333.126000", "175334.626000", "175336.126000", "175337.626000", "175339.127000", "175340.627000", "175342.127000", "175343.627000", "175344.626000", "175346.126000", "175347.626000", "175349.126000", "175350.626000", "175352.126000", "175353.626000", "175355.126000", "175356.627000", "175358.127000", "175359.627000", "175401.127000", "175402.626000", "175404.126000", "175405.626000", "175407.018000"],
      "InstanceNumber": [1, 2, 3, 4, 5, 6, 7, 8, 9, 10, 11, 12, 13, 14, 15, 16, 17, 18, 19, 20, 21, 22, 23, 24, 25, 26, 27, 28, 29, 30, 31, 32, 33, 34, 35, 36, 37, 38, 39, 40, 41, 42, 43, 44, 45, 46, 47, 48, 49, 50, 51, 52, 53, 54, 55, 56, 57, 58, 59, 60, 61, 62, 63, 64, 65, 66, 67, 68, 69, 70, 71, 72, 73, 74, 75, 76, 77, 78, 79, 80, 81, 82, 83, 84, 85, 86, 87, 88, 89, 90, 91, 92, 93, 94, 95, 96, 97, 98, 99, 100, 101, 102, 103, 104, 105, 106, 107, 108, 109, 110, 111, 112, 113, 114, 115, 116, 117, 118, 119, 120, 121, 122, 123, 124, 125, 126, 127, 128, 129, 130, 131, 132, 133, 134, 135, 136, 137, 138, 139, 140, 141, 142, 143, 144, 145, 146, 147, 148, 149, 150, 151, 152, 153, 154, 155, 156, 157, 158, 159],
      "LargestImagePixelValue": [58950, 57632, 56305, 56760, 55164, 55078, 55212, 54741, 54405, 54255, 53944, 54017, 54143, 53896, 55266, 56057, 55282, 54712, 54956, 55050, 54794, 54809, 54884, 54871, 55457, 54669, 55383, 55531, 55105, 55257, 54408, 55586, 54439, 55390, 54673, 54681, 54817, 54973, 55384, 54526, 54671, 54826, 54938, 54389, 54089, 54715, 54367, 55275, 55141, 54472, 54709, 54200, 54249, 54347, 54489, 54417, 54957, 54445, 54543, 55034, 54162, 54429, 54138, 54165, 54349, 54204, 53687, 54377, 53745, 54212, 53729, 54838, 54135, 53881, 54086, 54294, 53948, 54203, 53310, 54105, 53705, 53796, 53999, 53395, 53466, 53437, 53500, 53654, 53266, 53722, 53547, 53625, 53659, 53922, 53696, 53028, 54153, 53520, 54525, 53399, 54077, 53801, 54013, 54147, 54523, 53945, 54089, 53933, 54085, 53942, 54235, 54239, 53934, 53863, 53903, 54458, 54268, 53616, 54516, 53588, 53777, 54104, 53647, 53769, 53336, 54038, 53857, 54516, 54010, 53969, 54504, 53958, 53728, 53487, 53864, 53371, 53488, 53356, 53966, 53865, 53540, 53579, 53716, 53576, 53963, 53720, 54172, 53882, 54002, 54084, 53753, 53942, 53788, 54006, 53876, 53813, 53920, 53847, 53571],
      "WindowCenter": [10453.0, 10405.0, 10380.0, 10381.0, 10358.0, 10342.0, 10331.0, 10315.0, 10309.0, 10315.0, 10315.0, 10322.0, 10324.0, 10327.0, 10356.0, 10372.0, 10379.0, 10371.0, 10362.0, 10345.0, 10329.0, 10327.0, 10334.0, 10342.0, 10351.0, 10344.0, 10343.0, 10342.0, 10342.0, 10333.0, 10327.0, 10357.0, 10361.0, 10368.0, 10354.0, 10346.0, 10335.0, 10331.0, 10331.0, 10333.0, 10336.0, 10335.0, 10325.0, 10317.0, 10325.0, 10353.0, 10348.0, 10348.0, 10340.0, 10337.0, 10357.0, 10367.0, 10376.0, 10361.0, 10345.0, 10327.0, 10321.0, 10315.0, 10305.0, 10306.0, 10322.0, 10335.0, 10329.0, 10312.0, 10298.0, 10289.0, 10289.0, 10304.0, 10315.0, 10333.0, 10336.0, 10341.0, 10318.0, 10309.0, 10309.0, 10316.0, 10315.0, 10308.0, 10294.0, 10299.0, 10298.0, 10301.0, 10306.0, 10309.0, 10317.0, 10310.0, 10299.0, 10291.0, 10292.0, 10299.0, 10292.0, 10298.0, 10313.0, 10331.0, 10357.0, 10349.0, 10353.0, 10337.0, 10340.0, 10326.0, 10332.0, 10325.0, 10317.0, 10308.0, 10301.0, 10291.0, 10275.0, 10256.0, 10247.0, 10246.0, 10261.0, 10273.0, 10294.0, 10309.0, 10327.0, 10340.0, 10332.0, 10319.0, 10340.0, 10343.0, 10342.0, 10344.0, 10329.0, 10318.0, 10317.0, 10340.0, 10350.0, 10340.0, 10310.0, 10293.0, 10291.0, 10298.0, 10299.0, 10293.0, 10290.0, 10275.0, 10274.0, 10283.0, 10291.0, 10299.0, 10293.0, 10292.0, 10287.0, 10292.0, 10304.0, 10301.0, 10298.0, 10291.0, 10289.0, 10290.0, 10292.0, 10305.0, 10301.0, 10307.0, 10301.0, 10293.0, 10289.0, 10289.0, 10300.0],
      "WindowWidth": [22565.0, 22425.0, 22352.0, 22338.0, 22281.0, 22239.0, 22209.0, 22173.0, 22162.0, 22172.0, 22174.0, 22187.0, 22194.0, 22204.0, 22272.0, 22308.0, 22323.0, 22306.0, 22280.0, 22242.0, 22204.0, 22200.0, 22219.0, 22235.0, 22256.0, 22242.0, 22236.0, 22233.0, 22234.0, 22214.0, 22200.0, 22265.0, 22279.0, 22290.0, 22263.0, 22242.0, 22217.0, 22206.0, 22204.0, 22212.0, 22218.0, 22219.0, 22193.0, 22180.0, 22197.0, 22256.0, 22247.0, 22245.0, 22227.0, 22219.0, 22265.0, 22291.0, 22310.0, 22280.0, 22241.0, 22201.0, 22183.0, 22170.0, 22147.0, 22150.0, 22185.0, 22217.0, 22204.0, 22166.0, 22131.0, 22115.0, 22114.0, 22146.0, 22176.0, 22213.0, 22220.0, 22227.0, 22175.0, 22153.0, 22157.0, 22173.0, 22172.0, 22154.0, 22126.0, 22136.0, 22135.0, 22140.0, 22152.0, 22159.0, 22176.0, 22161.0, 22131.0, 22112.0, 22116.0, 22132.0, 22118.0, 22129.0, 22162.0, 22205.0, 22265.0, 22252.0, 22257.0, 22223.0, 22224.0, 22196.0, 22204.0, 22190.0, 22172.0, 22150.0, 22140.0, 22115.0, 22078.0, 22036.0, 22016.0, 22016.0, 22044.0, 22075.0, 22118.0, 22154.0, 22197.0, 22223.0, 22204.0, 22178.0, 22225.0, 22235.0, 22228.0, 22234.0, 22201.0, 22173.0, 22171.0, 22220.0, 22247.0, 22219.0, 22156.0, 22113.0, 22113.0, 22126.0, 22127.0, 22113.0, 22106.0, 22073.0, 22073.0, 22095.0, 22112.0, 22128.0, 22119.0, 22114.0, 22104.0, 22112.0, 22136.0, 22130.0, 22121.0, 22104.0, 22102.0, 22107.0, 22111.0, 22138.0, 22133.0, 22144.0, 22132.0, 22115.0, 22103.0, 22104.0, 22130.0]
    },
    "slices": {}
  }
}