{
  "AcquisitionMatrixPE": 104,
  "AcquisitionNumber": 1,
  "AcquisitionTime": "18:18:50.665000",
  "BandwidthPerPixelPhaseEncode": 17.17,
  "BaseResolution": 104,
  "BodyPartExamined": "BRAIN",
  "CoilString": "HC1-7;NC1_2",
  "ConsistencyInfo": "N4_VE11C_LATEST_20160120",
  "ConversionSoftware": "dcm2niix",
  "ConversionSoftwareVersion": "v1.0.20190720  (JP2:OpenJPEG) GCC7.3.0",
  "DerivedVendorReportedEchoSpacing": 0.000560011,
  "DeviceSerialNumber": "167006",
  "DwellTime": 2.1e-06,
  "EchoTime": 0.037,
  "EchoTrainLength": 104,
  "EffectiveEchoSpacing": 0.000560011,
  "FlipAngle": 52,
  "ImageComments": "Unaliased_MB4_PE3_LB",
  "ImageOrientationPatientDICOM": [0.999399, -0.0311999, -0.0151239, 0.022854, 0.920802, -0.389361],
  "ImageType": [
    "ORIGINAL",
    "PRIMARY",
    "M",
    "MB",
    "ND",
    "MOSAIC"
],
  "ImagingFrequency": 123.259,
  "InPlanePhaseEncodingDirectionDICOM": "COL",
  "InstitutionAddress": "Chemin_Queen-Mary_4565_Montreal_District_CA_H3W_1W5",
  "InstitutionName": "IUGM",
  "InstitutionalDepartmentName": "Department",
  "MRAcquisitionType": "2D",
  "MagneticFieldStrength": 3,
  "Manufacturer": "Siemens",
  "ManufacturersModelName": "Prisma_fit",
  "Modality": "MR",
  "MultibandAccelerationFactor": 4,
  "PartialFourier": 1,
  "PatientPosition": "HFS",
  "PercentPhaseFOV": 100,
  "PhaseEncodingDirection": "j",
  "PhaseEncodingSteps": 104,
  "PhaseResolution": 1,
  "PixelBandwidth": 2290,
  "ProcedureStepDescription": "hcptrt_generic",
  "ProtocolName": "func_task-social_run-2",
  "PulseSequenceDetails": "%CustomerSeq%_cmrr_mbep2d_bold",
  "ReceiveCoilActiveElements": "HC1-7;NC1,2",
  "ReceiveCoilName": "HeadNeck_64",
  "ReconMatrixPE": 104,
  "RepetitionTime": 1.49,
  "SAR": 0.0344367,
  "ScanOptions": "FS",
  "ScanningSequence": "EP",
  "SequenceName": "epfid2d1_104",
  "SequenceVariant": "SK_SS",
  "SeriesDescription": "func_task-social_run-2",
  "SeriesNumber": 27,
  "ShimSetting": [614, -7256, -8847, 398, 27, -345, 11, 28],
  "SliceThickness": 2,
  "SliceTiming": [0, 0.785, 0.0975, 0.8825, 0.1975, 0.98, 0.295, 1.0775, 0.3925, 1.1775, 0.49, 1.275, 0.5875, 1.3725, 0.6875, 0, 0.785, 0.0975, 0.8825, 0.1975, 0.98, 0.295, 1.0775, 0.3925, 1.1775, 0.49, 1.275, 0.5875, 1.3725, 0.6875, 0, 0.785, 0.0975, 0.8825, 0.1975, 0.98, 0.295, 1.0775, 0.3925, 1.1775, 0.49, 1.275, 0.5875, 1.3725, 0.6875, 0, 0.785, 0.0975, 0.8825, 0.1975, 0.98, 0.295, 1.0775, 0.3925, 1.1775, 0.49, 1.275, 0.5875, 1.3725, 0.6875],
  "SoftwareVersions": "syngo_MR_E11",
  "SpacingBetweenSlices": 2,
  "StationName": "MRC35049",
  "TaskName": "social",
  "TotalReadoutTime": 0.0576811,
  "TxRefAmp": 236.209,
  "WipMemBlock": "d85ffa03-185c-43f5-bf10-8e28d619ec53||Sequence: R016 ve11c/master r/e634e98; Dec 19 2017 11:00:25 by eja",
  "dcmmeta_affine": [
    [-1.9987974166870117, 0.045708075165748596, -0.052148353308439255, 103.32699584960938],
    [0.06239989772439003, 1.84160315990448, -0.7775627970695496, -63.5421142578125],
    [-0.03024783544242382, 0.7787222862243652, 1.8419220447540283, -66.52650451660156],
    [0.0, 0.0, 0.0, 1.0]
],
  "dcmmeta_reorient_transform": [
    [0.0, -1.0, 0.0, 103.0],
    [1.0, 0.0, 0.0, 0.0],
    [0.0, 0.0, 1.0, 0.0],
    [0.0, 0.0, 0.0, 1.0]
],
  "dcmmeta_shape": [104, 104, 60, 139],
  "dcmmeta_slice_dim": 2,
  "dcmmeta_version": 0.6,
  "global": {
    "const": {
      "AcquisitionMatrix": [104, 0, 0, 104],
      "AngioFlag": "N",
      "BitsAllocated": 16,
      "BitsStored": 16,
      "BodyPartExamined": "BRAIN",
      "Columns": 832,
      "EchoNumbers": 1,
      "EchoTime": 37.0,
      "EchoTrainLength": 104,
      "FlipAngle": 52.0,
      "HighBit": 15,
      "ImageOrientationPatient": [0.99939873438602, -0.0311999489634, -0.0151239178889, 0.02285403820546, 0.92080160027832, -0.3893611509416],
      "ImagePositionPatient": [-852.23494507126, -773.77301694818, 308.14702526509],
      "ImageType": [
        "ORIGINAL",
        "PRIMARY",
        "M",
        "MB",
        "ND",
        "MOSAIC"
],
      "ImagedNucleus": "1H",
      "ImagingFrequency": 123.259243,
      "InPlanePhaseEncodingDirection": "COL",
      "MRAcquisitionType": "2D",
      "MagneticFieldStrength": 3.0,
      "Manufacturer": "SIEMENS",
      "ManufacturerModelName": "Prisma_fit",
      "Modality": "MR",
      "NumberOfAverages": 1.0,
      "NumberOfPhaseEncodingSteps": 104,
      "PercentPhaseFieldOfView": 100.0,
      "PercentSampling": 100.0,
      "PerformedProcedureStepStartTime": "171513.964000",
      "PhotometricInterpretation": "MONOCHROME2",
      "PixelBandwidth": 2290.0,
      "PixelRepresentation": 0,
      "PixelSpacing": [2.0, 2.0],
      "ProtocolName": "func_task-social_run-2",
      "RepetitionTime": 1490.0,
      "Rows": 832,
      "SAR": 0.03443667925718,
      "SamplesPerPixel": 1,
      "ScanOptions": "FS",
      "ScanningSequence": "EP",
      "SequenceName": "epfid2d1_104",
      "SequenceVariant": [
        "SK",
        "SS"
],
      "SeriesDescription": "func_task-social_run-2",
      "SeriesNumber": 27,
      "SeriesTime": "181945.932000",
      "SliceLocation": -39.258487593062,
      "SliceThickness": 2.0,
      "SmallestImagePixelValue": 0,
      "SoftwareVersions": "syngo MR E11",
      "SpacingBetweenSlices": 2.0000000426937,
      "SpecificCharacterSet": "ISO_IR 100",
      "StudyID": "1",
      "StudyTime": "171513.909000",
      "TransmitCoilName": "Body",
      "VariableFlipAngleFlag": "N",
      "WindowCenterWidthExplanation": "Algo1",
      "dBdt": 0.0},
    "slices": {}
  },
  "time": {
    "samples": {
      "AcquisitionNumber": [1, 2, 3, 4, 5, 6, 7, 8, 9, 10, 11, 12, 13, 14, 15, 16, 17, 18, 19, 20, 21, 22, 23, 24, 25, 26, 27, 28, 29, 30, 31, 32, 33, 34, 35, 36, 37, 38, 39, 40, 41, 42, 43, 44, 45, 46, 47, 48, 49, 50, 51, 52, 53, 54, 55, 56, 57, 58, 59, 60, 61, 62, 63, 64, 65, 66, 67, 68, 69, 70, 71, 72, 73, 74, 75, 76, 77, 78, 79, 80, 81, 82, 83, 84, 85, 86, 87, 88, 89, 90, 91, 92, 93, 94, 95, 96, 97, 98, 99, 100, 101, 102, 103, 104, 105, 106, 107, 108, 109, 110, 111, 112, 113, 114, 115, 116, 117, 118, 119, 120, 121, 122, 123, 124, 125, 126, 127, 128, 129, 130, 131, 132, 133, 134, 135, 136, 137, 138, 139],
      "AcquisitionTime": ["181850.665000", "181852.155000", "181853.645000", "181855.135000", "181856.625000", "181858.115000", "181859.605000", "181901.095000", "181902.585000", "181904.075000", "181905.565000", "181907.055000", "181908.545000", "181910.035000", "181911.525000", "181913.015000", "181914.505000", "181915.995000", "181917.485000", "181918.975000", "181920.465000", "181921.955000", "181923.445000", "181924.935000", "181926.425000", "181927.915000", "181929.405000", "181930.895000", "181932.385000", "181933.875000", "181935.365000", "181936.855000", "181938.345000", "181939.835000", "181941.325000", "181942.815000", "181944.305000", "181945.795000", "181947.285000", "181948.775000", "181950.265000", "181951.755000", "181953.245000", "181954.735000", "181956.225000", "181957.715000", "181959.205000", "182000.695000", "182002.185000", "182003.675000", "182005.165000", "182006.655000", "182008.145000", "182009.635000", "182011.125000", "182012.615000", "182014.105000", "182015.595000", "182017.085000", "182018.575000", "182020.065000", "182021.555000", "182023.045000", "182024.535000", "182026.025000", "182027.515000", "182029.005000", "182030.495000", "182031.985000", "182033.475000", "182034.965000", "182036.455000", "182037.945000", "182039.435000", "182040.925000", "182042.415000", "182043.905000", "182045.395000", "182046.885000", "182048.375000", "182049.865000", "182051.355000", "182052.845000", "182054.335000", "182055.825000", "182057.315000", "182058.805000", "182100.295000", "182101.785000", "182103.275000", "182104.765000", "182106.255000", "182107.745000", "182109.235000", "182110.725000", "182112.215000", "182113.705000", "182115.195000", "182116.685000", "182118.175000", "182119.665000", "182121.155000", "182122.645000", "182124.135000", "182125.625000", "182127.115000", "182128.605000", "182130.095000", "182131.585000", "182133.075000", "182134.565000", "182136.055000", "182137.545000", "182139.035000", "182140.525000", "182142.015000", "182143.505000", "182144.995000", "182146.485000", "182147.975000", "182149.465000", "182150.955000", "182152.445000", "182153.935000", "182155.425000", "182156.915000", "182158.405000", "182159.895000", "182201.385000", "182202.875000", "182204.365000", "182205.855000", "182207.345000", "182208.835000", "182210.325000", "182211.815000", "182213.305000", "182214.795000", "182216.285000"],
      "ContentTime": ["181945.934000", "181946.933000", "181947.933000", "181948.933000", "181949.933000", "181950.933000", "181951.933000", "181952.934000", "181953.934000", "181954.934000", "181955.934000", "181956.933000", "181957.433000", "181958.933000", "181959.433000", "182000.433000", "182001.433000", "182002.433000", "182003.433000", "182004.433000", "182005.433000", "182006.433000", "182007.433000", "182008.433000", "182009.433000", "182010.434000", "182011.434000", "182012.434000", "182013.434000", "182014.433000", "182015.433000", "182016.433000", "182017.433000", "182018.433000", "182019.433000", "182020.433000", "182021.433000", "182022.433000", "182023.433000", "182024.433000", "182025.433000", "182026.433000", "182027.433000", "182028.434000", "182029.434000", "182030.434000", "182031.433000", "182032.433000", "182033.433000", "182034.433000", "182035.433000", "182036.433000", "182037.433000", "182038.433000", "182039.433000", "182040.433000", "182041.433000", "182042.433000", "182043.433000", "182043.933000", "182044.933000", "182045.934000", "182046.934000", "182047.934000", "182048.933000", "182049.933000", "182050.933000", "182051.933000", "182052.933000", "182053.933000", "182054.933000", "182055.933000", "182056.933000", "182057.933000", "182058.933000", "182059.933000", "182100.933000", "182101.933000", "182102.934000", "182103.934000", "182104.934000", "182105.934000", "182106.933000", "182107.933000", "182108.933000", "182109.933000", "182110.933000", "182111.933000", "182112.933000", "182113.933000", "182114.933000", "182115.933000", "182116.933000", "182117.933000", "182118.933000", "182119.933000", "182120.934000", "182121.934000", "182122.934000", "182123.933000", "182124.933000", "182125.433000", "182126.933000", "182127.433000", "182128.433000", "182129.433000", "182130.933000", "182132.433000", "182133.933000", "182135.433000", "182136.933000", "182138.434000", "182139.934000", "182141.433000", "182142.933000", "182144.433000", "182145.933000", "182147.433000", "182148.933000", "182150.433000", "182151.933000", "182153.433000", "182154.933000", "182156.434000", "182157.934000", "182159.433000", "182200.933000", "182202.433000", "182203.933000", "182205.433000", "182206.933000", "182208.433000", "182209.933000", "182211.433000", "182212.934000", "182214.434000", "182215.934000", "182217.433000", "182218.510000"],
      "InstanceCreationTime": ["181945.934000", "181946.933000", "181947.933000", "181948.933000", "181949.933000", "181950.933000", "181951.933000", "181952.934000", "181953.934000", "181954.934000", "181955.934000", "181956.933000", "181957.433000", "181958.933000", "181959.433000", "182000.433000", "182001.433000", "182002.433000", "182003.433000", "182004.433000", "182005.433000", "182006.433000", "182007.433000", "182008.433000", "182009.433000", "182010.434000", "182011.434000", "182012.434000", "182013.434000", "182014.433000", "182015.433000", "182016.433000", "182017.433000", "182018.433000", "182019.433000", "182020.433000", "182021.433000", "182022.433000", "182023.433000", "182024.433000", "182025.433000", "182026.433000", "182027.433000", "182028.434000", "182029.434000", "182030.434000", "182031.433000", "182032.433000", "182033.433000", "182034.433000", "182035.433000", "182036.433000", "182037.433000", "182038.433000", "182039.433000", "182040.433000", "182041.433000", "182042.433000", "182043.433000", "182043.933000", "182044.933000", "182045.934000", "182046.934000", "182047.934000", "182048.933000", "182049.933000", "182050.933000", "182051.933000", "182052.933000", "182053.933000", "182054.933000", "182055.933000", "182056.933000", "182057.933000", "182058.933000", "182059.933000", "182100.933000", "182101.933000", "182102.934000", "182103.934000", "182104.934000", "182105.934000", "182106.933000", "182107.933000", "182108.933000", "182109.933000", "182110.933000", "182111.933000", "182112.933000", "182113.933000", "182114.933000", "182115.933000", "182116.933000", "182117.933000", "182118.933000", "182119.933000", "182120.934000", "182121.934000", "182122.934000", "182123.933000", "182124.933000", "182125.433000", "182126.933000", "182127.433000", "182128.433000", "182129.433000", "182130.933000", "182132.433000", "182133.933000", "182135.433000", "182136.933000", "182138.434000", "182139.934000", "182141.433000", "182142.933000", "182144.433000", "182145.933000", "182147.433000", "182148.933000", "182150.433000", "182151.933000", "182153.433000", "182154.933000", "182156.434000", "182157.934000", "182159.433000", "182200.933000", "182202.433000", "182203.933000", "182205.433000", "182206.933000", "182208.433000", "182209.933000", "182211.433000", "182212.934000", "182214.434000", "182215.934000", "182217.433000", "182218.510000"],
      "InstanceNumber": [1, 2, 3, 4, 5, 6, 7, 8, 9, 10, 11, 12, 13, 14, 15, 16, 17, 18, 19, 20, 21, 22, 23, 24, 25, 26, 27, 28, 29, 30, 31, 32, 33, 34, 35, 36, 37, 38, 39, 40, 41, 42, 43, 44, 45, 46, 47, 48, 49, 50, 51, 52, 53, 54, 55, 56, 57, 58, 59, 60, 61, 62, 63, 64, 65, 66, 67, 68, 69, 70, 71, 72, 73, 74, 75, 76, 77, 78, 79, 80, 81, 82, 83, 84, 85, 86, 87, 88, 89, 90, 91, 92, 93, 94, 95, 96, 97, 98, 99, 100, 101, 102, 103, 104, 105, 106, 107, 108, 109, 110, 111, 112, 113, 114, 115, 116, 117, 118, 119, 120, 121, 122, 123, 124, 125, 126, 127, 128, 129, 130, 131, 132, 133, 134, 135, 136, 137, 138, 139],
      "LargestImagePixelValue": [56561, 54763, 53920, 52601, 51677, 51419, 51746, 51721, 51649, 51420, 51784, 51560, 51924, 51720, 52033, 52179, 51587, 51782, 51273, 52202, 52584, 51649, 51407, 51460, 51317, 51225, 51557, 51735, 51569, 51720, 51225, 51417, 51056, 51129, 51651, 51459, 51332, 51928, 51555, 51390, 51110, 51078, 51265, 51238, 51717, 51879, 52218, 52064, 51545, 52090, 51450, 51530, 51754, 51358, 51627, 51289, 51568, 51607, 51353, 50878, 50691, 50926, 50595, 50541, 51037, 50816, 51939, 52061, 51475, 51938, 51679, 51386, 50995, 51200, 50699, 51119, 50702, 50704, 50955, 50963, 51321, 51970, 51408, 51604, 51759, 51843, 51329, 51068, 51184, 52048, 51435, 51837, 51651, 51690, 51629, 51130, 51320, 51300, 51217, 51323, 51177, 51689, 52154, 52103, 52056, 52428, 52091, 51918, 51219, 51386, 50988, 51130, 50930, 51218, 51206, 51329, 51195, 50418, 51294, 50749, 51273, 51462, 52098, 52124, 51929, 51232, 51704, 51452, 51189, 51543, 51280, 51017, 51460, 51149, 51745, 51808, 51558, 53053, 52814],
      "WindowCenter": [10300.0, 10259.0, 10257.0, 10260.0, 10247.0, 10237.0, 10218.0, 10206.0, 10205.0, 10211.0, 10213.0, 10218.0, 10212.0, 10211.0, 10207.0, 10225.0, 10252.0, 10263.0, 10248.0, 10235.0, 10220.0, 10223.0, 10220.0, 10216.0, 10195.0, 10171.0, 10149.0, 10128.0, 10113.0, 10117.0, 10110.0, 10118.0, 10128.0, 10146.0, 10164.0, 10183.0, 10198.0, 10205.0, 10233.0, 10239.0, 10230.0, 10222.0, 10211.0, 10200.0, 10200.0, 10202.0, 10197.0, 10206.0, 10217.0, 10225.0, 10213.0, 10196.0, 10184.0, 10168.0, 10173.0, 10182.0, 10197.0, 10208.0, 10204.0, 10196.0, 10178.0, 10175.0, 10190.0, 10201.0, 10208.0, 10208.0, 10208.0, 10196.0, 10188.0, 10201.0, 10231.0, 10254.0, 10254.0, 10237.0, 10215.0, 10207.0, 10191.0, 10183.0, 10185.0, 10186.0, 10185.0, 10190.0, 10189.0, 10198.0, 10222.0, 10232.0, 10226.0, 10215.0, 10203.0, 10199.0, 10187.0, 10190.0, 10179.0, 10194.0, 10212.0, 10222.0, 10212.0, 10202.0, 10179.0, 10160.0, 10149.0, 10148.0, 10152.0, 10153.0, 10150.0, 10173.0, 10206.0, 10224.0, 10220.0, 10216.0, 10209.0, 10190.0, 10175.0, 10181.0, 10173.0, 10180.0, 10198.0, 10203.0, 10200.0, 10175.0, 10166.0, 10166.0, 10177.0, 10179.0, 10175.0, 10189.0, 10222.0, 10237.0, 10240.0, 10229.0, 10214.0, 10191.0, 10185.0, 10178.0, 10175.0, 10191.0, 10192.0, 10271.0, 10285.0],
      "WindowWidth": [22207.0, 22075.0, 22049.0, 22048.0, 22014.0, 21985.0, 21942.0, 21913.0, 21909.0, 21923.0, 21926.0, 21935.0, 21924.0, 21923.0, 21909.0, 21950.0, 22014.0, 22036.0, 22005.0, 21972.0, 21936.0, 21947.0, 21944.0, 21930.0, 21883.0, 21828.0, 21775.0, 21727.0, 21697.0, 21706.0, 21693.0, 21714.0, 21733.0, 21779.0, 21822.0, 21860.0, 21891.0, 21904.0, 21970.0, 21985.0, 21964.0, 21948.0, 21923.0, 21909.0, 21897.0, 21901.0, 21883.0, 21906.0, 21934.0, 21951.0, 21927.0, 21891.0, 21860.0, 21829.0, 21839.0, 21856.0, 21887.0, 21910.0, 21902.0, 21890.0, 21844.0, 21840.0, 21872.0, 21899.0, 21914.0, 21919.0, 21917.0, 21887.0, 21867.0, 21895.0, 21967.0, 22023.0, 22019.0, 21981.0, 21936.0, 21913.0, 21880.0, 21865.0, 21870.0, 21874.0, 21869.0, 21878.0, 21873.0, 21896.0, 21946.0, 21969.0, 21958.0, 21935.0, 21903.0, 21890.0, 21869.0, 21872.0, 21844.0, 21877.0, 21918.0, 21947.0, 21919.0, 21901.0, 21850.0, 21808.0, 21783.0, 21778.0, 21784.0, 21789.0, 21781.0, 21833.0, 21905.0, 21951.0, 21942.0, 21930.0, 21915.0, 21875.0, 21840.0, 21853.0, 21831.0, 21847.0, 21889.0, 21905.0, 21893.0, 21836.0, 21818.0, 21824.0, 21842.0, 21850.0, 21846.0, 21872.0, 21947.0, 21984.0, 21989.0, 21967.0, 21931.0, 21882.0, 21862.0, 21850.0, 21843.0, 21879.0, 21883.0, 22073.0, 22113.0]
    },
    "slices": {}
  }
}