{
  "AcquisitionMatrixPE": 104,
  "AcquisitionNumber": 1,
  "AcquisitionTime": "10:50:36.487500",
  "BandwidthPerPixelPhaseEncode": 17.17,
  "BaseResolution": 104,
  "BodyPartExamined": "BRAIN",
  "CoilString": "HC1-7;NC1_2",
  "ConsistencyInfo": "N4_VE11C_LATEST_20160120",
  "ConversionSoftware": "dcm2niix",
  "ConversionSoftwareVersion": "v1.0.20190720  (JP2:OpenJPEG) GCC7.3.0",
  "DerivedVendorReportedEchoSpacing": 0.000560011,
  "DeviceSerialNumber": "167006",
  "DwellTime": 2.1e-06,
  "EchoTime": 0.037,
  "EchoTrainLength": 104,
  "EffectiveEchoSpacing": 0.000560011,
  "FlipAngle": 52,
  "ImageComments": "Unaliased_MB4_PE3_LB",
  "ImageOrientationPatientDICOM": [1, 0, 0, 0, 0.891007, -0.45399],
  "ImageType": [
    "ORIGINAL",
    "PRIMARY",
    "M",
    "MB",
    "ND",
    "MOSAIC"
],
  "ImagingFrequency": 123.26,
  "InPlanePhaseEncodingDirectionDICOM": "COL",
  "InstitutionAddress": "Chemin_Queen-Mary_4565_Montreal_District_CA_H3W_1W5",
  "InstitutionName": "IUGM",
  "InstitutionalDepartmentName": "Department",
  "MRAcquisitionType": "2D",
  "MagneticFieldStrength": 3,
  "Manufacturer": "Siemens",
  "ManufacturersModelName": "Prisma_fit",
  "Modality": "MR",
  "MultibandAccelerationFactor": 4,
  "PartialFourier": 1,
  "PatientPosition": "HFS",
  "PercentPhaseFOV": 100,
  "PhaseEncodingDirection": "j",
  "PhaseEncodingSteps": 104,
  "PhaseResolution": 1,
  "PixelBandwidth": 2290,
  "ProcedureStepDescription": "hcptrt_generic",
  "ProtocolName": "func_task-wm_run-1",
  "PulseSequenceDetails": "%CustomerSeq%_cmrr_mbep2d_bold",
  "ReceiveCoilActiveElements": "HC1-7;NC1,2",
  "ReceiveCoilName": "HeadNeck_64",
  "ReconMatrixPE": 104,
  "RepetitionTime": 1.49,
  "SAR": 0.0389597,
  "ScanOptions": "FS",
  "ScanningSequence": "EP",
  "SequenceName": "epfid2d1_104",
  "SequenceVariant": "SK_SS",
  "SeriesDescription": "func_task-wm_run-1",
  "SeriesNumber": 15,
  "ShimSetting": [618, -7193, -8865, 394, -33, -138, -8, -14],
  "SliceThickness": 2,
  "SliceTiming": [0, 0.785, 0.0975, 0.8825, 0.1975, 0.98, 0.295, 1.0775, 0.3925, 1.1775, 0.49, 1.275, 0.5875, 1.3725, 0.6875, 0, 0.785, 0.0975, 0.8825, 0.1975, 0.98, 0.295, 1.0775, 0.3925, 1.1775, 0.49, 1.275, 0.5875, 1.3725, 0.6875, 0, 0.785, 0.0975, 0.8825, 0.1975, 0.98, 0.295, 1.0775, 0.3925, 1.1775, 0.49, 1.275, 0.5875, 1.3725, 0.6875, 0, 0.785, 0.0975, 0.8825, 0.1975, 0.98, 0.295, 1.0775, 0.3925, 1.1775, 0.49, 1.275, 0.5875, 1.3725, 0.6875],
  "SoftwareVersions": "syngo_MR_E11",
  "SpacingBetweenSlices": 2,
  "StationName": "MRC35049",
  "TaskName": "wm",
  "TotalReadoutTime": 0.0576811,
  "TxRefAmp": 253.838,
  "WipMemBlock": "dd78735b-3745-4187-92c6-02ac45fb0b48||Sequence: R016 ve11c/master r/e634e98; Dec 19 2017 11:00:25 by eja",
  "dcmmeta_affine": [
    [-2.0, 0.0, 0.0, 104.36861419677734],
    [0.0, 1.7820130586624146, -0.9079809784889221, -61.93461227416992],
    [0.0, 0.9079809784889221, 1.7820130586624146, -89.35871124267578],
    [0.0, 0.0, 0.0, 1.0]
],
  "dcmmeta_reorient_transform": [
    [0.0, -1.0, 0.0, 103.0],
    [1.0, 0.0, 0.0, 0.0],
    [0.0, 0.0, 1.0, 0.0],
    [0.0, 0.0, 0.0, 1.0]
],
  "dcmmeta_shape": [104, 104, 60, 202],
  "dcmmeta_slice_dim": 2,
  "dcmmeta_version": 0.6,
  "global": {
    "const": {
      "AcquisitionMatrix": [104, 0, 0, 104],
      "AngioFlag": "N",
      "BitsAllocated": 16,
      "BitsStored": 16,
      "BodyPartExamined": "BRAIN",
      "Columns": 832,
      "EchoNumbers": 1,
      "EchoTime": 37.0,
      "EchoTrainLength": 104,
      "FlipAngle": 52.0,
      "HighBit": 15,
      "ImageOrientationPatient": [1.0, 0.0, 0.0, 0.0, 0.89100652607637, -0.4539904960341],
      "ImagePositionPatient": [-832.36861714721, -770.26548496287, 334.66841499656],
      "ImageType": [
        "ORIGINAL",
        "PRIMARY",
        "M",
        "MB",
        "ND",
        "MOSAIC"
],
      "ImagedNucleus": "1H",
      "ImagingFrequency": 123.259587,
      "InPlanePhaseEncodingDirection": "COL",
      "MRAcquisitionType": "2D",
      "MagneticFieldStrength": 3.0,
      "Manufacturer": "SIEMENS",
      "ManufacturerModelName": "Prisma_fit",
      "Modality": "MR",
      "NumberOfAverages": 1.0,
      "NumberOfPhaseEncodingSteps": 104,
      "PercentPhaseFieldOfView": 100.0,
      "PercentSampling": 100.0,
      "PerformedProcedureStepStartTime": "095638.176000",
      "PhotometricInterpretation": "MONOCHROME2",
      "PixelBandwidth": 2290.0,
      "PixelRepresentation": 0,
      "PixelSpacing": [2.0, 2.0],
      "ProtocolName": "func_task-wm_run-1",
      "RepetitionTime": 1490.0,
      "Rows": 832,
      "SAR": 0.03895972663738,
      "SamplesPerPixel": 1,
      "ScanOptions": "FS",
      "ScanningSequence": "EP",
      "SequenceName": "epfid2d1_104",
      "SequenceVariant": [
        "SK",
        "SS"
],
      "SeriesDescription": "func_task-wm_run-1",
      "SeriesNumber": 15,
      "SeriesTime": "105143.800000",
      "SliceLocation": -51.501467762714,
      "SliceThickness": 2.0,
      "SmallestImagePixelValue": 0,
      "SoftwareVersions": "syngo MR E11",
      "SpacingBetweenSlices": 1.9999999606593,
      "SpecificCharacterSet": "ISO_IR 100",
      "StudyID": "1",
      "StudyTime": "095638.081000",
      "TransmitCoilName": "Body",
      "VariableFlipAngleFlag": "N",
      "WindowCenterWidthExplanation": "Algo1",
      "dBdt": 0.0},
    "slices": {}
  },
  "time": {
    "samples": {
      "AcquisitionNumber": [1, 2, 3, 4, 5, 6, 7, 8, 9, 10, 11, 12, 13, 14, 15, 16, 17, 18, 19, 20, 21, 22, 23, 24, 25, 26, 27, 28, 29, 30, 31, 32, 33, 34, 35, 36, 37, 38, 39, 40, 41, 42, 43, 44, 45, 46, 47, 48, 49, 50, 51, 52, 53, 54, 55, 56, 57, 58, 59, 60, 61, 62, 63, 64, 65, 66, 67, 68, 69, 70, 71, 72, 73, 74, 75, 76, 77, 78, 79, 80, 81, 82, 83, 84, 85, 86, 87, 88, 89, 90, 91, 92, 93, 94, 95, 96, 97, 98, 99, 100, 101, 102, 103, 104, 105, 106, 107, 108, 109, 110, 111, 112, 113, 114, 115, 116, 117, 118, 119, 120, 121, 122, 123, 124, 125, 126, 127, 128, 129, 130, 131, 132, 133, 134, 135, 136, 137, 138, 139, 140, 141, 142, 143, 144, 145, 146, 147, 148, 149, 150, 151, 152, 153, 154, 155, 156, 157, 158, 159, 160, 161, 162, 163, 164, 165, 166, 167, 168, 169, 170, 171, 172, 173, 174, 175, 176, 177, 178, 179, 180, 181, 182, 183, 184, 185, 186, 187, 188, 189, 190, 191, 192, 193, 194, 195, 196, 197, 198, 199, 200, 201, 202],
      "AcquisitionTime": ["105036.487500", "105037.977500", "105039.467500", "105040.957500", "105042.447500", "105043.937500", "105045.427500", "105046.917500", "105048.407500", "105049.897500", "105051.387500", "105052.877500", "105054.367500", "105055.857500", "105057.347500", "105058.837500", "105100.327500", "105101.817500", "105103.307500", "105104.797500", "105106.287500", "105107.777500", "105109.267500", "105110.757500", "105112.247500", "105113.737500", "105115.227500", "105116.717500", "105118.207500", "105119.697500", "105121.187500", "105122.677500", "105124.167500", "105125.657500", "105127.147500", "105128.637500", "105130.127500", "105131.617500", "105133.107500", "105134.597500", "105136.087500", "105137.577500", "105139.067500", "105140.557500", "105142.047500", "105143.537500", "105145.027500", "105146.517500", "105148.007500", "105149.497500", "105150.987500", "105152.477500", "105153.967500", "105155.457500", "105156.947500", "105158.437500", "105159.927500", "105201.417500", "105202.907500", "105204.397500", "105205.887500", "105207.377500", "105208.867500", "105210.357500", "105211.847500", "105213.337500", "105214.827500", "105216.317500", "105217.807500", "105219.297500", "105220.787500", "105222.277500", "105223.767500", "105225.257500", "105226.747500", "105228.237500", "105229.727500", "105231.217500", "105232.707500", "105234.197500", "105235.687500", "105237.177500", "105238.667500", "105240.157500", "105241.647500", "105243.137500", "105244.627500", "105246.117500", "105247.607500", "105249.097500", "105250.587500", "105252.077500", "105253.567500", "105255.057500", "105256.547500", "105258.037500", "105259.527500", "105301.017500", "105302.507500", "105303.997500", "105305.487500", "105306.977500", "105308.467500", "105309.957500", "105311.447500", "105312.937500", "105314.427500", "105315.917500", "105317.407500", "105318.897500", "105320.387500", "105321.877500", "105323.367500", "105324.857500", "105326.347500", "105327.837500", "105329.327500", "105330.817500", "105332.307500", "105333.797500", "105335.287500", "105336.777500", "105338.267500", "105339.757500", "105341.247500", "105342.737500", "105344.227500", "105345.717500", "105347.207500", "105348.697500", "105350.187500", "105351.677500", "105353.167500", "105354.657500", "105356.147500", "105357.637500", "105359.127500", "105400.617500", "105402.107500", "105403.597500", "105405.087500", "105406.577500", "105408.067500", "105409.557500", "105411.047500", "105412.537500", "105414.027500", "105415.517500", "105417.007500", "105418.497500", "105419.987500", "105421.477500", "105422.967500", "105424.457500", "105425.947500", "105427.437500", "105428.927500", "105430.417500", "105431.907500", "105433.397500", "105434.887500", "105436.377500", "105437.867500", "105439.357500", "105440.847500", "105442.337500", "105443.827500", "105445.317500", "105446.807500", "105448.297500", "105449.787500", "105451.277500", "105452.767500", "105454.257500", "105455.747500", "105457.237500", "105458.727500", "105500.217500", "105501.707500", "105503.197500", "105504.687500", "105506.177500", "105507.667500", "105509.157500", "105510.647500", "105512.137500", "105513.627500", "105515.117500", "105516.607500", "105518.097500", "105519.587500", "105521.077500", "105522.567500", "105524.057500", "105525.547500", "105527.037500", "105528.527500", "105530.017500", "105531.507500", "105532.997500", "105534.487500", "105535.977500"],
      "ContentTime": ["105143.803000", "105143.806000", "105143.809000", "105143.812000", "105143.824000", "105143.827000", "105143.830000", "105143.835000", "105143.838000", "105143.841000", "105143.844000", "105143.847000", "105143.850000", "105203.769000", "105203.772000", "105203.775000", "105203.778000", "105203.781000", "105203.784000", "105203.786000", "105203.790000", "105203.793000", "105203.795000", "105203.798000", "105203.801000", "105203.804000", "105203.807000", "105203.818000", "105203.820000", "105203.823000", "105203.826000", "105203.829000", "105203.832000", "105203.835000", "105223.769000", "105223.772000", "105223.775000", "105223.778000", "105223.781000", "105223.784000", "105223.787000", "105223.789000", "105223.797000", "105223.800000", "105223.803000", "105223.806000", "105223.809000", "105223.812000", "105223.815000", "105223.818000", "105223.821000", "105223.824000", "105223.826000", "105223.829000", "105243.769000", "105243.772000", "105243.775000", "105243.778000", "105243.781000", "105243.784000", "105243.787000", "105243.789000", "105243.792000", "105243.795000", "105243.798000", "105243.801000", "105243.804000", "105243.807000", "105243.810000", "105243.813000", "105243.816000", "105243.819000", "105243.822000", "105243.825000", "105303.769000", "105303.772000", "105303.775000", "105303.778000", "105303.781000", "105303.784000", "105303.787000", "105303.790000", "105303.793000", "105303.797000", "105303.800000", "105303.803000", "105303.806000", "105303.809000", "105303.812000", "105303.815000", "105303.818000", "105303.821000", "105303.824000", "105303.827000", "105343.769000", "105343.772000", "105343.775000", "105343.778000", "105343.781000", "105343.784000", "105343.787000", "105343.790000", "105343.793000", "105343.796000", "105343.798000", "105343.801000", "105343.804000", "105343.807000", "105343.810000", "105343.813000", "105343.816000", "105343.819000", "105343.822000", "105343.825000", "105343.828000", "105343.830000", "105343.848000", "105343.851000", "105343.854000", "105343.857000", "105343.860000", "105343.863000", "105343.866000", "105343.869000", "105343.872000", "105423.769000", "105423.772000", "105423.775000", "105423.778000", "105423.781000", "105423.784000", "105423.787000", "105423.790000", "105423.793000", "105423.796000", "105423.799000", "105423.802000", "105423.805000", "105423.808000", "105423.810000", "105423.813000", "105423.816000", "105423.819000", "105423.822000", "105423.825000", "105423.828000", "105423.831000", "105423.834000", "105423.837000", "105423.840000", "105423.843000", "105503.769000", "105503.772000", "105503.775000", "105503.778000", "105503.781000", "105503.784000", "105503.787000", "105503.790000", "105503.793000", "105503.796000", "105503.799000", "105503.801000", "105503.804000", "105503.807000", "105503.810000", "105503.813000", "105503.816000", "105503.823000", "105503.826000", "105503.829000", "105503.832000", "105503.835000", "105503.838000", "105503.841000", "105503.844000", "105503.847000", "105503.850000", "105538.443000", "105538.447000", "105538.450000", "105538.453000", "105538.456000", "105538.459000", "105538.462000", "105538.465000", "105538.468000", "105538.471000", "105538.474000", "105538.477000", "105538.481000", "105538.484000", "105538.487000", "105538.490000", "105538.493000", "105538.497000", "105538.500000", "105538.503000", "105538.506000", "105538.509000", "105538.512000", "105538.515000"],
      "InstanceCreationTime": ["105143.803000", "105143.806000", "105143.809000", "105143.812000", "105143.824000", "105143.827000", "105143.830000", "105143.835000", "105143.838000", "105143.841000", "105143.844000", "105143.847000", "105143.850000", "105203.769000", "105203.772000", "105203.775000", "105203.778000", "105203.781000", "105203.784000", "105203.786000", "105203.790000", "105203.793000", "105203.795000", "105203.798000", "105203.801000", "105203.804000", "105203.807000", "105203.818000", "105203.820000", "105203.823000", "105203.826000", "105203.829000", "105203.832000", "105203.835000", "105223.769000", "105223.772000", "105223.775000", "105223.778000", "105223.781000", "105223.784000", "105223.787000", "105223.789000", "105223.797000", "105223.800000", "105223.803000", "105223.806000", "105223.809000", "105223.812000", "105223.815000", "105223.818000", "105223.821000", "105223.824000", "105223.826000", "105223.829000", "105243.769000", "105243.772000", "105243.775000", "105243.778000", "105243.781000", "105243.784000", "105243.787000", "105243.789000", "105243.792000", "105243.795000", "105243.798000", "105243.801000", "105243.804000", "105243.807000", "105243.810000", "105243.813000", "105243.816000", "105243.819000", "105243.822000", "105243.825000", "105303.769000", "105303.772000", "105303.775000", "105303.778000", "105303.781000", "105303.784000", "105303.787000", "105303.790000", "105303.793000", "105303.797000", "105303.800000", "105303.803000", "105303.806000", "105303.809000", "105303.812000", "105303.815000", "105303.818000", "105303.821000", "105303.824000", "105303.827000", "105343.769000", "105343.772000", "105343.775000", "105343.778000", "105343.781000", "105343.784000", "105343.787000", "105343.790000", "105343.793000", "105343.796000", "105343.798000", "105343.801000", "105343.804000", "105343.807000", "105343.810000", "105343.813000", "105343.816000", "105343.819000", "105343.822000", "105343.825000", "105343.828000", "105343.830000", "105343.848000", "105343.851000", "105343.854000", "105343.857000", "105343.860000", "105343.863000", "105343.866000", "105343.869000", "105343.872000", "105423.769000", "105423.772000", "105423.775000", "105423.778000", "105423.781000", "105423.784000", "105423.787000", "105423.790000", "105423.793000", "105423.796000", "105423.799000", "105423.802000", "105423.805000", "105423.808000", "105423.810000", "105423.813000", "105423.816000", "105423.819000", "105423.822000", "105423.825000", "105423.828000", "105423.831000", "105423.834000", "105423.837000", "105423.840000", "105423.843000", "105503.769000", "105503.772000", "105503.775000", "105503.778000", "105503.781000", "105503.784000", "105503.787000", "105503.790000", "105503.793000", "105503.796000", "105503.799000", "105503.801000", "105503.804000", "105503.807000", "105503.810000", "105503.813000", "105503.816000", "105503.823000", "105503.826000", "105503.829000", "105503.832000", "105503.835000", "105503.838000", "105503.841000", "105503.844000", "105503.847000", "105503.850000", "105538.443000", "105538.447000", "105538.450000", "105538.453000", "105538.456000", "105538.459000", "105538.462000", "105538.465000", "105538.468000", "105538.471000", "105538.474000", "105538.477000", "105538.481000", "105538.484000", "105538.487000", "105538.490000", "105538.493000", "105538.497000", "105538.500000", "105538.503000", "105538.506000", "105538.509000", "105538.512000", "105538.515000"],
      "InstanceNumber": [1, 2, 3, 4, 5, 6, 7, 8, 9, 10, 11, 12, 13, 14, 15, 16, 17, 18, 19, 20, 21, 22, 23, 24, 25, 26, 27, 28, 29, 30, 31, 32, 33, 34, 35, 36, 37, 38, 39, 40, 41, 42, 43, 44, 45, 46, 47, 48, 49, 50, 51, 52, 53, 54, 55, 56, 57, 58, 59, 60, 61, 62, 63, 64, 65, 66, 67, 68, 69, 70, 71, 72, 73, 74, 75, 76, 77, 78, 79, 80, 81, 82, 83, 84, 85, 86, 87, 88, 89, 90, 91, 92, 93, 94, 95, 96, 97, 98, 99, 100, 101, 102, 103, 104, 105, 106, 107, 108, 109, 110, 111, 112, 113, 114, 115, 116, 117, 118, 119, 120, 121, 122, 123, 124, 125, 126, 127, 128, 129, 130, 131, 132, 133, 134, 135, 136, 137, 138, 139, 140, 141, 142, 143, 144, 145, 146, 147, 148, 149, 150, 151, 152, 153, 154, 155, 156, 157, 158, 159, 160, 161, 162, 163, 164, 165, 166, 167, 168, 169, 170, 171, 172, 173, 174, 175, 176, 177, 178, 179, 180, 181, 182, 183, 184, 185, 186, 187, 188, 189, 190, 191, 192, 193, 194, 195, 196, 197, 198, 199, 200, 201, 202],
      "LargestImagePixelValue": [45744, 44717, 43622, 43194, 42752, 43206, 43097, 42876, 42531, 42742, 43206, 43042, 43236, 43082, 43245, 43414, 43194, 43608, 43236, 42952, 42947, 43041, 43081, 43288, 42687, 42998, 42822, 42675, 42939, 42615, 43133, 42410, 42911, 42594, 42269, 42398, 42282, 42772, 42500, 43043, 42465, 42911, 42911, 42654, 43956, 42618, 42602, 42257, 42481, 42383, 42978, 42877, 42508, 42722, 43009, 43182, 43066, 43520, 43369, 43573, 43346, 43534, 43308, 43364, 43221, 42962, 43408, 43116, 42894, 43357, 43147, 43519, 43142, 42871, 43214, 43172, 43463, 43297, 43199, 43383, 43199, 42939, 43449, 43055, 43050, 43019, 43285, 42815, 43088, 43268, 43547, 42721, 42240, 42585, 42073, 42405, 41674, 41504, 41740, 41366, 41189, 41183, 41538, 41688, 41610, 41768, 42027, 41750, 41717, 41702, 41641, 41428, 41731, 41748, 41712, 41885, 41833, 42534, 41907, 41742, 41918, 41882, 41749, 41660, 41873, 41613, 41891, 42014, 42373, 41834, 41836, 41452, 41762, 41879, 41546, 41752, 40941, 42270, 41789, 41731, 41775, 41576, 42025, 41896, 41863, 41449, 41451, 41861, 41666, 41677, 41579, 41533, 41511, 41573, 41522, 41544, 41811, 41783, 41506, 41783, 41875, 41682, 41733, 41752, 41938, 42016, 41630, 41951, 41190, 41628, 41363, 41606, 41855, 41724, 41983, 41314, 41795, 41808, 41676, 41744, 41498, 41854, 41602, 41796, 42028, 41676, 41679, 40934, 42475, 42269, 42243, 41893, 41565, 41389, 40932, 40808, 41608, 41045, 41746, 41396, 41948, 41840],
      "WindowCenter": [10994.0, 10963.0, 10973.0, 10978.0, 10946.0, 10920.0, 10908.0, 10901.0, 10901.0, 10916.0, 10933.0, 10943.0, 10946.0, 10955.0, 10956.0, 10973.0, 10977.0, 10974.0, 10966.0, 10950.0, 10949.0, 10962.0, 10969.0, 10967.0, 10953.0, 10946.0, 10937.0, 10931.0, 10928.0, 10914.0, 10919.0, 10921.0, 10929.0, 10922.0, 10914.0, 10908.0, 10906.0, 10906.0, 10902.0, 10902.0, 10905.0, 10911.0, 10914.0, 10905.0, 10912.0, 10901.0, 10901.0, 10888.0, 10894.0, 10886.0, 10898.0, 10893.0, 10885.0, 10888.0, 10882.0, 10890.0, 10891.0, 10897.0, 10906.0, 10910.0, 10911.0, 10917.0, 10919.0, 10925.0, 10921.0, 10922.0, 10922.0, 10921.0, 10914.0, 10920.0, 10919.0, 10920.0, 10916.0, 10909.0, 10916.0, 10911.0, 10930.0, 10921.0, 10928.0, 10933.0, 10929.0, 10925.0, 10928.0, 10919.0, 10918.0, 10903.0, 10917.0, 10912.0, 10911.0, 10910.0, 10912.0, 10914.0, 10905.0, 10888.0, 10931.0, 10908.0, 10863.0, 10867.0, 10894.0, 10912.0, 10898.0, 10877.0, 10875.0, 10885.0, 10895.0, 10910.0, 10918.0, 10922.0, 10917.0, 10912.0, 10914.0, 10917.0, 10925.0, 10927.0, 10926.0, 10941.0, 10948.0, 10946.0, 10941.0, 10936.0, 10938.0, 10932.0, 10924.0, 10918.0, 10924.0, 10920.0, 10929.0, 10923.0, 10935.0, 10931.0, 10929.0, 10916.0, 10921.0, 10927.0, 10921.0, 10921.0, 10911.0, 10917.0, 10910.0, 10901.0, 10901.0, 10896.0, 10908.0, 10907.0, 10901.0, 10886.0, 10875.0, 10884.0, 10875.0, 10881.0, 10907.0, 10918.0, 10912.0, 10912.0, 10902.0, 10909.0, 10909.0, 10902.0, 10903.0, 10908.0, 10910.0, 10904.0, 10911.0, 10905.0, 10911.0, 10916.0, 10905.0, 10918.0, 10906.0, 10911.0, 10911.0, 10912.0, 10920.0, 10921.0, 10928.0, 10918.0, 10927.0, 10921.0, 10914.0, 10916.0, 10916.0, 10921.0, 10917.0, 10921.0, 10922.0, 10916.0, 10915.0, 10901.0, 10946.0, 10940.0, 10900.0, 10885.0, 10900.0, 10909.0, 10895.0, 10884.0, 10885.0, 10880.0, 10903.0, 10900.0, 10912.0, 10912.0],
      "WindowWidth": [23579.0, 23471.0, 23478.0, 23484.0, 23402.0, 23330.0, 23300.0, 23286.0, 23286.0, 23320.0, 23358.0, 23381.0, 23387.0, 23413.0, 23410.0, 23454.0, 23460.0, 23453.0, 23431.0, 23399.0, 23398.0, 23421.0, 23438.0, 23434.0, 23404.0, 23384.0, 23363.0, 23351.0, 23340.0, 23314.0, 23321.0, 23329.0, 23347.0, 23331.0, 23314.0, 23299.0, 23295.0, 23299.0, 23285.0, 23284.0, 23294.0, 23305.0, 23316.0, 23296.0, 23308.0, 23289.0, 23284.0, 23256.0, 23268.0, 23254.0, 23275.0, 23264.0, 23250.0, 23251.0, 23240.0, 23257.0, 23258.0, 23271.0, 23289.0, 23302.0, 23304.0, 23316.0, 23321.0, 23336.0, 23329.0, 23333.0, 23332.0, 23328.0, 23317.0, 23323.0, 23322.0, 23324.0, 23316.0, 23301.0, 23314.0, 23307.0, 23346.0, 23330.0, 23345.0, 23354.0, 23348.0, 23342.0, 23347.0, 23326.0, 23321.0, 23289.0, 23318.0, 23310.0, 23306.0, 23303.0, 23304.0, 23315.0, 23297.0, 23257.0, 23362.0, 23308.0, 23208.0, 23212.0, 23272.0, 23315.0, 23283.0, 23231.0, 23222.0, 23251.0, 23274.0, 23308.0, 23329.0, 23341.0, 23333.0, 23317.0, 23322.0, 23329.0, 23352.0, 23356.0, 23353.0, 23383.0, 23402.0, 23394.0, 23387.0, 23379.0, 23376.0, 23363.0, 23344.0, 23332.0, 23344.0, 23343.0, 23356.0, 23345.0, 23367.0, 23364.0, 23357.0, 23329.0, 23337.0, 23349.0, 23341.0, 23337.0, 23321.0, 23327.0, 23314.0, 23291.0, 23289.0, 23281.0, 23307.0, 23306.0, 23292.0, 23258.0, 23234.0, 23253.0, 23235.0, 23244.0, 23305.0, 23335.0, 23320.0, 23320.0, 23294.0, 23310.0, 23316.0, 23294.0, 23304.0, 23310.0, 23312.0, 23302.0, 23319.0, 23306.0, 23320.0, 23330.0, 23307.0, 23336.0, 23307.0, 23317.0, 23317.0, 23319.0, 23336.0, 23340.0, 23351.0, 23334.0, 23349.0, 23337.0, 23322.0, 23327.0, 23327.0, 23339.0, 23329.0, 23337.0, 23338.0, 23330.0, 23325.0, 23301.0, 23399.0, 23381.0, 23291.0, 23253.0, 23290.0, 23312.0, 23282.0, 23251.0, 23250.0, 23244.0, 23294.0, 23292.0, 23318.0, 23318.0]
    },
    "slices": {}
  }
}