{
  "AcquisitionMatrixPE": 104,
  "AcquisitionNumber": 1,
  "AcquisitionTime": "10:42:17.045000",
  "BandwidthPerPixelPhaseEncode": 17.17,
  "BaseResolution": 104,
  "BodyPartExamined": "BRAIN",
  "CoilString": "HC1-7;NC1_2",
  "ConsistencyInfo": "N4_VE11C_LATEST_20160120",
  "ConversionSoftware": "dcm2niix",
  "ConversionSoftwareVersion": "v1.0.20190720  (JP2:OpenJPEG) GCC7.3.0",
  "DerivedVendorReportedEchoSpacing": 0.000560011,
  "DeviceSerialNumber": "167006",
  "DwellTime": 2.1e-06,
  "EchoTime": 0.037,
  "EchoTrainLength": 104,
  "EffectiveEchoSpacing": 0.000560011,
  "FlipAngle": 52,
  "ImageComments": "Unaliased_MB4_PE3_LB",
  "ImageOrientationPatientDICOM": [1, 0, 0, 0, 0.891007, -0.45399],
  "ImageType": [
    "ORIGINAL",
    "PRIMARY",
    "M",
    "MB",
    "ND",
    "MOSAIC"
],
  "ImagingFrequency": 123.26,
  "InPlanePhaseEncodingDirectionDICOM": "COL",
  "InstitutionAddress": "Chemin_Queen-Mary_4565_Montreal_District_CA_H3W_1W5",
  "InstitutionName": "IUGM",
  "InstitutionalDepartmentName": "Department",
  "MRAcquisitionType": "2D",
  "MagneticFieldStrength": 3,
  "Manufacturer": "Siemens",
  "ManufacturersModelName": "Prisma_fit",
  "Modality": "MR",
  "MultibandAccelerationFactor": 4,
  "PartialFourier": 1,
  "PatientPosition": "HFS",
  "PercentPhaseFOV": 100,
  "PhaseEncodingDirection": "j",
  "PhaseEncodingSteps": 104,
  "PhaseResolution": 1,
  "PixelBandwidth": 2290,
  "ProcedureStepDescription": "hcptrt_generic",
  "ProtocolName": "func_task-social_run-1",
  "PulseSequenceDetails": "%CustomerSeq%_cmrr_mbep2d_bold",
  "ReceiveCoilActiveElements": "HC1-7;NC1,2",
  "ReceiveCoilName": "HeadNeck_64",
  "ReconMatrixPE": 104,
  "RepetitionTime": 1.49,
  "SAR": 0.0387952,
  "ScanOptions": "FS",
  "ScanningSequence": "EP",
  "SequenceName": "epfid2d1_104",
  "SequenceVariant": "SK_SS",
  "SeriesDescription": "func_task-social_run-1",
  "SeriesNumber": 11,
  "ShimSetting": [618, -7193, -8865, 394, -33, -138, -8, -14],
  "SliceThickness": 2,
  "SliceTiming": [0, 0.785, 0.1, 0.8825, 0.1975, 0.98, 0.295, 1.08, 0.3925, 1.1775, 0.49, 1.275, 0.59, 1.3725, 0.6875, 0, 0.785, 0.1, 0.8825, 0.1975, 0.98, 0.295, 1.08, 0.3925, 1.1775, 0.49, 1.275, 0.59, 1.3725, 0.6875, 0, 0.785, 0.1, 0.8825, 0.1975, 0.98, 0.295, 1.08, 0.3925, 1.1775, 0.49, 1.275, 0.59, 1.3725, 0.6875, 0, 0.785, 0.1, 0.8825, 0.1975, 0.98, 0.295, 1.08, 0.3925, 1.1775, 0.49, 1.275, 0.59, 1.3725, 0.6875],
  "SoftwareVersions": "syngo_MR_E11",
  "SpacingBetweenSlices": 2,
  "StationName": "MRC35049",
  "TaskName": "social",
  "TotalReadoutTime": 0.0576811,
  "TxRefAmp": 253.838,
  "WipMemBlock": "aa977117-1e05-4914-8da6-4f0b8e9e71d9||Sequence: R016 ve11c/master r/e634e98; Dec 19 2017 11:00:25 by eja",
  "dcmmeta_affine": [
    [-2.0, 0.0, 0.0, 104.36861419677734],
    [0.0, 1.7820130586624146, -0.9079809784889221, -61.93461227416992],
    [0.0, 0.9079809784889221, 1.7820130586624146, -89.35871124267578],
    [0.0, 0.0, 0.0, 1.0]
],
  "dcmmeta_reorient_transform": [
    [0.0, -1.0, 0.0, 103.0],
    [1.0, 0.0, 0.0, 0.0],
    [0.0, 0.0, 1.0, 0.0],
    [0.0, 0.0, 0.0, 1.0]
],
  "dcmmeta_shape": [104, 104, 60, 139],
  "dcmmeta_slice_dim": 2,
  "dcmmeta_version": 0.6,
  "global": {
    "const": {
      "AcquisitionMatrix": [104, 0, 0, 104],
      "AngioFlag": "N",
      "BitsAllocated": 16,
      "BitsStored": 16,
      "BodyPartExamined": "BRAIN",
      "Columns": 832,
      "EchoNumbers": 1,
      "EchoTime": 37.0,
      "EchoTrainLength": 104,
      "FlipAngle": 52.0,
      "HighBit": 15,
      "ImageOrientationPatient": [1.0, 0.0, 0.0, 0.0, 0.89100652607637, -0.4539904960341],
      "ImagePositionPatient": [-832.36861714721, -770.26548496287, 334.66841499656],
      "ImageType": [
        "ORIGINAL",
        "PRIMARY",
        "M",
        "MB",
        "ND",
        "MOSAIC"
],
      "ImagedNucleus": "1H",
      "ImagingFrequency": 123.259584,
      "InPlanePhaseEncodingDirection": "COL",
      "MRAcquisitionType": "2D",
      "MagneticFieldStrength": 3.0,
      "Manufacturer": "SIEMENS",
      "ManufacturerModelName": "Prisma_fit",
      "Modality": "MR",
      "NumberOfAverages": 1.0,
      "NumberOfPhaseEncodingSteps": 104,
      "PercentPhaseFieldOfView": 100.0,
      "PercentSampling": 100.0,
      "PerformedProcedureStepStartTime": "095638.176000",
      "PhotometricInterpretation": "MONOCHROME2",
      "PixelBandwidth": 2290.0,
      "PixelRepresentation": 0,
      "PixelSpacing": [2.0, 2.0],
      "ProtocolName": "func_task-social_run-1",
      "RepetitionTime": 1490.0,
      "Rows": 832,
      "SAR": 0.03879515267435,
      "SamplesPerPixel": 1,
      "ScanOptions": "FS",
      "ScanningSequence": "EP",
      "SequenceName": "epfid2d1_104",
      "SequenceVariant": [
        "SK",
        "SS"
],
      "SeriesDescription": "func_task-social_run-1",
      "SeriesNumber": 11,
      "SeriesTime": "104340.012000",
      "SliceLocation": -51.501467762714,
      "SliceThickness": 2.0,
      "SmallestImagePixelValue": 0,
      "SoftwareVersions": "syngo MR E11",
      "SpacingBetweenSlices": 1.9999999606593,
      "SpecificCharacterSet": "ISO_IR 100",
      "StudyID": "1",
      "StudyTime": "095638.081000",
      "TransmitCoilName": "Body",
      "VariableFlipAngleFlag": "N",
      "WindowCenterWidthExplanation": "Algo1",
      "dBdt": 0.0},
    "slices": {}
  },
  "time": {
    "samples": {
      "AcquisitionNumber": [1, 2, 3, 4, 5, 6, 7, 8, 9, 10, 11, 12, 13, 14, 15, 16, 17, 18, 19, 20, 21, 22, 23, 24, 25, 26, 27, 28, 29, 30, 31, 32, 33, 34, 35, 36, 37, 38, 39, 40, 41, 42, 43, 44, 45, 46, 47, 48, 49, 50, 51, 52, 53, 54, 55, 56, 57, 58, 59, 60, 61, 62, 63, 64, 65, 66, 67, 68, 69, 70, 71, 72, 73, 74, 75, 76, 77, 78, 79, 80, 81, 82, 83, 84, 85, 86, 87, 88, 89, 90, 91, 92, 93, 94, 95, 96, 97, 98, 99, 100, 101, 102, 103, 104, 105, 106, 107, 108, 109, 110, 111, 112, 113, 114, 115, 116, 117, 118, 119, 120, 121, 122, 123, 124, 125, 126, 127, 128, 129, 130, 131, 132, 133, 134, 135, 136, 137, 138, 139],
      "AcquisitionTime": ["104217.045000", "104218.535000", "104220.025000", "104221.515000", "104223.005000", "104224.495000", "104225.985000", "104227.475000", "104228.965000", "104230.455000", "104231.945000", "104233.435000", "104234.925000", "104236.415000", "104237.905000", "104239.395000", "104240.885000", "104242.375000", "104243.865000", "104245.355000", "104246.845000", "104248.335000", "104249.825000", "104251.315000", "104252.805000", "104254.295000", "104255.785000", "104257.275000", "104258.765000", "104300.255000", "104301.745000", "104303.235000", "104304.725000", "104306.215000", "104307.705000", "104309.195000", "104310.685000", "104312.175000", "104313.665000", "104315.155000", "104316.645000", "104318.135000", "104319.625000", "104321.115000", "104322.605000", "104324.095000", "104325.585000", "104327.075000", "104328.565000", "104330.055000", "104331.545000", "104333.035000", "104334.525000", "104336.015000", "104337.505000", "104338.995000", "104340.485000", "104341.975000", "104343.465000", "104344.955000", "104346.445000", "104347.935000", "104349.425000", "104350.915000", "104352.405000", "104353.895000", "104355.385000", "104356.875000", "104358.365000", "104359.855000", "104401.345000", "104402.835000", "104404.325000", "104405.815000", "104407.305000", "104408.795000", "104410.285000", "104411.775000", "104413.265000", "104414.755000", "104416.245000", "104417.735000", "104419.225000", "104420.715000", "104422.205000", "104423.695000", "104425.185000", "104426.675000", "104428.165000", "104429.655000", "104431.145000", "104432.635000", "104434.125000", "104435.615000", "104437.105000", "104438.595000", "104440.085000", "104441.575000", "104443.065000", "104444.555000", "104446.045000", "104447.535000", "104449.025000", "104450.515000", "104452.005000", "104453.495000", "104454.985000", "104456.475000", "104457.965000", "104459.455000", "104500.945000", "104502.435000", "104503.925000", "104505.415000", "104506.905000", "104508.395000", "104509.885000", "104511.375000", "104512.865000", "104514.355000", "104515.845000", "104517.335000", "104518.825000", "104520.315000", "104521.805000", "104523.295000", "104524.785000", "104526.275000", "104527.765000", "104529.255000", "104530.745000", "104532.235000", "104533.725000", "104535.215000", "104536.705000", "104538.195000", "104539.685000", "104541.175000", "104542.665000"],
      "ContentTime": ["104340.015000", "104340.018000", "104340.021000", "104340.024000", "104340.027000", "104340.030000", "104340.033000", "104340.036000", "104340.039000", "104340.041000", "104340.044000", "104340.047000", "104340.050000", "104340.053000", "104340.056000", "104340.059000", "104340.070000", "104340.073000", "104340.076000", "104340.079000", "104340.082000", "104340.085000", "104340.088000", "104340.091000", "104340.094000", "104340.097000", "104340.100000", "104340.102000", "104359.986000", "104359.989000", "104359.992000", "104359.995000", "104359.998000", "104400.002000", "104400.005000", "104400.008000", "104400.011000", "104400.013000", "104400.016000", "104400.019000", "104400.022000", "104400.025000", "104400.028000", "104400.037000", "104400.040000", "104400.043000", "104400.046000", "104400.049000", "104419.985000", "104419.988000", "104419.991000", "104419.994000", "104419.997000", "104420.001000", "104420.004000", "104420.007000", "104420.010000", "104420.013000", "104420.016000", "104420.019000", "104420.021000", "104420.024000", "104420.027000", "104420.030000", "104420.033000", "104420.036000", "104420.039000", "104420.042000", "104439.986000", "104439.989000", "104439.992000", "104439.995000", "104439.998000", "104440.002000", "104440.005000", "104440.008000", "104440.015000", "104440.018000", "104440.021000", "104440.024000", "104440.027000", "104440.030000", "104440.033000", "104440.036000", "104440.039000", "104440.042000", "104440.044000", "104440.047000", "104459.986000", "104459.989000", "104459.992000", "104459.995000", "104459.998000", "104500.002000", "104500.005000", "104500.008000", "104500.011000", "104500.014000", "104500.016000", "104500.019000", "104500.022000", "104500.033000", "104500.036000", "104500.039000", "104500.042000", "104500.044000", "104500.047000", "104500.050000", "104539.986000", "104539.989000", "104539.992000", "104539.995000", "104539.998000", "104540.002000", "104540.005000", "104540.008000", "104540.011000", "104540.014000", "104540.017000", "104540.020000", "104540.022000", "104540.025000", "104540.028000", "104540.031000", "104540.034000", "104540.037000", "104540.040000", "104540.043000", "104540.055000", "104540.058000", "104540.061000", "104540.064000", "104540.067000", "104540.070000", "104540.073000", "104544.976000", "104544.980000", "104544.983000", "104544.986000"],
      "InstanceCreationTime": ["104340.015000", "104340.018000", "104340.021000", "104340.024000", "104340.027000", "104340.030000", "104340.033000", "104340.036000", "104340.039000", "104340.041000", "104340.044000", "104340.047000", "104340.050000", "104340.053000", "104340.056000", "104340.059000", "104340.070000", "104340.073000", "104340.076000", "104340.079000", "104340.082000", "104340.085000", "104340.088000", "104340.091000", "104340.094000", "104340.097000", "104340.100000", "104340.102000", "104359.986000", "104359.989000", "104359.992000", "104359.995000", "104359.998000", "104400.002000", "104400.005000", "104400.008000", "104400.011000", "104400.013000", "104400.016000", "104400.019000", "104400.022000", "104400.025000", "104400.028000", "104400.037000", "104400.040000", "104400.043000", "104400.046000", "104400.049000", "104419.985000", "104419.988000", "104419.991000", "104419.994000", "104419.997000", "104420.001000", "104420.004000", "104420.007000", "104420.010000", "104420.013000", "104420.016000", "104420.019000", "104420.021000", "104420.024000", "104420.027000", "104420.030000", "104420.033000", "104420.036000", "104420.039000", "104420.042000", "104439.986000", "104439.989000", "104439.992000", "104439.995000", "104439.998000", "104440.002000", "104440.005000", "104440.008000", "104440.015000", "104440.018000", "104440.021000", "104440.024000", "104440.027000", "104440.030000", "104440.033000", "104440.036000", "104440.039000", "104440.042000", "104440.044000", "104440.047000", "104459.986000", "104459.989000", "104459.992000", "104459.995000", "104459.998000", "104500.002000", "104500.005000", "104500.008000", "104500.011000", "104500.014000", "104500.016000", "104500.019000", "104500.022000", "104500.033000", "104500.036000", "104500.039000", "104500.042000", "104500.044000", "104500.047000", "104500.050000", "104539.986000", "104539.989000", "104539.992000", "104539.995000", "104539.998000", "104540.002000", "104540.005000", "104540.008000", "104540.011000", "104540.014000", "104540.017000", "104540.020000", "104540.022000", "104540.025000", "104540.028000", "104540.031000", "104540.034000", "104540.037000", "104540.040000", "104540.043000", "104540.055000", "104540.058000", "104540.061000", "104540.064000", "104540.067000", "104540.070000", "104540.073000", "104544.976000", "104544.980000", "104544.983000", "104544.986000"],
      "InstanceNumber": [1, 2, 3, 4, 5, 6, 7, 8, 9, 10, 11, 12, 13, 14, 15, 16, 17, 18, 19, 20, 21, 22, 23, 24, 25, 26, 27, 28, 29, 30, 31, 32, 33, 34, 35, 36, 37, 38, 39, 40, 41, 42, 43, 44, 45, 46, 47, 48, 49, 50, 51, 52, 53, 54, 55, 56, 57, 58, 59, 60, 61, 62, 63, 64, 65, 66, 67, 68, 69, 70, 71, 72, 73, 74, 75, 76, 77, 78, 79, 80, 81, 82, 83, 84, 85, 86, 87, 88, 89, 90, 91, 92, 93, 94, 95, 96, 97, 98, 99, 100, 101, 102, 103, 104, 105, 106, 107, 108, 109, 110, 111, 112, 113, 114, 115, 116, 117, 118, 119, 120, 121, 122, 123, 124, 125, 126, 127, 128, 129, 130, 131, 132, 133, 134, 135, 136, 137, 138, 139],
      "LargestImagePixelValue": [44927, 43299, 42837, 42971, 42461, 42116, 42242, 41925, 41926, 41703, 41994, 42028, 41689, 42113, 41764, 41726, 41973, 42063, 41805, 41945, 42220, 41981, 42116, 41981, 42095, 41622, 42171, 41930, 42129, 41775, 41751, 41938, 42271, 42431, 42067, 42668, 42101, 42349, 42201, 41984, 41456, 42324, 41910, 41866, 41510, 41837, 41885, 41306, 41946, 41540, 41956, 41578, 41843, 41645, 42367, 41779, 41669, 42040, 41795, 41629, 41638, 41682, 41824, 41923, 41693, 41668, 41751, 41764, 41752, 41508, 41685, 41433, 41832, 41788, 41358, 41803, 41537, 41787, 41673, 41501, 41921, 41364, 42330, 41992, 41990, 41890, 41750, 41704, 41607, 42014, 41919, 41631, 41644, 41840, 42139, 41750, 41968, 41874, 41659, 41456, 41696, 41469, 41907, 41653, 41877, 41826, 41659, 41973, 42032, 41576, 41397, 41623, 41651, 41531, 41858, 41571, 41584, 41708, 41444, 41881, 41791, 41711, 41651, 42555, 41972, 42709, 42211, 42327, 42023, 42146, 42417, 42096, 42953, 41822, 42661, 42203, 41651, 42058, 41309],
      "WindowCenter": [11081.0, 11023.0, 10998.0, 10978.0, 10966.0, 10953.0, 10957.0, 10953.0, 10958.0, 10954.0, 10959.0, 10954.0, 10954.0, 10959.0, 10961.0, 10962.0, 10963.0, 10962.0, 10958.0, 10950.0, 10954.0, 10960.0, 10975.0, 10969.0, 10957.0, 10941.0, 10947.0, 10940.0, 10948.0, 10941.0, 10942.0, 10938.0, 10936.0, 10935.0, 10932.0, 10935.0, 10939.0, 10947.0, 10956.0, 10960.0, 10954.0, 10959.0, 10946.0, 10949.0, 10945.0, 10953.0, 10960.0, 10968.0, 10982.0, 10968.0, 10959.0, 10949.0, 10945.0, 10942.0, 10955.0, 10943.0, 10944.0, 10942.0, 10936.0, 10942.0, 10936.0, 10942.0, 10944.0, 10951.0, 10953.0, 10957.0, 10957.0, 10965.0, 10959.0, 10956.0, 10958.0, 10959.0, 10981.0, 10985.0, 10971.0, 10973.0, 10959.0, 10954.0, 10948.0, 10959.0, 10963.0, 10934.0, 10935.0, 10948.0, 10963.0, 10974.0, 10969.0, 10965.0, 10956.0, 10956.0, 10957.0, 10959.0, 10960.0, 10973.0, 10980.0, 10976.0, 10965.0, 10964.0, 10964.0, 10975.0, 10976.0, 10968.0, 10966.0, 10950.0, 10946.0, 10937.0, 10936.0, 10936.0, 10934.0, 10929.0, 10938.0, 10947.0, 10953.0, 10956.0, 10965.0, 10978.0, 10985.0, 10980.0, 10978.0, 10977.0, 10976.0, 10975.0, 10976.0, 10989.0, 10985.0, 10996.0, 10984.0, 10954.0, 10939.0, 10932.0, 10949.0, 10962.0, 10981.0, 10974.0, 10962.0, 10962.0, 10957.0, 10980.0, 10958.0],
      "WindowWidth": [23793.0, 23630.0, 23555.0, 23490.0, 23457.0, 23425.0, 23429.0, 23422.0, 23433.0, 23426.0, 23436.0, 23425.0, 23425.0, 23435.0, 23440.0, 23442.0, 23444.0, 23441.0, 23432.0, 23412.0, 23419.0, 23434.0, 23468.0, 23458.0, 23423.0, 23389.0, 23401.0, 23386.0, 23408.0, 23390.0, 23393.0, 23379.0, 23372.0, 23371.0, 23366.0, 23374.0, 23382.0, 23401.0, 23419.0, 23430.0, 23419.0, 23429.0, 23400.0, 23405.0, 23398.0, 23417.0, 23429.0, 23449.0, 23481.0, 23452.0, 23430.0, 23405.0, 23395.0, 23386.0, 23411.0, 23390.0, 23387.0, 23383.0, 23371.0, 23386.0, 23376.0, 23388.0, 23392.0, 23408.0, 23413.0, 23422.0, 23425.0, 23442.0, 23432.0, 23423.0, 23426.0, 23430.0, 23475.0, 23493.0, 23456.0, 23456.0, 23425.0, 23416.0, 23401.0, 23431.0, 23438.0, 23375.0, 23371.0, 23400.0, 23434.0, 23460.0, 23452.0, 23440.0, 23422.0, 23419.0, 23423.0, 23430.0, 23434.0, 23460.0, 23475.0, 23466.0, 23440.0, 23437.0, 23438.0, 23467.0, 23467.0, 23450.0, 23441.0, 23407.0, 23394.0, 23374.0, 23372.0, 23371.0, 23366.0, 23357.0, 23379.0, 23400.0, 23416.0, 23425.0, 23446.0, 23476.0, 23493.0, 23484.0, 23477.0, 23475.0, 23473.0, 23469.0, 23473.0, 23503.0, 23493.0, 23517.0, 23495.0, 23417.0, 23390.0, 23370.0, 23404.0, 23441.0, 23476.0, 23466.0, 23436.0, 23435.0, 23438.0, 23481.0, 23432.0]
    },
    "slices": {}
  }
}