{
  "AcquisitionMatrixPE": 104,
  "AcquisitionNumber": 1,
  "AcquisitionTime": "16:18:56.700000",
  "BandwidthPerPixelPhaseEncode": 17.17,
  "BaseResolution": 104,
  "BodyPartExamined": "BRAIN",
  "CoilString": "HC1-7;NC1_2",
  "ConsistencyInfo": "N4_VE11C_LATEST_20160120",
  "ConversionSoftware": "dcm2niix",
  "ConversionSoftwareVersion": "v1.0.20190720  (JP2:OpenJPEG) GCC7.3.0",
  "DerivedVendorReportedEchoSpacing": 0.000560011,
  "DeviceSerialNumber": "167006",
  "DwellTime": 2.1e-06,
  "EchoTime": 0.037,
  "EchoTrainLength": 104,
  "EffectiveEchoSpacing": 0.000560011,
  "FlipAngle": 52,
  "ImageComments": "Unaliased_MB4_PE3_LB",
  "ImageOrientationPatientDICOM": [0.998601, 0.0433548, 0.0302703, -0.0296378, 0.933023, -0.358594],
  "ImageType": [
    "ORIGINAL",
    "PRIMARY",
    "M",
    "MB",
    "ND",
    "MOSAIC"
],
  "ImagingFrequency": 123.259,
  "InPlanePhaseEncodingDirectionDICOM": "COL",
  "InstitutionAddress": "Chemin_Queen-Mary_4565_Montreal_District_CA_H3W_1W5",
  "InstitutionName": "IUGM",
  "InstitutionalDepartmentName": "Department",
  "MRAcquisitionType": "2D",
  "MagneticFieldStrength": 3,
  "Manufacturer": "Siemens",
  "ManufacturersModelName": "Prisma_fit",
  "Modality": "MR",
  "MultibandAccelerationFactor": 4,
  "PartialFourier": 1,
  "PatientPosition": "HFS",
  "PercentPhaseFOV": 100,
  "PhaseEncodingDirection": "j",
  "PhaseEncodingSteps": 104,
  "PhaseResolution": 1,
  "PixelBandwidth": 2290,
  "ProcedureStepDescription": "hcptrt_generic",
  "ProtocolName": "func_task-relational_run-1",
  "PulseSequenceDetails": "%CustomerSeq%_cmrr_mbep2d_bold",
  "ReceiveCoilActiveElements": "HC1-7;NC1,2",
  "ReceiveCoilName": "HeadNeck_64",
  "ReconMatrixPE": 104,
  "RepetitionTime": 1.49,
  "SAR": 0.0377413,
  "ScanOptions": "FS",
  "ScanningSequence": "EP",
  "SequenceName": "epfid2d1_104",
  "SequenceVariant": "SK_SS",
  "SeriesDescription": "func_task-relational_run-1",
  "SeriesNumber": 18,
  "ShimSetting": [634, -7180, -8866, 580, 130, 61, -43, -20],
  "SliceThickness": 2,
  "SliceTiming": [0, 0.785, 0.1, 0.8825, 0.1975, 0.98, 0.295, 1.08, 0.3925, 1.1775, 0.49, 1.275, 0.59, 1.3725, 0.6875, 0, 0.785, 0.1, 0.8825, 0.1975, 0.98, 0.295, 1.08, 0.3925, 1.1775, 0.49, 1.275, 0.59, 1.3725, 0.6875, 0, 0.785, 0.1, 0.8825, 0.1975, 0.98, 0.295, 1.08, 0.3925, 1.1775, 0.49, 1.275, 0.59, 1.3725, 0.6875, 0, 0.785, 0.1, 0.8825, 0.1975, 0.98, 0.295, 1.08, 0.3925, 1.1775, 0.49, 1.275, 0.59, 1.3725, 0.6875],
  "SoftwareVersions": "syngo_MR_E11",
  "SpacingBetweenSlices": 2,
  "StationName": "MRC35049",
  "TaskName": "relational",
  "TotalReadoutTime": 0.0576811,
  "TxRefAmp": 249.151,
  "WipMemBlock": "44067df4-8375-4f95-adcc-e769f65c967e||Sequence: R016 ve11c/master r/e634e98; Dec 19 2017 11:00:25 by eja",
  "dcmmeta_affine": [
    [-1.9972021579742432, -0.059275586158037186, 0.08757929503917694, 106.32955932617188],
    [-0.08670968562364578, 1.8660461902618408, -0.7143900990486145, -59.599945068359375],
    [0.06054056063294411, 0.7171877026557922, 1.8660054206848145, -74.58031463623047],
    [0.0, 0.0, 0.0, 1.0]
],
  "dcmmeta_reorient_transform": [
    [0.0, -1.0, 0.0, 103.0],
    [1.0, 0.0, 0.0, 0.0],
    [0.0, 0.0, 1.0, 0.0],
    [0.0, 0.0, 0.0, 1.0]
],
  "dcmmeta_shape": [104, 104, 60, 119],
  "dcmmeta_slice_dim": 2,
  "dcmmeta_version": 0.6,
  "global": {
    "const": {
      "AcquisitionMatrix": [104, 0, 0, 104],
      "AngioFlag": "N",
      "BitsAllocated": 16,
      "BitsStored": 16,
      "BodyPartExamined": "BRAIN",
      "Columns": 832,
      "EchoNumbers": 1,
      "EchoTime": 37.0,
      "EchoTrainLength": 104,
      "FlipAngle": 52.0,
      "HighBit": 15,
      "ImageOrientationPatient": [0.99860105540217, 0.04335484117807, 0.03027028074037, -0.0296377921832, 0.93302307139885, -0.3585938503544],
      "ImagePositionPatient": [-805.62942894041, -843.40592681929, 238.30958095156],
      "ImageType": [
        "ORIGINAL",
        "PRIMARY",
        "M",
        "MB",
        "ND",
        "MOSAIC"
],
      "ImagedNucleus": "1H",
      "ImagingFrequency": 123.259315,
      "InPlanePhaseEncodingDirection": "COL",
      "MRAcquisitionType": "2D",
      "MagneticFieldStrength": 3.0,
      "Manufacturer": "SIEMENS",
      "ManufacturerModelName": "Prisma_fit",
      "Modality": "MR",
      "NumberOfAverages": 1.0,
      "NumberOfPhaseEncodingSteps": 104,
      "PercentPhaseFieldOfView": 100.0,
      "PercentSampling": 100.0,
      "PerformedProcedureStepStartTime": "153609.657000",
      "PhotometricInterpretation": "MONOCHROME2",
      "PixelBandwidth": 2290.0,
      "PixelRepresentation": 0,
      "PixelSpacing": [2.0, 2.0],
      "ProtocolName": "func_task-relational_run-1",
      "RepetitionTime": 1490.0,
      "Rows": 832,
      "SAR": 0.03774125795409,
      "SamplesPerPixel": 1,
      "ScanOptions": "FS",
      "ScanningSequence": "EP",
      "SequenceName": "epfid2d1_104",
      "SequenceVariant": [
        "SK",
        "SS"
],
      "SeriesDescription": "func_task-relational_run-1",
      "SeriesNumber": 18,
      "SeriesTime": "162024.329000",
      "SliceLocation": -43.638696238826,
      "SliceThickness": 2.0,
      "SmallestImagePixelValue": 0,
      "SoftwareVersions": "syngo MR E11",
      "SpacingBetweenSlices": 1.9999999413846,
      "SpecificCharacterSet": "ISO_IR 100",
      "StudyID": "1",
      "StudyTime": "153609.596000",
      "TransmitCoilName": "Body",
      "VariableFlipAngleFlag": "N",
      "WindowCenterWidthExplanation": "Algo1",
      "dBdt": 0.0},
    "slices": {}
  },
  "time": {
    "samples": {
      "AcquisitionNumber": [1, 2, 3, 4, 5, 6, 7, 8, 9, 10, 11, 12, 13, 14, 15, 16, 17, 18, 19, 20, 21, 22, 23, 24, 25, 26, 27, 28, 29, 30, 31, 32, 33, 34, 35, 36, 37, 38, 39, 40, 41, 42, 43, 44, 45, 46, 47, 48, 49, 50, 51, 52, 53, 54, 55, 56, 57, 58, 59, 60, 61, 62, 63, 64, 65, 66, 67, 68, 69, 70, 71, 72, 73, 74, 75, 76, 77, 78, 79, 80, 81, 82, 83, 84, 85, 86, 87, 88, 89, 90, 91, 92, 93, 94, 95, 96, 97, 98, 99, 100, 101, 102, 103, 104, 105, 106, 107, 108, 109, 110, 111, 112, 113, 114, 115, 116, 117, 118, 119],
      "AcquisitionTime": ["161856.700000", "161858.190000", "161859.680000", "161901.170000", "161902.660000", "161904.150000", "161905.640000", "161907.130000", "161908.620000", "161910.110000", "161911.600000", "161913.090000", "161914.580000", "161916.070000", "161917.560000", "161919.050000", "161920.540000", "161922.030000", "161923.520000", "161925.010000", "161926.500000", "161927.990000", "161929.480000", "161930.970000", "161932.460000", "161933.950000", "161935.440000", "161936.930000", "161938.420000", "161939.910000", "161941.400000", "161942.890000", "161944.380000", "161945.870000", "161947.360000", "161948.850000", "161950.340000", "161951.830000", "161953.320000", "161954.810000", "161956.300000", "161957.790000", "161959.280000", "162000.770000", "162002.260000", "162003.750000", "162005.240000", "162006.730000", "162008.220000", "162009.710000", "162011.200000", "162012.690000", "162014.180000", "162015.670000", "162017.160000", "162018.650000", "162020.140000", "162021.630000", "162023.120000", "162024.610000", "162026.100000", "162027.590000", "162029.080000", "162030.570000", "162032.060000", "162033.550000", "162035.040000", "162036.530000", "162038.020000", "162039.510000", "162041.000000", "162042.490000", "162043.980000", "162045.470000", "162046.960000", "162048.450000", "162049.940000", "162051.430000", "162052.920000", "162054.410000", "162055.900000", "162057.390000", "162058.880000", "162100.370000", "162101.860000", "162103.350000", "162104.840000", "162106.330000", "162107.820000", "162109.310000", "162110.800000", "162112.290000", "162113.780000", "162115.270000", "162116.760000", "162118.250000", "162119.740000", "162121.230000", "162122.720000", "162124.210000", "162125.700000", "162127.190000", "162128.680000", "162130.170000", "162131.660000", "162133.150000", "162134.640000", "162136.130000", "162137.620000", "162139.110000", "162140.600000", "162142.090000", "162143.580000", "162145.070000", "162146.560000", "162148.050000", "162149.540000", "162151.030000", "162152.520000"],
      "ContentTime": ["162024.332000", "162024.335000", "162024.338000", "162024.341000", "162024.344000", "162024.347000", "162024.350000", "162024.353000", "162024.356000", "162024.359000", "162024.362000", "162024.365000", "162024.368000", "162024.371000", "162024.374000", "162024.377000", "162024.390000", "162024.394000", "162024.396000", "162024.402000", "162024.405000", "162024.408000", "162024.411000", "162024.414000", "162024.417000", "162024.420000", "162024.423000", "162024.426000", "162024.429000", "162024.432000", "162024.435000", "162024.438000", "162024.441000", "162024.444000", "162024.447000", "162044.295000", "162044.298000", "162044.301000", "162044.315000", "162044.318000", "162044.320000", "162044.323000", "162044.326000", "162044.335000", "162044.338000", "162044.341000", "162044.344000", "162044.347000", "162044.350000", "162044.353000", "162044.356000", "162044.359000", "162044.365000", "162044.368000", "162044.377000", "162104.295000", "162104.298000", "162104.301000", "162104.304000", "162104.307000", "162104.310000", "162104.313000", "162104.316000", "162104.318000", "162104.321000", "162104.324000", "162104.327000", "162104.330000", "162104.333000", "162104.336000", "162104.339000", "162104.342000", "162104.345000", "162104.348000", "162104.351000", "162104.354000", "162124.295000", "162124.298000", "162124.301000", "162124.304000", "162124.307000", "162124.310000", "162124.313000", "162124.316000", "162124.319000", "162124.322000", "162124.328000", "162124.331000", "162124.334000", "162124.337000", "162124.340000", "162124.343000", "162124.346000", "162124.349000", "162124.352000", "162124.355000", "162154.998000", "162155.002000", "162155.005000", "162155.008000", "162155.011000", "162155.014000", "162155.018000", "162155.021000", "162155.024000", "162155.027000", "162155.030000", "162155.034000", "162155.037000", "162155.040000", "162155.044000", "162155.047000", "162155.050000", "162155.053000", "162155.056000", "162155.060000", "162155.063000", "162155.067000", "162155.070000"],
      "InstanceCreationTime": ["162024.332000", "162024.335000", "162024.338000", "162024.341000", "162024.344000", "162024.347000", "162024.350000", "162024.353000", "162024.356000", "162024.359000", "162024.362000", "162024.365000", "162024.368000", "162024.371000", "162024.374000", "162024.377000", "162024.390000", "162024.394000", "162024.396000", "162024.402000", "162024.405000", "162024.408000", "162024.411000", "162024.414000", "162024.417000", "162024.420000", "162024.423000", "162024.426000", "162024.429000", "162024.432000", "162024.435000", "162024.438000", "162024.441000", "162024.444000", "162024.447000", "162044.295000", "162044.298000", "162044.301000", "162044.315000", "162044.318000", "162044.320000", "162044.323000", "162044.326000", "162044.335000", "162044.338000", "162044.341000", "162044.344000", "162044.347000", "162044.350000", "162044.353000", "162044.356000", "162044.359000", "162044.365000", "162044.368000", "162044.377000", "162104.295000", "162104.298000", "162104.301000", "162104.304000", "162104.307000", "162104.310000", "162104.313000", "162104.316000", "162104.318000", "162104.321000", "162104.324000", "162104.327000", "162104.330000", "162104.333000", "162104.336000", "162104.339000", "162104.342000", "162104.345000", "162104.348000", "162104.351000", "162104.354000", "162124.295000", "162124.298000", "162124.301000", "162124.304000", "162124.307000", "162124.310000", "162124.313000", "162124.316000", "162124.319000", "162124.322000", "162124.328000", "162124.331000", "162124.334000", "162124.337000", "162124.340000", "162124.343000", "162124.346000", "162124.349000", "162124.352000", "162124.355000", "162154.998000", "162155.002000", "162155.005000", "162155.008000", "162155.011000", "162155.014000", "162155.018000", "162155.021000", "162155.024000", "162155.027000", "162155.030000", "162155.034000", "162155.037000", "162155.040000", "162155.044000", "162155.047000", "162155.050000", "162155.053000", "162155.056000", "162155.060000", "162155.063000", "162155.067000", "162155.070000"],
      "InstanceNumber": [1, 2, 3, 4, 5, 6, 7, 8, 9, 10, 11, 12, 13, 14, 15, 16, 17, 18, 19, 20, 21, 22, 23, 24, 25, 26, 27, 28, 29, 30, 31, 32, 33, 34, 35, 36, 37, 38, 39, 40, 41, 42, 43, 44, 45, 46, 47, 48, 49, 50, 51, 52, 53, 54, 55, 56, 57, 58, 59, 60, 61, 62, 63, 64, 65, 66, 67, 68, 69, 70, 71, 72, 73, 74, 75, 76, 77, 78, 79, 80, 81, 82, 83, 84, 85, 86, 87, 88, 89, 90, 91, 92, 93, 94, 95, 96, 97, 98, 99, 100, 101, 102, 103, 104, 105, 106, 107, 108, 109, 110, 111, 112, 113, 114, 115, 116, 117, 118, 119],
      "LargestImagePixelValue": [46329, 45024, 44148, 43803, 43629, 43500, 43645, 43337, 43279, 43114, 43265, 43479, 43287, 43170, 43703, 43566, 43632, 43097, 43188, 43249, 43497, 43624, 43366, 43575, 43180, 43812, 43580, 43766, 43609, 43331, 43109, 43543, 43941, 43018, 43234, 42460, 43469, 43099, 43049, 42851, 43098, 42629, 42863, 42940, 43065, 43156, 43220, 43136, 43094, 43782, 42882, 42611, 42945, 43276, 43089, 43597, 43048, 43243, 43029, 43322, 43321, 43609, 42974, 43349, 43128, 43278, 42800, 43077, 42546, 43176, 42085, 42355, 42561, 42956, 42750, 42546, 42831, 42781, 42577, 42919, 42608, 43174, 41879, 42534, 42284, 42646, 42364, 42237, 42502, 41275, 41886, 42019, 42054, 41971, 41890, 42089, 42048, 42009, 42135, 42348, 42071, 42033, 42117, 42007, 41916, 42260, 42262, 41972, 42152, 42303, 42201, 41514, 42744, 41838, 41361, 42228, 42012, 42408, 42452],
      "WindowCenter": [10105.0, 10063.0, 10028.0, 10020.0, 10021.0, 10019.0, 10009.0, 10009.0, 10019.0, 10003.0, 10000.0, 10016.0, 10038.0, 10040.0, 10038.0, 10029.0, 10004.0, 9995.0, 9993.0, 10000.0, 10010.0, 10009.0, 10007.0, 10017.0, 10020.0, 10034.0, 10030.0, 10026.0, 10019.0, 10021.0, 10020.0, 10021.0, 10046.0, 10033.0, 10023.0, 10017.0, 10021.0, 10002.0, 9987.0, 9984.0, 10011.0, 10000.0, 9981.0, 9975.0, 9983.0, 9989.0, 9981.0, 9983.0, 9990.0, 9988.0, 9983.0, 9983.0, 9985.0, 9992.0, 10000.0, 10000.0, 10007.0, 10009.0, 9994.0, 10001.0, 10001.0, 9992.0, 9981.0, 9987.0, 10000.0, 10010.0, 10004.0, 9983.0, 9978.0, 9978.0, 9962.0, 9962.0, 9974.0, 10007.0, 10009.0, 9984.0, 9985.0, 9995.0, 10015.0, 10022.0, 10017.0, 10009.0, 9966.0, 9958.0, 9985.0, 10017.0, 10010.0, 9993.0, 9989.0, 9959.0, 9975.0, 9966.0, 9981.0, 9977.0, 9965.0, 9970.0, 9972.0, 9972.0, 9987.0, 9998.0, 9984.0, 9993.0, 10000.0, 9984.0, 9984.0, 9999.0, 9982.0, 9973.0, 9973.0, 10002.0, 10003.0, 9999.0, 9997.0, 9996.0, 9988.0, 9992.0, 10020.0, 10048.0, 10023.0],
      "WindowWidth": [21346.0, 21239.0, 21152.0, 21134.0, 21138.0, 21129.0, 21103.0, 21103.0, 21124.0, 21089.0, 21075.0, 21114.0, 21167.0, 21170.0, 21167.0, 21145.0, 21090.0, 21070.0, 21067.0, 21084.0, 21105.0, 21101.0, 21092.0, 21118.0, 21127.0, 21155.0, 21152.0, 21138.0, 21125.0, 21133.0, 21127.0, 21131.0, 21187.0, 21158.0, 21134.0, 21125.0, 21130.0, 21085.0, 21049.0, 21045.0, 21105.0, 21084.0, 21040.0, 21023.0, 21043.0, 21052.0, 21033.0, 21040.0, 21056.0, 21049.0, 21042.0, 21044.0, 21048.0, 21063.0, 21082.0, 21078.0, 21095.0, 21100.0, 21067.0, 21084.0, 21084.0, 21061.0, 21039.0, 21049.0, 21081.0, 21101.0, 21090.0, 21042.0, 21036.0, 21035.0, 21003.0, 21003.0, 21031.0, 21105.0, 21118.0, 21055.0, 21048.0, 21072.0, 21118.0, 21130.0, 21121.0, 21104.0, 21007.0, 20984.0, 21050.0, 21125.0, 21108.0, 21067.0, 21057.0, 20996.0, 21033.0, 21009.0, 21042.0, 21036.0, 21003.0, 21014.0, 21020.0, 21023.0, 21055.0, 21079.0, 21050.0, 21071.0, 21086.0, 21050.0, 21052.0, 21084.0, 21045.0, 21026.0, 21025.0, 21096.0, 21097.0, 21098.0, 21079.0, 21081.0, 21064.0, 21067.0, 21134.0, 21197.0, 21136.0]
    },
    "slices": {}
  }
}