{
  "AcquisitionMatrixPE": 104,
  "AcquisitionNumber": 1,
  "AcquisitionTime": "16:47:9.707500",
  "BandwidthPerPixelPhaseEncode": 17.17,
  "BaseResolution": 104,
  "BodyPartExamined": "BRAIN",
  "CoilString": "HC1-7;NC1_2",
  "ConsistencyInfo": "N4_VE11C_LATEST_20160120",
  "ConversionSoftware": "dcm2niix",
  "ConversionSoftwareVersion": "v1.0.20190720  (JP2:OpenJPEG) GCC7.3.0",
  "DerivedVendorReportedEchoSpacing": 0.000560011,
  "DeviceSerialNumber": "167006",
  "DwellTime": 2.1e-06,
  "EchoTime": 0.037,
  "EchoTrainLength": 104,
  "EffectiveEchoSpacing": 0.000560011,
  "FlipAngle": 52,
  "ImageComments": "Unaliased_MB4_PE3_LB",
  "ImageOrientationPatientDICOM": [0.998601, 0.0433548, 0.0302703, -0.0296378, 0.933023, -0.358594],
  "ImageType": [
    "ORIGINAL",
    "PRIMARY",
    "M",
    "MB",
    "ND",
    "MOSAIC"
],
  "ImagingFrequency": 123.259,
  "InPlanePhaseEncodingDirectionDICOM": "COL",
  "InstitutionAddress": "Chemin_Queen-Mary_4565_Montreal_District_CA_H3W_1W5",
  "InstitutionName": "IUGM",
  "InstitutionalDepartmentName": "Department",
  "MRAcquisitionType": "2D",
  "MagneticFieldStrength": 3,
  "Manufacturer": "Siemens",
  "ManufacturersModelName": "Prisma_fit",
  "Modality": "MR",
  "MultibandAccelerationFactor": 4,
  "PartialFourier": 1,
  "PatientPosition": "HFS",
  "PercentPhaseFOV": 100,
  "PhaseEncodingDirection": "j",
  "PhaseEncodingSteps": 104,
  "PhaseResolution": 1,
  "PixelBandwidth": 2290,
  "ProcedureStepDescription": "hcptrt_generic",
  "ProtocolName": "func_task-motor_run-1",
  "PulseSequenceDetails": "%CustomerSeq%_cmrr_mbep2d_bold",
  "ReceiveCoilActiveElements": "HC1-7;NC1,2",
  "ReceiveCoilName": "HeadNeck_64",
  "ReconMatrixPE": 104,
  "RepetitionTime": 1.49,
  "SAR": 0.0378434,
  "ScanOptions": "FS",
  "ScanningSequence": "EP",
  "SequenceName": "epfid2d1_104",
  "SequenceVariant": "SK_SS",
  "SeriesDescription": "func_task-motor_run-1",
  "SeriesNumber": 30,
  "ShimSetting": [634, -7180, -8866, 581, 130, 61, -43, -20],
  "SliceThickness": 2,
  "SliceTiming": [0, 0.785, 0.0975, 0.8825, 0.195, 0.98, 0.295, 1.0775, 0.3925, 1.175, 0.49, 1.275, 0.5875, 1.3725, 0.685, 0, 0.785, 0.0975, 0.8825, 0.195, 0.98, 0.295, 1.0775, 0.3925, 1.175, 0.49, 1.275, 0.5875, 1.3725, 0.685, 0, 0.785, 0.0975, 0.8825, 0.195, 0.98, 0.295, 1.0775, 0.3925, 1.175, 0.49, 1.275, 0.5875, 1.3725, 0.685, 0, 0.785, 0.0975, 0.8825, 0.195, 0.98, 0.295, 1.0775, 0.3925, 1.175, 0.49, 1.275, 0.5875, 1.3725, 0.685],
  "SoftwareVersions": "syngo_MR_E11",
  "SpacingBetweenSlices": 2,
  "StationName": "MRC35049",
  "TaskName": "motor",
  "TotalReadoutTime": 0.0576811,
  "TxRefAmp": 249.151,
  "WipMemBlock": "c2aaa101-82c3-4f32-8c13-1a59254d9c57||Sequence: R016 ve11c/master r/e634e98; Dec 19 2017 11:00:25 by eja",
  "dcmmeta_affine": [
    [-1.9972021579742432, -0.059275586158037186, 0.08757929503917694, 106.32955932617188],
    [-0.08670968562364578, 1.8660461902618408, -0.7143900990486145, -59.599945068359375],
    [0.06054056063294411, 0.7171877026557922, 1.8660054206848145, -74.58031463623047],
    [0.0, 0.0, 0.0, 1.0]
],
  "dcmmeta_reorient_transform": [
    [0.0, -1.0, 0.0, 103.0],
    [1.0, 0.0, 0.0, 0.0],
    [0.0, 0.0, 1.0, 0.0],
    [0.0, 0.0, 0.0, 1.0]
],
  "dcmmeta_shape": [104, 104, 60, 144],
  "dcmmeta_slice_dim": 2,
  "dcmmeta_version": 0.6,
  "global": {
    "const": {
      "AcquisitionMatrix": [104, 0, 0, 104],
      "AngioFlag": "N",
      "BitsAllocated": 16,
      "BitsStored": 16,
      "BodyPartExamined": "BRAIN",
      "Columns": 832,
      "EchoNumbers": 1,
      "EchoTime": 37.0,
      "EchoTrainLength": 104,
      "FlipAngle": 52.0,
      "HighBit": 15,
      "ImageOrientationPatient": [0.99860105540217, 0.04335484117807, 0.03027028074037, -0.0296377921832, 0.93302307139885, -0.3585938503544],
      "ImagePositionPatient": [-805.62942894041, -843.40592681929, 238.30958095156],
      "ImageType": [
        "ORIGINAL",
        "PRIMARY",
        "M",
        "MB",
        "ND",
        "MOSAIC"
],
      "ImagedNucleus": "1H",
      "ImagingFrequency": 123.259322,
      "InPlanePhaseEncodingDirection": "COL",
      "MRAcquisitionType": "2D",
      "MagneticFieldStrength": 3.0,
      "Manufacturer": "SIEMENS",
      "ManufacturerModelName": "Prisma_fit",
      "Modality": "MR",
      "NumberOfAverages": 1.0,
      "NumberOfPhaseEncodingSteps": 104,
      "PercentPhaseFieldOfView": 100.0,
      "PercentSampling": 100.0,
      "PerformedProcedureStepStartTime": "153609.657000",
      "PhotometricInterpretation": "MONOCHROME2",
      "PixelBandwidth": 2290.0,
      "PixelRepresentation": 0,
      "PixelSpacing": [2.0, 2.0],
      "ProtocolName": "func_task-motor_run-1",
      "RepetitionTime": 1490.0,
      "Rows": 832,
      "SAR": 0.03784337881878,
      "SamplesPerPixel": 1,
      "ScanOptions": "FS",
      "ScanningSequence": "EP",
      "SequenceName": "epfid2d1_104",
      "SequenceVariant": [
        "SK",
        "SS"
],
      "SeriesDescription": "func_task-motor_run-1",
      "SeriesNumber": 30,
      "SeriesTime": "164824.328000",
      "SliceLocation": -43.638696238826,
      "SliceThickness": 2.0,
      "SmallestImagePixelValue": 0,
      "SoftwareVersions": "syngo MR E11",
      "SpacingBetweenSlices": 1.9999999413846,
      "SpecificCharacterSet": "ISO_IR 100",
      "StudyID": "1",
      "StudyTime": "153609.596000",
      "TransmitCoilName": "Body",
      "VariableFlipAngleFlag": "N",
      "WindowCenterWidthExplanation": "Algo1",
      "dBdt": 0.0},
    "slices": {}
  },
  "time": {
    "samples": {
      "AcquisitionNumber": [1, 2, 3, 4, 5, 6, 7, 8, 9, 10, 11, 12, 13, 14, 15, 16, 17, 18, 19, 20, 21, 22, 23, 24, 25, 26, 27, 28, 29, 30, 31, 32, 33, 34, 35, 36, 37, 38, 39, 40, 41, 42, 43, 44, 45, 46, 47, 48, 49, 50, 51, 52, 53, 54, 55, 56, 57, 58, 59, 60, 61, 62, 63, 64, 65, 66, 67, 68, 69, 70, 71, 72, 73, 74, 75, 76, 77, 78, 79, 80, 81, 82, 83, 84, 85, 86, 87, 88, 89, 90, 91, 92, 93, 94, 95, 96, 97, 98, 99, 100, 101, 102, 103, 104, 105, 106, 107, 108, 109, 110, 111, 112, 113, 114, 115, 116, 117, 118, 119, 120, 121, 122, 123, 124, 125, 126, 127, 128, 129, 130, 131, 132, 133, 134, 135, 136, 137, 138, 139, 140, 141, 142, 143, 144],
      "AcquisitionTime": ["164709.707500", "164711.197500", "164712.687500", "164714.177500", "164715.667500", "164717.157500", "164718.647500", "164720.137500", "164721.627500", "164723.117500", "164724.607500", "164726.097500", "164727.587500", "164729.077500", "164730.567500", "164732.057500", "164733.547500", "164735.037500", "164736.527500", "164738.017500", "164739.507500", "164740.997500", "164742.487500", "164743.977500", "164745.467500", "164746.957500", "164748.447500", "164749.937500", "164751.427500", "164752.917500", "164754.407500", "164755.897500", "164757.387500", "164758.877500", "164800.367500", "164801.857500", "164803.347500", "164804.837500", "164806.327500", "164807.817500", "164809.307500", "164810.797500", "164812.287500", "164813.777500", "164815.267500", "164816.757500", "164818.247500", "164819.737500", "164821.227500", "164822.717500", "164824.207500", "164825.697500", "164827.187500", "164828.677500", "164830.167500", "164831.657500", "164833.147500", "164834.637500", "164836.127500", "164837.617500", "164839.107500", "164840.597500", "164842.087500", "164843.577500", "164845.067500", "164846.557500", "164848.047500", "164849.537500", "164851.027500", "164852.517500", "164854.007500", "164855.497500", "164856.987500", "164858.477500", "164859.967500", "164901.457500", "164902.947500", "164904.437500", "164905.927500", "164907.417500", "164908.907500", "164910.397500", "164911.887500", "164913.377500", "164914.867500", "164916.357500", "164917.847500", "164919.337500", "164920.827500", "164922.317500", "164923.807500", "164925.297500", "164926.787500", "164928.277500", "164929.767500", "164931.257500", "164932.747500", "164934.237500", "164935.727500", "164937.217500", "164938.707500", "164940.197500", "164941.687500", "164943.177500", "164944.667500", "164946.157500", "164947.647500", "164949.137500", "164950.627500", "164952.117500", "164953.607500", "164955.097500", "164956.587500", "164958.077500", "164959.567500", "165001.057500", "165002.547500", "165004.037500", "165005.527500", "165007.017500", "165008.507500", "165009.997500", "165011.487500", "165012.977500", "165014.467500", "165015.957500", "165017.447500", "165018.937500", "165020.427500", "165021.917500", "165023.407500", "165024.897500", "165026.387500", "165027.877500", "165029.367500", "165030.857500", "165032.347500", "165033.837500", "165035.327500", "165036.817500", "165038.307500", "165039.797500", "165041.287500", "165042.777500"],
      "ContentTime": ["164824.331000", "164824.335000", "164824.338000", "164824.342000", "164824.346000", "164824.349000", "164824.353000", "164824.356000", "164824.359000", "164824.364000", "164824.368000", "164824.371000", "164824.374000", "164824.378000", "164824.387000", "164824.390000", "164824.394000", "164824.397000", "164824.406000", "164824.418000", "164824.423000", "164844.295000", "164844.298000", "164844.301000", "164844.305000", "164844.308000", "164844.311000", "164844.314000", "164844.317000", "164844.320000", "164844.323000", "164844.326000", "164844.329000", "164844.332000", "164844.335000", "164844.338000", "164844.341000", "164844.350000", "164844.353000", "164844.356000", "164844.358000", "164904.295000", "164904.298000", "164904.301000", "164904.304000", "164904.307000", "164904.310000", "164904.313000", "164904.316000", "164904.319000", "164904.322000", "164904.325000", "164904.328000", "164904.331000", "164904.334000", "164904.337000", "164904.340000", "164904.346000", "164904.349000", "164904.358000", "164904.361000", "164924.295000", "164924.298000", "164924.301000", "164924.304000", "164924.307000", "164924.310000", "164924.313000", "164924.316000", "164924.319000", "164924.322000", "164924.325000", "164924.336000", "164924.339000", "164924.342000", "164924.345000", "164924.356000", "164924.359000", "164924.362000", "164924.365000", "164924.368000", "164944.295000", "164944.298000", "164944.301000", "164944.304000", "164944.307000", "164944.310000", "164944.313000", "164944.316000", "164944.319000", "164944.322000", "164944.326000", "164944.329000", "164944.332000", "164944.335000", "164944.338000", "164944.341000", "164944.344000", "164944.347000", "164944.350000", "164944.353000", "165024.296000", "165024.299000", "165024.302000", "165024.305000", "165024.308000", "165024.311000", "165024.314000", "165024.317000", "165024.320000", "165024.329000", "165024.332000", "165024.335000", "165024.338000", "165024.341000", "165024.344000", "165024.347000", "165024.350000", "165024.353000", "165024.356000", "165024.359000", "165024.362000", "165024.365000", "165024.368000", "165024.371000", "165024.374000", "165024.377000", "165024.380000", "165024.383000", "165024.386000", "165044.506000", "165044.509000", "165044.512000", "165044.515000", "165044.519000", "165044.522000", "165044.525000", "165044.528000", "165044.531000", "165044.535000", "165044.538000", "165044.541000", "165044.544000", "165044.548000"],
      "InstanceCreationTime": ["164824.331000", "164824.335000", "164824.338000", "164824.342000", "164824.346000", "164824.349000", "164824.353000", "164824.356000", "164824.359000", "164824.364000", "164824.368000", "164824.371000", "164824.374000", "164824.378000", "164824.387000", "164824.390000", "164824.394000", "164824.397000", "164824.406000", "164824.418000", "164824.423000", "164844.295000", "164844.298000", "164844.301000", "164844.305000", "164844.308000", "164844.311000", "164844.314000", "164844.317000", "164844.320000", "164844.323000", "164844.326000", "164844.329000", "164844.332000", "164844.335000", "164844.338000", "164844.341000", "164844.350000", "164844.353000", "164844.356000", "164844.358000", "164904.295000", "164904.298000", "164904.301000", "164904.304000", "164904.307000", "164904.310000", "164904.313000", "164904.316000", "164904.319000", "164904.322000", "164904.325000", "164904.328000", "164904.331000", "164904.334000", "164904.337000", "164904.340000", "164904.346000", "164904.349000", "164904.358000", "164904.361000", "164924.295000", "164924.298000", "164924.301000", "164924.304000", "164924.307000", "164924.310000", "164924.313000", "164924.316000", "164924.319000", "164924.322000", "164924.325000", "164924.336000", "164924.339000", "164924.342000", "164924.345000", "164924.356000", "164924.359000", "164924.362000", "164924.365000", "164924.368000", "164944.295000", "164944.298000", "164944.301000", "164944.304000", "164944.307000", "164944.310000", "164944.313000", "164944.316000", "164944.319000", "164944.322000", "164944.326000", "164944.329000", "164944.332000", "164944.335000", "164944.338000", "164944.341000", "164944.344000", "164944.347000", "164944.350000", "164944.353000", "165024.296000", "165024.299000", "165024.302000", "165024.305000", "165024.308000", "165024.311000", "165024.314000", "165024.317000", "165024.320000", "165024.329000", "165024.332000", "165024.335000", "165024.338000", "165024.341000", "165024.344000", "165024.347000", "165024.350000", "165024.353000", "165024.356000", "165024.359000", "165024.362000", "165024.365000", "165024.368000", "165024.371000", "165024.374000", "165024.377000", "165024.380000", "165024.383000", "165024.386000", "165044.506000", "165044.509000", "165044.512000", "165044.515000", "165044.519000", "165044.522000", "165044.525000", "165044.528000", "165044.531000", "165044.535000", "165044.538000", "165044.541000", "165044.544000", "165044.548000"],
      "InstanceNumber": [1, 2, 3, 4, 5, 6, 7, 8, 9, 10, 11, 12, 13, 14, 15, 16, 17, 18, 19, 20, 21, 22, 23, 24, 25, 26, 27, 28, 29, 30, 31, 32, 33, 34, 35, 36, 37, 38, 39, 40, 41, 42, 43, 44, 45, 46, 47, 48, 49, 50, 51, 52, 53, 54, 55, 56, 57, 58, 59, 60, 61, 62, 63, 64, 65, 66, 67, 68, 69, 70, 71, 72, 73, 74, 75, 76, 77, 78, 79, 80, 81, 82, 83, 84, 85, 86, 87, 88, 89, 90, 91, 92, 93, 94, 95, 96, 97, 98, 99, 100, 101, 102, 103, 104, 105, 106, 107, 108, 109, 110, 111, 112, 113, 114, 115, 116, 117, 118, 119, 120, 121, 122, 123, 124, 125, 126, 127, 128, 129, 130, 131, 132, 133, 134, 135, 136, 137, 138, 139, 140, 141, 142, 143, 144],
      "LargestImagePixelValue": [42169, 41821, 41350, 40094, 40109, 39497, 39707, 39175, 39691, 39371, 38924, 39010, 38954, 39105, 37825, 37975, 38975, 39413, 39983, 39516, 39365, 40324, 40250, 39601, 38686, 39056, 39226, 39134, 39368, 38569, 37758, 38316, 38946, 39527, 38999, 38028, 38356, 38820, 39932, 39775, 39277, 39474, 39361, 40040, 39730, 40115, 39391, 37700, 39588, 39498, 40044, 40549, 40257, 40260, 39518, 38265, 38740, 39291, 39765, 39403, 40277, 40846, 40582, 39634, 40297, 39917, 39846, 40541, 38876, 39338, 39865, 39646, 40291, 40411, 39750, 39460, 39444, 39757, 40210, 39098, 39280, 39465, 40138, 39855, 40040, 40156, 40730, 39078, 39127, 39722, 40481, 40399, 40689, 40759, 40787, 40311, 40137, 39482, 39890, 39588, 39182, 40034, 41063, 39878, 40153, 40596, 40820, 40579, 39854, 40576, 40556, 40505, 40684, 39808, 39975, 40537, 41011, 40819, 40367, 40323, 41003, 41043, 40090, 39173, 39353, 40944, 40548, 39934, 40335, 40603, 39865, 38511, 39645, 39617, 40111, 40034, 39166, 39697, 39793, 39806, 39746, 39508, 38228, 38836],
      "WindowCenter": [10045.0, 10015.0, 10024.0, 10020.0, 9987.0, 9953.0, 9948.0, 9958.0, 9984.0, 9989.0, 9988.0, 9977.0, 9961.0, 9951.0, 9957.0, 9978.0, 9993.0, 9970.0, 9965.0, 9958.0, 9959.0, 9983.0, 9984.0, 9977.0, 9978.0, 9961.0, 9960.0, 9951.0, 9983.0, 10007.0, 9999.0, 9962.0, 9952.0, 9958.0, 9962.0, 9969.0, 9960.0, 9944.0, 9946.0, 9948.0, 9969.0, 9978.0, 9953.0, 9937.0, 9927.0, 9944.0, 9959.0, 9958.0, 9977.0, 9962.0, 9957.0, 9954.0, 9946.0, 9961.0, 9969.0, 9977.0, 9968.0, 9962.0, 9958.0, 9975.0, 9999.0, 9989.0, 9982.0, 9979.0, 9974.0, 9956.0, 9954.0, 9970.0, 9980.0, 9978.0, 9948.0, 9928.0, 9934.0, 9959.0, 9973.0, 9971.0, 9950.0, 9938.0, 9954.0, 9958.0, 9985.0, 9986.0, 9983.0, 9967.0, 9964.0, 9965.0, 9981.0, 9972.0, 9971.0, 9961.0, 9958.0, 9961.0, 9987.0, 10002.0, 10001.0, 9984.0, 9969.0, 9952.0, 9965.0, 9984.0, 9998.0, 10004.0, 10000.0, 9991.0, 9998.0, 9982.0, 9971.0, 9980.0, 9987.0, 10000.0, 9974.0, 9962.0, 9961.0, 9955.0, 9973.0, 9968.0, 9959.0, 9958.0, 9961.0, 9981.0, 9988.0, 9989.0, 9981.0, 9981.0, 9961.0, 9971.0, 9970.0, 9975.0, 9973.0, 9962.0, 9956.0, 9957.0, 9977.0, 9960.0, 9954.0, 9962.0, 9962.0, 9959.0, 9940.0, 9936.0, 9945.0, 9965.0, 9967.0, 9947.0],
      "WindowWidth": [21222.0, 21139.0, 21152.0, 21153.0, 21066.0, 20991.0, 20974.0, 20999.0, 21056.0, 21069.0, 21067.0, 21047.0, 21008.0, 20983.0, 21005.0, 21055.0, 21082.0, 21025.0, 21008.0, 20996.0, 21004.0, 21052.0, 21054.0, 21040.0, 21043.0, 21008.0, 21006.0, 20984.0, 21051.0, 21111.0, 21098.0, 21012.0, 20983.0, 20994.0, 21008.0, 21032.0, 21011.0, 20967.0, 20966.0, 20975.0, 21027.0, 21042.0, 20987.0, 20943.0, 20923.0, 20960.0, 21003.0, 21007.0, 21037.0, 21008.0, 20991.0, 20980.0, 20966.0, 20995.0, 21023.0, 21048.0, 21028.0, 21009.0, 20995.0, 21035.0, 21083.0, 21060.0, 21043.0, 21044.0, 21027.0, 20988.0, 20982.0, 21017.0, 21050.0, 21041.0, 20968.0, 20923.0, 20935.0, 20991.0, 21030.0, 21026.0, 20977.0, 20949.0, 20984.0, 20999.0, 21060.0, 21058.0, 21048.0, 21013.0, 21006.0, 21009.0, 21042.0, 21031.0, 21029.0, 21004.0, 20990.0, 21000.0, 21061.0, 21095.0, 21089.0, 21052.0, 21022.0, 20988.0, 21012.0, 21054.0, 21093.0, 21102.0, 21084.0, 21067.0, 21089.0, 21046.0, 21020.0, 21041.0, 21062.0, 21087.0, 21028.0, 20998.0, 20994.0, 20990.0, 21030.0, 21012.0, 20991.0, 20987.0, 21001.0, 21043.0, 21059.0, 21060.0, 21041.0, 21052.0, 21009.0, 21019.0, 21017.0, 21033.0, 21026.0, 20996.0, 20988.0, 21004.0, 21042.0, 21002.0, 20981.0, 21000.0, 21014.0, 21000.0, 20953.0, 20940.0, 20963.0, 21014.0, 21030.0, 20979.0]
    },
    "slices": {}
  }
}