{
  "AcquisitionMatrixPE": 104,
  "AcquisitionNumber": 1,
  "AcquisitionTime": "16:15:36.047500",
  "BandwidthPerPixelPhaseEncode": 17.17,
  "BaseResolution": 104,
  "BodyPartExamined": "BRAIN",
  "CoilString": "HC1-7;NC1_2",
  "ConsistencyInfo": "N4_VE11C_LATEST_20160120",
  "ConversionSoftware": "dcm2niix",
  "ConversionSoftwareVersion": "v1.0.20190720  (JP2:OpenJPEG) GCC7.3.0",
  "DerivedVendorReportedEchoSpacing": 0.000560011,
  "DeviceSerialNumber": "167006",
  "DwellTime": 2.1e-06,
  "EchoTime": 0.037,
  "EchoTrainLength": 104,
  "EffectiveEchoSpacing": 0.000560011,
  "FlipAngle": 52,
  "ImageComments": "Unaliased_MB4_PE3_LB",
  "ImageOrientationPatientDICOM": [0.998601, 0.0433548, 0.0302703, -0.0296378, 0.933023, -0.358594],
  "ImageType": [
    "ORIGINAL",
    "PRIMARY",
    "M",
    "MB",
    "ND",
    "MOSAIC"
],
  "ImagingFrequency": 123.259,
  "InPlanePhaseEncodingDirectionDICOM": "COL",
  "InstitutionAddress": "Chemin_Queen-Mary_4565_Montreal_District_CA_H3W_1W5",
  "InstitutionName": "IUGM",
  "InstitutionalDepartmentName": "Department",
  "MRAcquisitionType": "2D",
  "MagneticFieldStrength": 3,
  "Manufacturer": "Siemens",
  "ManufacturersModelName": "Prisma_fit",
  "Modality": "MR",
  "MultibandAccelerationFactor": 4,
  "PartialFourier": 1,
  "PatientPosition": "HFS",
  "PercentPhaseFOV": 100,
  "PhaseEncodingDirection": "j",
  "PhaseEncodingSteps": 104,
  "PhaseResolution": 1,
  "PixelBandwidth": 2290,
  "ProcedureStepDescription": "hcptrt_generic",
  "ProtocolName": "func_task-emotional_run-1",
  "PulseSequenceDetails": "%CustomerSeq%_cmrr_mbep2d_bold",
  "ReceiveCoilActiveElements": "HC1-7;NC1,2",
  "ReceiveCoilName": "HeadNeck_64",
  "ReconMatrixPE": 104,
  "RepetitionTime": 1.49,
  "SAR": 0.037573,
  "ScanOptions": "FS",
  "ScanningSequence": "EP",
  "SequenceName": "epfid2d1_104",
  "SequenceVariant": "SK_SS",
  "SeriesDescription": "func_task-emotional_run-1",
  "SeriesNumber": 16,
  "ShimSetting": [634, -7180, -8866, 580, 130, 61, -43, -20],
  "SliceThickness": 2,
  "SliceTiming": [0, 0.7825, 0.0975, 0.8825, 0.195, 0.98, 0.295, 1.0775, 0.3925, 1.175, 0.49, 1.2725, 0.5875, 1.3725, 0.685, 0, 0.7825, 0.0975, 0.8825, 0.195, 0.98, 0.295, 1.0775, 0.3925, 1.175, 0.49, 1.2725, 0.5875, 1.3725, 0.685, 0, 0.7825, 0.0975, 0.8825, 0.195, 0.98, 0.295, 1.0775, 0.3925, 1.175, 0.49, 1.2725, 0.5875, 1.3725, 0.685, 0, 0.7825, 0.0975, 0.8825, 0.195, 0.98, 0.295, 1.0775, 0.3925, 1.175, 0.49, 1.2725, 0.5875, 1.3725, 0.685],
  "SoftwareVersions": "syngo_MR_E11",
  "SpacingBetweenSlices": 2,
  "StationName": "MRC35049",
  "TaskName": "emotional",
  "TotalReadoutTime": 0.0576811,
  "TxRefAmp": 249.151,
  "WipMemBlock": "55e965fd-430f-42ec-a5db-169a69d60366||Sequence: R016 ve11c/master r/e634e98; Dec 19 2017 11:00:25 by eja",
  "dcmmeta_affine": [
    [-1.9972021579742432, -0.059275586158037186, 0.08757929503917694, 106.32955932617188],
    [-0.08670968562364578, 1.8660461902618408, -0.7143900990486145, -59.599945068359375],
    [0.06054056063294411, 0.7171877026557922, 1.8660054206848145, -74.58031463623047],
    [0.0, 0.0, 0.0, 1.0]
],
  "dcmmeta_reorient_transform": [
    [0.0, -1.0, 0.0, 103.0],
    [1.0, 0.0, 0.0, 0.0],
    [0.0, 0.0, 1.0, 0.0],
    [0.0, 0.0, 0.0, 1.0]
],
  "dcmmeta_shape": [104, 104, 60, 92],
  "dcmmeta_slice_dim": 2,
  "dcmmeta_version": 0.6,
  "global": {
    "const": {
      "AcquisitionMatrix": [104, 0, 0, 104],
      "AngioFlag": "N",
      "BitsAllocated": 16,
      "BitsStored": 16,
      "BodyPartExamined": "BRAIN",
      "Columns": 832,
      "EchoNumbers": 1,
      "EchoTime": 37.0,
      "EchoTrainLength": 104,
      "FlipAngle": 52.0,
      "HighBit": 15,
      "ImageOrientationPatient": [0.99860105540217, 0.04335484117807, 0.03027028074037, -0.0296377921832, 0.93302307139885, -0.3585938503544],
      "ImagePositionPatient": [-805.62942894041, -843.40592681929, 238.30958095156],
      "ImageType": [
        "ORIGINAL",
        "PRIMARY",
        "M",
        "MB",
        "ND",
        "MOSAIC"
],
      "ImagedNucleus": "1H",
      "ImagingFrequency": 123.259312,
      "InPlanePhaseEncodingDirection": "COL",
      "MRAcquisitionType": "2D",
      "MagneticFieldStrength": 3.0,
      "Manufacturer": "SIEMENS",
      "ManufacturerModelName": "Prisma_fit",
      "Modality": "MR",
      "NumberOfAverages": 1.0,
      "NumberOfPhaseEncodingSteps": 104,
      "PercentPhaseFieldOfView": 100.0,
      "PercentSampling": 100.0,
      "PerformedProcedureStepStartTime": "153609.657000",
      "PhotometricInterpretation": "MONOCHROME2",
      "PixelBandwidth": 2290.0,
      "PixelRepresentation": 0,
      "PixelSpacing": [2.0, 2.0],
      "ProtocolName": "func_task-emotional_run-1",
      "RepetitionTime": 1490.0,
      "Rows": 832,
      "SAR": 0.03757303947227,
      "SamplesPerPixel": 1,
      "ScanOptions": "FS",
      "ScanningSequence": "EP",
      "SequenceName": "epfid2d1_104",
      "SequenceVariant": [
        "SK",
        "SS"
],
      "SeriesDescription": "func_task-emotional_run-1",
      "SeriesNumber": 16,
      "SeriesTime": "161655.089000",
      "SliceLocation": -43.638696238826,
      "SliceThickness": 2.0,
      "SmallestImagePixelValue": 0,
      "SoftwareVersions": "syngo MR E11",
      "SpacingBetweenSlices": 1.9999999413846,
      "SpecificCharacterSet": "ISO_IR 100",
      "StudyID": "1",
      "StudyTime": "153609.596000",
      "TransmitCoilName": "Body",
      "VariableFlipAngleFlag": "N",
      "dBdt": 0.0},
    "slices": {}
  },
  "time": {
    "samples": {
      "AcquisitionNumber": [1, 2, 3, 4, 5, 6, 7, 8, 9, 10, 11, 12, 13, 14, 15, 16, 17, 18, 19, 20, 21, 22, 23, 24, 25, 26, 27, 28, 29, 30, 31, 32, 33, 34, 35, 36, 37, 38, 39, 40, 41, 42, 43, 44, 45, 46, 47, 48, 49, 50, 51, 52, 53, 54, 55, 56, 57, 58, 59, 60, 61, 62, 63, 64, 65, 66, 67, 68, 69, 70, 71, 72, 73, 74, 75, 76, 77, 78, 79, 80, 81, 82, 83, 84, 85, 86, 87, 88, 89, 90, 91, 92],
      "AcquisitionTime": ["161536.047500", "161537.537500", "161539.027500", "161540.517500", "161542.007500", "161543.497500", "161544.987500", "161546.477500", "161547.967500", "161549.457500", "161550.947500", "161552.437500", "161553.927500", "161555.417500", "161556.907500", "161558.397500", "161559.887500", "161601.377500", "161602.867500", "161604.357500", "161605.847500", "161607.337500", "161608.827500", "161610.317500", "161611.807500", "161613.297500", "161614.787500", "161616.277500", "161617.767500", "161619.257500", "161620.747500", "161622.237500", "161623.727500", "161625.217500", "161626.707500", "161628.197500", "161629.687500", "161631.177500", "161632.667500", "161634.157500", "161635.647500", "161637.137500", "161638.627500", "161640.117500", "161641.607500", "161643.097500", "161644.587500", "161646.077500", "161647.567500", "161649.057500", "161650.547500", "161652.037500", "161653.527500", "161655.017500", "161656.507500", "161657.997500", "161659.487500", "161700.977500", "161702.467500", "161703.957500", "161705.447500", "161706.937500", "161708.427500", "161709.917500", "161711.407500", "161712.897500", "161714.387500", "161715.877500", "161717.367500", "161718.857500", "161720.347500", "161721.837500", "161723.327500", "161724.817500", "161726.307500", "161727.797500", "161729.287500", "161730.777500", "161732.267500", "161733.757500", "161735.247500", "161736.737500", "161738.227500", "161739.717500", "161741.207500", "161742.697500", "161744.187500", "161745.677500", "161747.167500", "161748.657500", "161750.147500", "161751.637500"],
      "ContentTime": ["161655.091000", "161655.095000", "161655.098000", "161655.101000", "161655.104000", "161655.115000", "161655.118000", "161655.122000", "161655.125000", "161655.128000", "161655.131000", "161655.134000", "161655.137000", "161655.140000", "161655.143000", "161655.146000", "161655.156000", "161655.160000", "161655.163000", "161655.166000", "161655.170000", "161655.174000", "161655.178000", "161715.057000", "161715.060000", "161715.063000", "161715.066000", "161715.069000", "161715.072000", "161715.075000", "161715.078000", "161715.081000", "161715.084000", "161715.087000", "161715.090000", "161715.093000", "161715.096000", "161715.099000", "161715.101000", "161715.104000", "161715.107000", "161715.110000", "161715.113000", "161715.116000", "161735.057000", "161735.060000", "161735.064000", "161735.067000", "161735.070000", "161735.073000", "161735.076000", "161735.079000", "161735.082000", "161735.085000", "161735.088000", "161735.091000", "161735.094000", "161735.098000", "161735.102000", "161735.105000", "161735.108000", "161735.112000", "161735.115000", "161735.118000", "161755.060000", "161755.063000", "161755.066000", "161755.069000", "161755.072000", "161755.076000", "161755.079000", "161755.082000", "161755.085000", "161755.088000", "161755.091000", "161755.094000", "161755.097000", "161755.100000", "161755.103000", "161755.106000", "161755.109000", "161755.112000", "161755.115000", "161755.118000", "161802.125000", "161802.128000", "161802.131000", "161802.134000", "161802.137000", "161802.140000", "161802.143000", "161802.146000"],
      "InstanceCreationTime": ["161655.091000", "161655.095000", "161655.098000", "161655.101000", "161655.104000", "161655.115000", "161655.118000", "161655.122000", "161655.125000", "161655.128000", "161655.131000", "161655.134000", "161655.137000", "161655.140000", "161655.143000", "161655.146000", "161655.156000", "161655.160000", "161655.163000", "161655.166000", "161655.170000", "161655.174000", "161655.178000", "161715.057000", "161715.060000", "161715.063000", "161715.066000", "161715.069000", "161715.072000", "161715.075000", "161715.078000", "161715.081000", "161715.084000", "161715.087000", "161715.090000", "161715.093000", "161715.096000", "161715.099000", "161715.101000", "161715.104000", "161715.107000", "161715.110000", "161715.113000", "161715.116000", "161735.057000", "161735.060000", "161735.064000", "161735.067000", "161735.070000", "161735.073000", "161735.076000", "161735.079000", "161735.082000", "161735.085000", "161735.088000", "161735.091000", "161735.094000", "161735.098000", "161735.102000", "161735.105000", "161735.108000", "161735.112000", "161735.115000", "161735.118000", "161755.060000", "161755.063000", "161755.066000", "161755.069000", "161755.072000", "161755.076000", "161755.079000", "161755.082000", "161755.085000", "161755.088000", "161755.091000", "161755.094000", "161755.097000", "161755.100000", "161755.103000", "161755.106000", "161755.109000", "161755.112000", "161755.115000", "161755.118000", "161802.125000", "161802.128000", "161802.131000", "161802.134000", "161802.137000", "161802.140000", "161802.143000", "161802.146000"],
      "InstanceNumber": [1, 2, 3, 4, 5, 6, 7, 8, 9, 10, 11, 12, 13, 14, 15, 16, 17, 18, 19, 20, 21, 22, 23, 24, 25, 26, 27, 28, 29, 30, 31, 32, 33, 34, 35, 36, 37, 38, 39, 40, 41, 42, 43, 44, 45, 46, 47, 48, 49, 50, 51, 52, 53, 54, 55, 56, 57, 58, 59, 60, 61, 62, 63, 64, 65, 66, 67, 68, 69, 70, 71, 72, 73, 74, 75, 76, 77, 78, 79, 80, 81, 82, 83, 84, 85, 86, 87, 88, 89, 90, 91, 92],
      "LargestImagePixelValue": [40835, 40098, 40329, 39482, 39100, 39856, 40423, 41221, 40630, 40209, 39405, 40471, 41271, 41234, 41780, 41170, 40664, 41462, 41454, 41604, 41018, 40921, 42240, 41750, 42184, 41817, 41364, 41821, 41833, 42356, 41495, 42371, 42716, 42528, 41975, 42224, 42368, 43003, 41911, 42143, 43405, 43248, 42656, 42630, 42861, 43701, 43400, 43048, 42305, 42066, 42785, 43497, 42808, 42727, 42424, 42384, 41942, 42348, 42874, 43278, 42971, 42790, 41787, 42610, 42811, 43205, 43057, 42724, 42590, 43011, 42365, 42980, 43010, 42667, 42387, 42465, 42844, 42944, 42767, 42684, 41990, 43098, 43111, 42995, 42376, 43038, 42739, 43168, 43282, 42452, 43036, 43435],
      "WindowCenter": [10033.0, 10005.0, 10012.0, 9988.0, 9962.0, 9971.0, 3230.0, 10002.0, 9979.0, 9961.0, 9948.0, 9967.0, 9997.0, 10011.0, 10006.0, 9973.0, 9967.0, 9987.0, 10015.0, 10010.0, 9992.0, 9982.0, 10005.0, 10008.0, 10008.0, 9980.0, 9969.0, 9973.0, 10002.0, 10021.0, 10009.0, 10013.0, 10023.0, 10003.0, 9979.0, 9981.0, 10019.0, 10054.0, 10034.0, 10027.0, 10017.0, 10015.0, 9994.0, 9974.0, 9990.0, 10023.0, 10018.0, 9991.0, 9959.0, 9958.0, 9988.0, 10017.0, 10013.0, 10002.0, 9978.0, 9959.0, 9951.0, 9955.0, 9980.0, 9999.0, 9993.0, 9982.0, 9968.0, 9974.0, 9998.0, 10017.0, 10000.0, 9974.0, 9964.0, 9970.0, 9983.0, 9991.0, 10000.0, 9994.0, 9981.0, 9983.0, 9999.0, 10012.0, 10005.0, 9989.0, 9986.0, 9998.0, 10020.0, 10033.0, 10027.0, 10018.0, 10027.0, 10024.0, 10015.0, 10006.0, 10011.0, 10047.0],
      "WindowCenterWidthExplanation": [
        "Algo1",
        "Algo1",
        "Algo1",
        "Algo1",
        "Algo1",
        "Algo1",
        "WINDOW1",
        "Algo1",
        "Algo1",
        "Algo1",
        "Algo1",
        "Algo1",
        "Algo1",
        "Algo1",
        "Algo1",
        "Algo1",
        "Algo1",
        "Algo1",
        "Algo1",
        "Algo1",
        "Algo1",
        "Algo1",
        "Algo1",
        "Algo1",
        "Algo1",
        "Algo1",
        "Algo1",
        "Algo1",
        "Algo1",
        "Algo1",
        "Algo1",
        "Algo1",
        "Algo1",
        "Algo1",
        "Algo1",
        "Algo1",
        "Algo1",
        "Algo1",
        "Algo1",
        "Algo1",
        "Algo1",
        "Algo1",
        "Algo1",
        "Algo1",
        "Algo1",
        "Algo1",
        "Algo1",
        "Algo1",
        "Algo1",
        "Algo1",
        "Algo1",
        "Algo1",
        "Algo1",
        "Algo1",
        "Algo1",
        "Algo1",
        "Algo1",
        "Algo1",
        "Algo1",
        "Algo1",
        "Algo1",
        "Algo1",
        "Algo1",
        "Algo1",
        "Algo1",
        "Algo1",
        "Algo1",
        "Algo1",
        "Algo1",
        "Algo1",
        "Algo1",
        "Algo1",
        "Algo1",
        "Algo1",
        "Algo1",
        "Algo1",
        "Algo1",
        "Algo1",
        "Algo1",
        "Algo1",
        "Algo1",
        "Algo1",
        "Algo1",
        "Algo1",
        "Algo1",
        "Algo1",
        "Algo1",
        "Algo1",
        "Algo1",
        "Algo1",
        "Algo1",
        "Algo1"
],
      "WindowWidth": [21209.0, 21138.0, 21144.0, 21085.0, 21025.0, 21037.0, 20858.0, 21100.0, 21051.0, 21011.0, 20985.0, 21023.0, 21085.0, 21120.0, 21104.0, 21032.0, 21020.0, 21063.0, 21128.0, 21115.0, 21075.0, 21053.0, 21103.0, 21115.0, 21108.0, 21044.0, 21019.0, 21026.0, 21092.0, 21135.0, 21112.0, 21119.0, 21140.0, 21094.0, 21042.0, 21042.0, 21134.0, 21210.0, 21168.0, 21151.0, 21119.0, 21115.0, 21070.0, 21025.0, 21060.0, 21136.0, 21124.0, 21061.0, 20993.0, 20991.0, 21054.0, 21124.0, 21115.0, 21085.0, 21033.0, 20994.0, 20976.0, 20982.0, 21039.0, 21082.0, 21067.0, 21041.0, 21015.0, 21024.0, 21079.0, 21123.0, 21082.0, 21025.0, 21002.0, 21015.0, 21047.0, 21064.0, 21083.0, 21070.0, 21044.0, 21045.0, 21083.0, 21114.0, 21097.0, 21065.0, 21055.0, 21078.0, 21130.0, 21159.0, 21146.0, 21125.0, 21145.0, 21137.0, 21118.0, 21098.0, 21106.0, 21187.0]
    },
    "slices": {}
  }
}