{
  "AcquisitionMatrixPE": 104,
  "AcquisitionNumber": 1,
  "AcquisitionTime": "10:30:22.575000",
  "BandwidthPerPixelPhaseEncode": 17.17,
  "BaseResolution": 104,
  "BodyPartExamined": "BRAIN",
  "CoilString": "HC1-7;NC1_2",
  "ConsistencyInfo": "N4_VE11C_LATEST_20160120",
  "ConversionSoftware": "dcm2niix",
  "ConversionSoftwareVersion": "v1.0.20200427",
  "DerivedVendorReportedEchoSpacing": 0.000560011,
  "DeviceSerialNumber": "167006",
  "DwellTime": 2.1e-06,
  "EchoTime": 0.037,
  "EchoTrainLength": 104,
  "EffectiveEchoSpacing": 0.000560011,
  "FlipAngle": 52,
  "ImageComments": "Unaliased_MB4_PE3_LB",
  "ImageOrientationPatientDICOM": [0.998107, 0.00143542, -0.0614895, -0.015331, 0.973979, -0.226119],
  "ImageType": [
    "ORIGINAL",
    "PRIMARY",
    "M",
    "MB",
    "ND",
    "MOSAIC"
],
  "ImagingFrequency": 123.259,
  "InPlanePhaseEncodingDirectionDICOM": "COL",
  "InstitutionAddress": "Chemin_Queen-Mary_4565_Montreal_District_CA_H3W_1W5",
  "InstitutionName": "IUGM",
  "InstitutionalDepartmentName": "Department",
  "MRAcquisitionType": "2D",
  "MagneticFieldStrength": 3,
  "Manufacturer": "Siemens",
  "ManufacturersModelName": "Prisma_fit",
  "Modality": "MR",
  "MultibandAccelerationFactor": 4,
  "PartialFourier": 1,
  "PatientPosition": "HFS",
  "PercentPhaseFOV": 100,
  "PercentSampling": 100,
  "PhaseEncodingDirection": "j",
  "PhaseEncodingSteps": 104,
  "PhaseResolution": 1,
  "PixelBandwidth": 2290,
  "ProcedureStepDescription": "hcptrt_generic",
  "ProtocolName": "func_task-wm_run-1",
  "PulseSequenceDetails": "%CustomerSeq%_cmrr_mbep2d_bold",
  "ReceiveCoilActiveElements": "HC1-7;NC1,2",
  "ReceiveCoilName": "HeadNeck_64",
  "ReconMatrixPE": 104,
  "RepetitionTime": 1.49,
  "SAR": 0.0303541,
  "ScanOptions": "FS",
  "ScanningSequence": "EP",
  "SequenceName": "epfid2d1_104",
  "SequenceVariant": "SK_SS",
  "SeriesDescription": "func_task-wm_run-1",
  "SeriesNumber": 14,
  "ShimSetting": [596, -7255, -8854, 591, -53, -290, 17, 59],
  "SliceThickness": 2,
  "SliceTiming": [0, 0.785, 0.0975, 0.8825, 0.1975, 0.98, 0.295, 1.0775, 0.3925, 1.1775, 0.49, 1.275, 0.5875, 1.3725, 0.6875, 0, 0.785, 0.0975, 0.8825, 0.1975, 0.98, 0.295, 1.0775, 0.3925, 1.1775, 0.49, 1.275, 0.5875, 1.3725, 0.6875, 0, 0.785, 0.0975, 0.8825, 0.1975, 0.98, 0.295, 1.0775, 0.3925, 1.1775, 0.49, 1.275, 0.5875, 1.3725, 0.6875, 0, 0.785, 0.0975, 0.8825, 0.1975, 0.98, 0.295, 1.0775, 0.3925, 1.1775, 0.49, 1.275, 0.5875, 1.3725, 0.6875],
  "SoftwareVersions": "syngo_MR_E11",
  "SpacingBetweenSlices": 2,
  "StationName": "MRC35049",
  "TaskName": "wm",
  "TotalReadoutTime": 0.0576811,
  "TxRefAmp": 220.508,
  "WipMemBlock": "aea721df-8a62-4146-a515-f35e5ef5cd7d||Sequence: R016 ve11c/master r/e634e98; Dec 19 2017 11:00:25 by eja",
  "dcmmeta_affine": [
    [-1.996213436126709, -0.030662043020129204, -0.1191297322511673, 107.77902221679688],
    [-0.0028708374593406916, 1.9479581117630005, -0.4532669484615326, -73.028076171875],
    [-0.12297891080379486, 0.4522377848625183, 1.9443140029907227, -51.27632141113281],
    [0.0, 0.0, 0.0, 1.0]
],
  "dcmmeta_reorient_transform": [
    [0.0, -1.0, 0.0, 103.0],
    [1.0, 0.0, 0.0, 0.0],
    [0.0, 0.0, 1.0, 0.0],
    [0.0, 0.0, 0.0, 1.0]
],
  "dcmmeta_shape": [104, 104, 60, 202],
  "dcmmeta_slice_dim": 2,
  "dcmmeta_version": 0.6,
  "global": {
    "const": {
      "AcquisitionMatrix": [104, 0, 0, 104],
      "AngioFlag": "N",
      "BitsAllocated": 16,
      "BitsStored": 16,
      "BodyPartExamined": "BRAIN",
      "Columns": 832,
      "EchoNumbers": 1,
      "EchoTime": 37.0,
      "EchoTrainLength": 104,
      "FlipAngle": 52.0,
      "HighBit": 15,
      "ImageOrientationPatient": [0.99810670094095, 0.00143541867419, -0.0614894552749, -0.0153310217349, 0.97397905738804, -0.226118896915],
      "ImagePositionPatient": [-820.08152597282, -837.71335070609, 204.68305139629],
      "ImageType": [
        "ORIGINAL",
        "PRIMARY",
        "M",
        "MB",
        "ND",
        "MOSAIC"
],
      "ImagedNucleus": "1H",
      "ImagingFrequency": 123.259099,
      "InPlanePhaseEncodingDirection": "COL",
      "MRAcquisitionType": "2D",
      "MagneticFieldStrength": 3.0,
      "Manufacturer": "SIEMENS",
      "ManufacturerModelName": "Prisma_fit",
      "Modality": "MR",
      "NumberOfAverages": 1.0,
      "NumberOfPhaseEncodingSteps": 104,
      "PercentPhaseFieldOfView": 100.0,
      "PercentSampling": 100.0,
      "PerformedProcedureStepStartTime": "100721.125000",
      "PhotometricInterpretation": "MONOCHROME2",
      "PixelBandwidth": 2290.0,
      "PixelRepresentation": 0,
      "PixelSpacing": [2.0, 2.0],
      "ProtocolName": "func_task-wm_run-1",
      "RepetitionTime": 1490.0,
      "Rows": 832,
      "SAR": 0.03035414452428,
      "SamplesPerPixel": 1,
      "ScanOptions": "FS",
      "ScanningSequence": "EP",
      "SequenceName": "epfid2d1_104",
      "SequenceVariant": [
        "SK",
        "SS"
],
      "SeriesDescription": "func_task-wm_run-1",
      "SeriesNumber": 14,
      "SeriesTime": "103124.561000",
      "SliceLocation": -39.717873076397,
      "SliceThickness": 2.0,
      "SmallestImagePixelValue": 0,
      "SoftwareVersions": "syngo MR E11",
      "SpacingBetweenSlices": 1.9999999630667,
      "SpecificCharacterSet": "ISO_IR 100",
      "StudyID": "1",
      "StudyTime": "100721.040000",
      "TransmitCoilName": "Body",
      "VariableFlipAngleFlag": "N",
      "WindowCenterWidthExplanation": "Algo1",
      "dBdt": 0.0},
    "slices": {}
  },
  "time": {
    "samples": {
      "AcquisitionNumber": [1, 2, 3, 4, 5, 6, 7, 8, 9, 10, 11, 12, 13, 14, 15, 16, 17, 18, 19, 20, 21, 22, 23, 24, 25, 26, 27, 28, 29, 30, 31, 32, 33, 34, 35, 36, 37, 38, 39, 40, 41, 42, 43, 44, 45, 46, 47, 48, 49, 50, 51, 52, 53, 54, 55, 56, 57, 58, 59, 60, 61, 62, 63, 64, 65, 66, 67, 68, 69, 70, 71, 72, 73, 74, 75, 76, 77, 78, 79, 80, 81, 82, 83, 84, 85, 86, 87, 88, 89, 90, 91, 92, 93, 94, 95, 96, 97, 98, 99, 100, 101, 102, 103, 104, 105, 106, 107, 108, 109, 110, 111, 112, 113, 114, 115, 116, 117, 118, 119, 120, 121, 122, 123, 124, 125, 126, 127, 128, 129, 130, 131, 132, 133, 134, 135, 136, 137, 138, 139, 140, 141, 142, 143, 144, 145, 146, 147, 148, 149, 150, 151, 152, 153, 154, 155, 156, 157, 158, 159, 160, 161, 162, 163, 164, 165, 166, 167, 168, 169, 170, 171, 172, 173, 174, 175, 176, 177, 178, 179, 180, 181, 182, 183, 184, 185, 186, 187, 188, 189, 190, 191, 192, 193, 194, 195, 196, 197, 198, 199, 200, 201, 202],
      "AcquisitionTime": ["103022.575000", "103024.065000", "103025.555000", "103027.045000", "103028.535000", "103030.025000", "103031.515000", "103033.005000", "103034.495000", "103035.985000", "103037.475000", "103038.965000", "103040.455000", "103041.945000", "103043.435000", "103044.925000", "103046.415000", "103047.905000", "103049.395000", "103050.885000", "103052.375000", "103053.865000", "103055.355000", "103056.845000", "103058.335000", "103059.825000", "103101.315000", "103102.805000", "103104.295000", "103105.785000", "103107.275000", "103108.765000", "103110.255000", "103111.745000", "103113.235000", "103114.725000", "103116.215000", "103117.705000", "103119.195000", "103120.685000", "103122.175000", "103123.665000", "103125.155000", "103126.645000", "103128.135000", "103129.625000", "103131.115000", "103132.605000", "103134.095000", "103135.585000", "103137.075000", "103138.565000", "103140.055000", "103141.545000", "103143.035000", "103144.525000", "103146.015000", "103147.505000", "103148.995000", "103150.485000", "103151.975000", "103153.465000", "103154.955000", "103156.445000", "103157.935000", "103159.425000", "103200.915000", "103202.405000", "103203.895000", "103205.385000", "103206.875000", "103208.365000", "103209.855000", "103211.345000", "103212.835000", "103214.325000", "103215.815000", "103217.305000", "103218.795000", "103220.285000", "103221.775000", "103223.265000", "103224.755000", "103226.245000", "103227.735000", "103229.225000", "103230.715000", "103232.205000", "103233.695000", "103235.185000", "103236.675000", "103238.165000", "103239.655000", "103241.145000", "103242.635000", "103244.125000", "103245.615000", "103247.105000", "103248.595000", "103250.085000", "103251.575000", "103253.065000", "103254.555000", "103256.045000", "103257.535000", "103259.025000", "103300.515000", "103302.005000", "103303.495000", "103304.985000", "103306.475000", "103307.965000", "103309.455000", "103310.945000", "103312.435000", "103313.925000", "103315.415000", "103316.905000", "103318.395000", "103319.885000", "103321.375000", "103322.865000", "103324.355000", "103325.845000", "103327.335000", "103328.825000", "103330.315000", "103331.805000", "103333.295000", "103334.785000", "103336.275000", "103337.765000", "103339.255000", "103340.745000", "103342.235000", "103343.725000", "103345.215000", "103346.705000", "103348.195000", "103349.685000", "103351.175000", "103352.665000", "103354.155000", "103355.645000", "103357.135000", "103358.625000", "103400.115000", "103401.605000", "103403.095000", "103404.585000", "103406.075000", "103407.565000", "103409.055000", "103410.545000", "103412.035000", "103413.525000", "103415.015000", "103416.505000", "103417.995000", "103419.485000", "103420.975000", "103422.465000", "103423.955000", "103425.445000", "103426.935000", "103428.425000", "103429.915000", "103431.405000", "103432.895000", "103434.385000", "103435.875000", "103437.365000", "103438.855000", "103440.345000", "103441.835000", "103443.325000", "103444.815000", "103446.305000", "103447.795000", "103449.285000", "103450.775000", "103452.265000", "103453.755000", "103455.245000", "103456.735000", "103458.225000", "103459.715000", "103501.205000", "103502.695000", "103504.185000", "103505.675000", "103507.165000", "103508.655000", "103510.145000", "103511.635000", "103513.125000", "103514.615000", "103516.105000", "103517.595000", "103519.085000", "103520.575000", "103522.065000"],
      "ContentTime": ["103124.564000", "103124.567000", "103124.570000", "103124.573000", "103124.576000", "103124.579000", "103124.588000", "103124.594000", "103144.533000", "103144.536000", "103144.539000", "103144.542000", "103144.544000", "103144.547000", "103144.550000", "103144.553000", "103144.556000", "103144.559000", "103144.567000", "103144.570000", "103144.573000", "103144.576000", "103144.579000", "103144.582000", "103144.585000", "103144.588000", "103144.590000", "103144.593000", "103204.533000", "103204.536000", "103204.539000", "103204.541000", "103204.544000", "103204.549000", "103204.552000", "103204.555000", "103204.558000", "103204.561000", "103204.563000", "103204.566000", "103204.569000", "103204.572000", "103204.575000", "103204.578000", "103204.581000", "103204.583000", "103204.586000", "103204.589000", "103224.532000", "103224.535000", "103224.538000", "103224.541000", "103224.543000", "103224.546000", "103224.549000", "103224.552000", "103224.555000", "103224.558000", "103224.560000", "103224.563000", "103224.566000", "103224.578000", "103224.581000", "103224.583000", "103224.586000", "103224.589000", "103224.592000", "103224.595000", "103244.532000", "103244.535000", "103244.538000", "103244.541000", "103244.543000", "103244.546000", "103244.549000", "103244.552000", "103244.555000", "103244.558000", "103244.561000", "103244.563000", "103244.566000", "103244.569000", "103244.572000", "103244.575000", "103244.578000", "103244.581000", "103244.583000", "103244.586000", "103304.532000", "103304.535000", "103304.538000", "103304.541000", "103304.543000", "103304.546000", "103304.549000", "103304.552000", "103304.555000", "103304.558000", "103304.561000", "103304.563000", "103304.566000", "103304.569000", "103304.572000", "103304.584000", "103304.587000", "103304.590000", "103304.593000", "103304.595000", "103344.533000", "103344.536000", "103344.539000", "103344.542000", "103344.544000", "103344.547000", "103344.550000", "103344.553000", "103344.556000", "103344.559000", "103344.561000", "103344.564000", "103344.567000", "103344.570000", "103344.573000", "103344.576000", "103344.579000", "103344.582000", "103344.584000", "103344.587000", "103344.590000", "103344.593000", "103344.596000", "103344.599000", "103344.602000", "103344.605000", "103344.607000", "103424.533000", "103424.536000", "103424.539000", "103424.541000", "103424.544000", "103424.547000", "103424.550000", "103424.553000", "103424.556000", "103424.559000", "103424.562000", "103424.565000", "103424.568000", "103424.571000", "103424.574000", "103424.577000", "103424.580000", "103424.583000", "103424.586000", "103424.589000", "103424.592000", "103424.595000", "103424.598000", "103424.601000", "103424.604000", "103424.607000", "103504.532000", "103504.535000", "103504.538000", "103504.541000", "103504.544000", "103504.547000", "103504.549000", "103504.552000", "103504.555000", "103504.558000", "103504.561000", "103504.564000", "103504.567000", "103504.569000", "103504.572000", "103504.575000", "103504.578000", "103504.581000", "103504.584000", "103504.587000", "103504.590000", "103504.592000", "103504.595000", "103504.598000", "103504.607000", "103504.610000", "103504.613000", "103524.237000", "103524.240000", "103524.243000", "103524.246000", "103524.249000", "103524.252000", "103524.255000", "103524.257000", "103524.260000", "103524.263000", "103524.266000", "103524.269000", "103524.272000", "103524.275000"],
      "InstanceCreationTime": ["103124.564000", "103124.567000", "103124.570000", "103124.573000", "103124.576000", "103124.579000", "103124.588000", "103124.594000", "103144.533000", "103144.536000", "103144.539000", "103144.542000", "103144.544000", "103144.547000", "103144.550000", "103144.553000", "103144.556000", "103144.559000", "103144.567000", "103144.570000", "103144.573000", "103144.576000", "103144.579000", "103144.582000", "103144.585000", "103144.588000", "103144.590000", "103144.593000", "103204.533000", "103204.536000", "103204.539000", "103204.541000", "103204.544000", "103204.549000", "103204.552000", "103204.555000", "103204.558000", "103204.561000", "103204.563000", "103204.566000", "103204.569000", "103204.572000", "103204.575000", "103204.578000", "103204.581000", "103204.583000", "103204.586000", "103204.589000", "103224.532000", "103224.535000", "103224.538000", "103224.541000", "103224.543000", "103224.546000", "103224.549000", "103224.552000", "103224.555000", "103224.558000", "103224.560000", "103224.563000", "103224.566000", "103224.578000", "103224.581000", "103224.583000", "103224.586000", "103224.589000", "103224.592000", "103224.595000", "103244.532000", "103244.535000", "103244.538000", "103244.541000", "103244.543000", "103244.546000", "103244.549000", "103244.552000", "103244.555000", "103244.558000", "103244.561000", "103244.563000", "103244.566000", "103244.569000", "103244.572000", "103244.575000", "103244.578000", "103244.581000", "103244.583000", "103244.586000", "103304.532000", "103304.535000", "103304.538000", "103304.541000", "103304.543000", "103304.546000", "103304.549000", "103304.552000", "103304.555000", "103304.558000", "103304.561000", "103304.563000", "103304.566000", "103304.569000", "103304.572000", "103304.584000", "103304.587000", "103304.590000", "103304.593000", "103304.595000", "103344.533000", "103344.536000", "103344.539000", "103344.542000", "103344.544000", "103344.547000", "103344.550000", "103344.553000", "103344.556000", "103344.559000", "103344.561000", "103344.564000", "103344.567000", "103344.570000", "103344.573000", "103344.576000", "103344.579000", "103344.582000", "103344.584000", "103344.587000", "103344.590000", "103344.593000", "103344.596000", "103344.599000", "103344.602000", "103344.605000", "103344.607000", "103424.533000", "103424.536000", "103424.539000", "103424.541000", "103424.544000", "103424.547000", "103424.550000", "103424.553000", "103424.556000", "103424.559000", "103424.562000", "103424.565000", "103424.568000", "103424.571000", "103424.574000", "103424.577000", "103424.580000", "103424.583000", "103424.586000", "103424.589000", "103424.592000", "103424.595000", "103424.598000", "103424.601000", "103424.604000", "103424.607000", "103504.532000", "103504.535000", "103504.538000", "103504.541000", "103504.544000", "103504.547000", "103504.549000", "103504.552000", "103504.555000", "103504.558000", "103504.561000", "103504.564000", "103504.567000", "103504.569000", "103504.572000", "103504.575000", "103504.578000", "103504.581000", "103504.584000", "103504.587000", "103504.590000", "103504.592000", "103504.595000", "103504.598000", "103504.607000", "103504.610000", "103504.613000", "103524.237000", "103524.240000", "103524.243000", "103524.246000", "103524.249000", "103524.252000", "103524.255000", "103524.257000", "103524.260000", "103524.263000", "103524.266000", "103524.269000", "103524.272000", "103524.275000"],
      "InstanceNumber": [1, 2, 3, 4, 5, 6, 7, 8, 9, 10, 11, 12, 13, 14, 15, 16, 17, 18, 19, 20, 21, 22, 23, 24, 25, 26, 27, 28, 29, 30, 31, 32, 33, 34, 35, 36, 37, 38, 39, 40, 41, 42, 43, 44, 45, 46, 47, 48, 49, 50, 51, 52, 53, 54, 55, 56, 57, 58, 59, 60, 61, 62, 63, 64, 65, 66, 67, 68, 69, 70, 71, 72, 73, 74, 75, 76, 77, 78, 79, 80, 81, 82, 83, 84, 85, 86, 87, 88, 89, 90, 91, 92, 93, 94, 95, 96, 97, 98, 99, 100, 101, 102, 103, 104, 105, 106, 107, 108, 109, 110, 111, 112, 113, 114, 115, 116, 117, 118, 119, 120, 121, 122, 123, 124, 125, 126, 127, 128, 129, 130, 131, 132, 133, 134, 135, 136, 137, 138, 139, 140, 141, 142, 143, 144, 145, 146, 147, 148, 149, 150, 151, 152, 153, 154, 155, 156, 157, 158, 159, 160, 161, 162, 163, 164, 165, 166, 167, 168, 169, 170, 171, 172, 173, 174, 175, 176, 177, 178, 179, 180, 181, 182, 183, 184, 185, 186, 187, 188, 189, 190, 191, 192, 193, 194, 195, 196, 197, 198, 199, 200, 201, 202],
      "LargestImagePixelValue": [47099, 45664, 45038, 44938, 44170, 44226, 43762, 44469, 44247, 44044, 43889, 44049, 43502, 43501, 43740, 43448, 43561, 43345, 43453, 43683, 43909, 43279, 43163, 43202, 43547, 43328, 42761, 42767, 42821, 42834, 42453, 42529, 42761, 42423, 42572, 42520, 42474, 42584, 42077, 42174, 42530, 42203, 42360, 42102, 42175, 42046, 42511, 42699, 42322, 41862, 41979, 42126, 42073, 42465, 42600, 42320, 42336, 42097, 42554, 42559, 42144, 42655, 42714, 42655, 42843, 42121, 42666, 42780, 42772, 43177, 42546, 43050, 42980, 42596, 43153, 43432, 43292, 43430, 43157, 42846, 42684, 42775, 43004, 42807, 42670, 42636, 42664, 42613, 42417, 42235, 42761, 42731, 42822, 42617, 42316, 42383, 42399, 42760, 42050, 42242, 42069, 42408, 42422, 41624, 42022, 41887, 41752, 41803, 41980, 41784, 41797, 42106, 41765, 41949, 41584, 41808, 41777, 41894, 41986, 41638, 42288, 41918, 41611, 42160, 42088, 41628, 41971, 41889, 41969, 41925, 42039, 41863, 42087, 42064, 41832, 41978, 42198, 41953, 41884, 42344, 42284, 42156, 42050, 42133, 41870, 42102, 42040, 42183, 41934, 41751, 41884, 42328, 42144, 41966, 41986, 41613, 41855, 41802, 42122, 42074, 41914, 42619, 42436, 42481, 41594, 41486, 42119, 42537, 42432, 42472, 42223, 42023, 42912, 42443, 42323, 42936, 42504, 42115, 42212, 41936, 41600, 41576, 41452, 41510, 41768, 41558, 41245, 41799, 41143, 41652, 41157, 42005, 41870, 41714, 41839, 41954, 41408, 41931, 41751, 41827, 41856, 41894],
      "WindowCenter": [10089.0, 10041.0, 10012.0, 10007.0, 9992.0, 9983.0, 9984.0, 9988.0, 9990.0, 9997.0, 9998.0, 10005.0, 10003.0, 10005.0, 10009.0, 10002.0, 10002.0, 9994.0, 9994.0, 9999.0, 10000.0, 9995.0, 9994.0, 9995.0, 9992.0, 9993.0, 10002.0, 9997.0, 10004.0, 9996.0, 9989.0, 9988.0, 9992.0, 9995.0, 9997.0, 9991.0, 9995.0, 9994.0, 9982.0, 9988.0, 9989.0, 9997.0, 9997.0, 9998.0, 9991.0, 9985.0, 9987.0, 9978.0, 9980.0, 9974.0, 9974.0, 9980.0, 9973.0, 9979.0, 9979.0, 9982.0, 9979.0, 9989.0, 9997.0, 10004.0, 9999.0, 9999.0, 9990.0, 9988.0, 9986.0, 9979.0, 9978.0, 9977.0, 9984.0, 9991.0, 9987.0, 9991.0, 9986.0, 9981.0, 9992.0, 9995.0, 10001.0, 10003.0, 9996.0, 9989.0, 9981.0, 9979.0, 9980.0, 9971.0, 9976.0, 9976.0, 9980.0, 9979.0, 9986.0, 9980.0, 9978.0, 9985.0, 9978.0, 9972.0, 9970.0, 9970.0, 9962.0, 9967.0, 9963.0, 9962.0, 9964.0, 9970.0, 9978.0, 9972.0, 9996.0, 9991.0, 9983.0, 9963.0, 9915.0, 9901.0, 9897.0, 9905.0, 9906.0, 9924.0, 9934.0, 9950.0, 9963.0, 9971.0, 9973.0, 9972.0, 9972.0, 9974.0, 9973.0, 9981.0, 9980.0, 9975.0, 9982.0, 9983.0, 9990.0, 9990.0, 9982.0, 9981.0, 9979.0, 9974.0, 9973.0, 9971.0, 9968.0, 9969.0, 9969.0, 9978.0, 9972.0, 9971.0, 9962.0, 9960.0, 9946.0, 9958.0, 9960.0, 9960.0, 9959.0, 9946.0, 9952.0, 9960.0, 9961.0, 9962.0, 9953.0, 9948.0, 9952.0, 9944.0, 9952.0, 9951.0, 9955.0, 9959.0, 9964.0, 9968.0, 9969.0, 9963.0, 9961.0, 9953.0, 9951.0, 9957.0, 9960.0, 9961.0, 9968.0, 9967.0, 9961.0, 9966.0, 9967.0, 9963.0, 9968.0, 9969.0, 9971.0, 9972.0, 9972.0, 9973.0, 9981.0, 9981.0, 9975.0, 9972.0, 9967.0, 9965.0, 9957.0, 9971.0, 9972.0, 9965.0, 9956.0, 9945.0, 9954.0, 9965.0, 9985.0, 9990.0, 9975.0, 9967.0],
      "WindowWidth": [21642.0, 21500.0, 21419.0, 21399.0, 21360.0, 21338.0, 21340.0, 21344.0, 21347.0, 21360.0, 21362.0, 21379.0, 21379.0, 21386.0, 21394.0, 21379.0, 21380.0, 21362.0, 21361.0, 21371.0, 21371.0, 21362.0, 21361.0, 21365.0, 21356.0, 21360.0, 21379.0, 21372.0, 21387.0, 21370.0, 21354.0, 21351.0, 21355.0, 21366.0, 21373.0, 21360.0, 21366.0, 21362.0, 21340.0, 21352.0, 21358.0, 21375.0, 21373.0, 21377.0, 21365.0, 21350.0, 21348.0, 21329.0, 21336.0, 21326.0, 21325.0, 21337.0, 21322.0, 21336.0, 21336.0, 21341.0, 21332.0, 21355.0, 21373.0, 21388.0, 21381.0, 21380.0, 21359.0, 21352.0, 21345.0, 21333.0, 21330.0, 21326.0, 21340.0, 21356.0, 21350.0, 21357.0, 21346.0, 21340.0, 21358.0, 21369.0, 21382.0, 21385.0, 21368.0, 21356.0, 21338.0, 21332.0, 21335.0, 21315.0, 21325.0, 21325.0, 21336.0, 21334.0, 21348.0, 21337.0, 21329.0, 21344.0, 21331.0, 21318.0, 21315.0, 21313.0, 21300.0, 21309.0, 21304.0, 21301.0, 21306.0, 21318.0, 21333.0, 21322.0, 21371.0, 21364.0, 21345.0, 21297.0, 21194.0, 21156.0, 21146.0, 21165.0, 21168.0, 21209.0, 21233.0, 21268.0, 21302.0, 21318.0, 21323.0, 21320.0, 21318.0, 21324.0, 21323.0, 21340.0, 21336.0, 21328.0, 21342.0, 21347.0, 21361.0, 21360.0, 21343.0, 21339.0, 21332.0, 21325.0, 21322.0, 21315.0, 21308.0, 21311.0, 21309.0, 21330.0, 21317.0, 21313.0, 21293.0, 21287.0, 21261.0, 21281.0, 21288.0, 21288.0, 21285.0, 21258.0, 21268.0, 21287.0, 21290.0, 21295.0, 21273.0, 21263.0, 21270.0, 21251.0, 21268.0, 21267.0, 21276.0, 21282.0, 21293.0, 21303.0, 21309.0, 21297.0, 21290.0, 21270.0, 21266.0, 21277.0, 21286.0, 21290.0, 21306.0, 21304.0, 21290.0, 21299.0, 21301.0, 21298.0, 21304.0, 21308.0, 21315.0, 21318.0, 21317.0, 21322.0, 21336.0, 21337.0, 21326.0, 21318.0, 21308.0, 21304.0, 21288.0, 21313.0, 21317.0, 21303.0, 21282.0, 21256.0, 21282.0, 21304.0, 21351.0, 21358.0, 21326.0, 21307.0]
    },
    "slices": {}
  }
}