{
  "AcquisitionMatrixPE": 104,
  "AcquisitionNumber": 1,
  "AcquisitionTime": "10:40:29.775000",
  "BandwidthPerPixelPhaseEncode": 17.17,
  "BaseResolution": 104,
  "BodyPartExamined": "BRAIN",
  "CoilString": "HC1-7;NC1_2",
  "ConsistencyInfo": "N4_VE11C_LATEST_20160120",
  "ConversionSoftware": "dcm2niix",
  "ConversionSoftwareVersion": "v1.0.20200427",
  "DerivedVendorReportedEchoSpacing": 0.000560011,
  "DeviceSerialNumber": "167006",
  "DwellTime": 2.1e-06,
  "EchoTime": 0.037,
  "EchoTrainLength": 104,
  "EffectiveEchoSpacing": 0.000560011,
  "FlipAngle": 52,
  "ImageComments": "Unaliased_MB4_PE3_LB",
  "ImageOrientationPatientDICOM": [0.998107, 0.00143542, -0.0614895, -0.015331, 0.973979, -0.226119],
  "ImageType": [
    "ORIGINAL",
    "PRIMARY",
    "M",
    "MB",
    "ND",
    "MOSAIC"
],
  "ImagingFrequency": 123.259,
  "InPlanePhaseEncodingDirectionDICOM": "COL",
  "InstitutionAddress": "Chemin_Queen-Mary_4565_Montreal_District_CA_H3W_1W5",
  "InstitutionName": "IUGM",
  "InstitutionalDepartmentName": "Department",
  "MRAcquisitionType": "2D",
  "MagneticFieldStrength": 3,
  "Manufacturer": "Siemens",
  "ManufacturersModelName": "Prisma_fit",
  "Modality": "MR",
  "MultibandAccelerationFactor": 4,
  "PartialFourier": 1,
  "PatientPosition": "HFS",
  "PercentPhaseFOV": 100,
  "PercentSampling": 100,
  "PhaseEncodingDirection": "j",
  "PhaseEncodingSteps": 104,
  "PhaseResolution": 1,
  "PixelBandwidth": 2290,
  "ProcedureStepDescription": "hcptrt_generic",
  "ProtocolName": "func_task-motor_run-1",
  "PulseSequenceDetails": "%CustomerSeq%_cmrr_mbep2d_bold",
  "ReceiveCoilActiveElements": "HC1-7;NC1,2",
  "ReceiveCoilName": "HeadNeck_64",
  "ReconMatrixPE": 104,
  "RepetitionTime": 1.49,
  "SAR": 0.03024,
  "ScanOptions": "FS",
  "ScanningSequence": "EP",
  "SequenceName": "epfid2d1_104",
  "SequenceVariant": "SK_SS",
  "SeriesDescription": "func_task-motor_run-1",
  "SeriesNumber": 18,
  "ShimSetting": [596, -7255, -8854, 591, -53, -290, 17, 59],
  "SliceThickness": 2,
  "SliceTiming": [0, 0.7825, 0.0975, 0.88, 0.195, 0.98, 0.2925, 1.0775, 0.39, 1.175, 0.49, 1.2725, 0.5875, 1.37, 0.685, 0, 0.7825, 0.0975, 0.88, 0.195, 0.98, 0.2925, 1.0775, 0.39, 1.175, 0.49, 1.2725, 0.5875, 1.37, 0.685, 0, 0.7825, 0.0975, 0.88, 0.195, 0.98, 0.2925, 1.0775, 0.39, 1.175, 0.49, 1.2725, 0.5875, 1.37, 0.685, 0, 0.7825, 0.0975, 0.88, 0.195, 0.98, 0.2925, 1.0775, 0.39, 1.175, 0.49, 1.2725, 0.5875, 1.37, 0.685],
  "SoftwareVersions": "syngo_MR_E11",
  "SpacingBetweenSlices": 2,
  "StationName": "MRC35049",
  "TaskName": "motor",
  "TotalReadoutTime": 0.0576811,
  "TxRefAmp": 220.508,
  "WipMemBlock": "f1b5c555-4498-40d0-a557-e15a38f2cb42||Sequence: R016 ve11c/master r/e634e98; Dec 19 2017 11:00:25 by eja",
  "dcmmeta_affine": [
    [-1.996213436126709, -0.030662043020129204, -0.1191297322511673, 107.77902221679688],
    [-0.0028708374593406916, 1.9479581117630005, -0.4532669484615326, -73.028076171875],
    [-0.12297891080379486, 0.4522377848625183, 1.9443140029907227, -51.27632141113281],
    [0.0, 0.0, 0.0, 1.0]
],
  "dcmmeta_reorient_transform": [
    [0.0, -1.0, 0.0, 103.0],
    [1.0, 0.0, 0.0, 0.0],
    [0.0, 0.0, 1.0, 0.0],
    [0.0, 0.0, 0.0, 1.0]
],
  "dcmmeta_shape": [104, 104, 60, 144],
  "dcmmeta_slice_dim": 2,
  "dcmmeta_version": 0.6,
  "global": {
    "const": {
      "AcquisitionMatrix": [104, 0, 0, 104],
      "AngioFlag": "N",
      "BitsAllocated": 16,
      "BitsStored": 16,
      "BodyPartExamined": "BRAIN",
      "Columns": 832,
      "EchoNumbers": 1,
      "EchoTime": 37.0,
      "EchoTrainLength": 104,
      "FlipAngle": 52.0,
      "HighBit": 15,
      "ImageOrientationPatient": [0.99810670094095, 0.00143541867419, -0.0614894552749, -0.0153310217349, 0.97397905738804, -0.226118896915],
      "ImagePositionPatient": [-820.08152597282, -837.71335070609, 204.68305139629],
      "ImageType": [
        "ORIGINAL",
        "PRIMARY",
        "M",
        "MB",
        "ND",
        "MOSAIC"
],
      "ImagedNucleus": "1H",
      "ImagingFrequency": 123.259103,
      "InPlanePhaseEncodingDirection": "COL",
      "MRAcquisitionType": "2D",
      "MagneticFieldStrength": 3.0,
      "Manufacturer": "SIEMENS",
      "ManufacturerModelName": "Prisma_fit",
      "Modality": "MR",
      "NumberOfAverages": 1.0,
      "NumberOfPhaseEncodingSteps": 104,
      "PercentPhaseFieldOfView": 100.0,
      "PercentSampling": 100.0,
      "PerformedProcedureStepStartTime": "100721.125000",
      "PhotometricInterpretation": "MONOCHROME2",
      "PixelBandwidth": 2290.0,
      "PixelRepresentation": 0,
      "PixelSpacing": [2.0, 2.0],
      "ProtocolName": "func_task-motor_run-1",
      "RepetitionTime": 1490.0,
      "Rows": 832,
      "SAR": 0.03024000750572,
      "SamplesPerPixel": 1,
      "ScanOptions": "FS",
      "ScanningSequence": "EP",
      "SequenceName": "epfid2d1_104",
      "SequenceVariant": [
        "SK",
        "SS"
],
      "SeriesDescription": "func_task-motor_run-1",
      "SeriesNumber": 18,
      "SeriesTime": "104142.609000",
      "SliceLocation": -39.717873076397,
      "SliceThickness": 2.0,
      "SmallestImagePixelValue": 0,
      "SoftwareVersions": "syngo MR E11",
      "SpacingBetweenSlices": 1.9999999630667,
      "SpecificCharacterSet": "ISO_IR 100",
      "StudyID": "1",
      "StudyTime": "100721.040000",
      "TransmitCoilName": "Body",
      "VariableFlipAngleFlag": "N",
      "WindowCenterWidthExplanation": "Algo1",
      "dBdt": 0.0},
    "slices": {}
  },
  "time": {
    "samples": {
      "AcquisitionNumber": [1, 2, 3, 4, 5, 6, 7, 8, 9, 10, 11, 12, 13, 14, 15, 16, 17, 18, 19, 20, 21, 22, 23, 24, 25, 26, 27, 28, 29, 30, 31, 32, 33, 34, 35, 36, 37, 38, 39, 40, 41, 42, 43, 44, 45, 46, 47, 48, 49, 50, 51, 52, 53, 54, 55, 56, 57, 58, 59, 60, 61, 62, 63, 64, 65, 66, 67, 68, 69, 70, 71, 72, 73, 74, 75, 76, 77, 78, 79, 80, 81, 82, 83, 84, 85, 86, 87, 88, 89, 90, 91, 92, 93, 94, 95, 96, 97, 98, 99, 100, 101, 102, 103, 104, 105, 106, 107, 108, 109, 110, 111, 112, 113, 114, 115, 116, 117, 118, 119, 120, 121, 122, 123, 124, 125, 126, 127, 128, 129, 130, 131, 132, 133, 134, 135, 136, 137, 138, 139, 140, 141, 142, 143, 144],
      "AcquisitionTime": ["104029.775000", "104031.265000", "104032.755000", "104034.245000", "104035.735000", "104037.225000", "104038.715000", "104040.205000", "104041.695000", "104043.185000", "104044.675000", "104046.165000", "104047.655000", "104049.145000", "104050.635000", "104052.125000", "104053.615000", "104055.105000", "104056.595000", "104058.085000", "104059.575000", "104101.065000", "104102.555000", "104104.045000", "104105.535000", "104107.025000", "104108.515000", "104110.005000", "104111.495000", "104112.985000", "104114.475000", "104115.965000", "104117.455000", "104118.945000", "104120.435000", "104121.925000", "104123.415000", "104124.905000", "104126.395000", "104127.885000", "104129.375000", "104130.865000", "104132.355000", "104133.845000", "104135.335000", "104136.825000", "104138.315000", "104139.805000", "104141.295000", "104142.785000", "104144.275000", "104145.765000", "104147.255000", "104148.745000", "104150.235000", "104151.725000", "104153.215000", "104154.705000", "104156.195000", "104157.685000", "104159.175000", "104200.665000", "104202.155000", "104203.645000", "104205.135000", "104206.625000", "104208.115000", "104209.605000", "104211.095000", "104212.585000", "104214.075000", "104215.565000", "104217.055000", "104218.545000", "104220.035000", "104221.525000", "104223.015000", "104224.505000", "104225.995000", "104227.485000", "104228.975000", "104230.465000", "104231.955000", "104233.445000", "104234.935000", "104236.425000", "104237.915000", "104239.405000", "104240.895000", "104242.385000", "104243.875000", "104245.365000", "104246.855000", "104248.345000", "104249.835000", "104251.325000", "104252.815000", "104254.305000", "104255.795000", "104257.285000", "104258.775000", "104300.265000", "104301.755000", "104303.245000", "104304.735000", "104306.225000", "104307.715000", "104309.205000", "104310.695000", "104312.185000", "104313.675000", "104315.165000", "104316.655000", "104318.145000", "104319.635000", "104321.125000", "104322.615000", "104324.105000", "104325.595000", "104327.085000", "104328.575000", "104330.065000", "104331.555000", "104333.045000", "104334.535000", "104336.025000", "104337.515000", "104339.005000", "104340.495000", "104341.985000", "104343.475000", "104344.965000", "104346.455000", "104347.945000", "104349.435000", "104350.925000", "104352.415000", "104353.905000", "104355.395000", "104356.885000", "104358.375000", "104359.865000", "104401.355000", "104402.845000"],
      "ContentTime": ["104142.612000", "104142.615000", "104142.618000", "104142.623000", "104142.626000", "104142.628000", "104142.631000", "104142.635000", "104142.637000", "104142.640000", "104142.643000", "104142.646000", "104142.649000", "104142.652000", "104142.655000", "104142.658000", "104142.660000", "104202.584000", "104202.587000", "104202.590000", "104202.593000", "104202.596000", "104202.599000", "104202.602000", "104202.605000", "104202.608000", "104202.611000", "104202.613000", "104202.616000", "104202.619000", "104202.622000", "104202.625000", "104202.628000", "104202.631000", "104202.634000", "104202.636000", "104202.639000", "104202.642000", "104222.583000", "104222.586000", "104222.589000", "104222.592000", "104222.594000", "104222.597000", "104222.600000", "104222.603000", "104222.606000", "104222.609000", "104222.612000", "104222.614000", "104222.617000", "104222.620000", "104222.627000", "104222.630000", "104222.633000", "104222.636000", "104222.639000", "104222.642000", "104242.583000", "104242.586000", "104242.589000", "104242.592000", "104242.594000", "104242.597000", "104242.600000", "104242.603000", "104242.606000", "104242.609000", "104242.612000", "104242.614000", "104242.617000", "104242.620000", "104242.623000", "104242.626000", "104242.629000", "104242.631000", "104242.634000", "104242.637000", "104302.584000", "104302.587000", "104302.590000", "104302.593000", "104302.595000", "104302.598000", "104302.601000", "104302.604000", "104302.607000", "104302.610000", "104302.613000", "104302.616000", "104302.618000", "104302.621000", "104302.624000", "104302.627000", "104302.630000", "104302.633000", "104302.636000", "104302.639000", "104342.583000", "104342.586000", "104342.589000", "104342.592000", "104342.594000", "104342.597000", "104342.600000", "104342.603000", "104342.606000", "104342.609000", "104342.612000", "104342.615000", "104342.618000", "104342.620000", "104342.624000", "104342.626000", "104342.629000", "104342.632000", "104342.635000", "104342.638000", "104342.641000", "104342.644000", "104342.647000", "104342.650000", "104342.652000", "104342.655000", "104342.658000", "104342.661000", "104342.664000", "104342.667000", "104405.329000", "104405.332000", "104405.335000", "104405.338000", "104405.341000", "104405.343000", "104405.346000", "104405.349000", "104405.352000", "104405.355000", "104405.358000", "104405.361000", "104405.364000", "104405.367000", "104405.369000", "104405.372000"],
      "InstanceCreationTime": ["104142.612000", "104142.615000", "104142.618000", "104142.623000", "104142.626000", "104142.628000", "104142.631000", "104142.635000", "104142.637000", "104142.640000", "104142.643000", "104142.646000", "104142.649000", "104142.652000", "104142.655000", "104142.658000", "104142.660000", "104202.584000", "104202.587000", "104202.590000", "104202.593000", "104202.596000", "104202.599000", "104202.602000", "104202.605000", "104202.608000", "104202.611000", "104202.613000", "104202.616000", "104202.619000", "104202.622000", "104202.625000", "104202.628000", "104202.631000", "104202.634000", "104202.636000", "104202.639000", "104202.642000", "104222.583000", "104222.586000", "104222.589000", "104222.592000", "104222.594000", "104222.597000", "104222.600000", "104222.603000", "104222.606000", "104222.609000", "104222.612000", "104222.614000", "104222.617000", "104222.620000", "104222.627000", "104222.630000", "104222.633000", "104222.636000", "104222.639000", "104222.642000", "104242.583000", "104242.586000", "104242.589000", "104242.592000", "104242.594000", "104242.597000", "104242.600000", "104242.603000", "104242.606000", "104242.609000", "104242.612000", "104242.614000", "104242.617000", "104242.620000", "104242.623000", "104242.626000", "104242.629000", "104242.631000", "104242.634000", "104242.637000", "104302.584000", "104302.587000", "104302.590000", "104302.593000", "104302.595000", "104302.598000", "104302.601000", "104302.604000", "104302.607000", "104302.610000", "104302.613000", "104302.616000", "104302.618000", "104302.621000", "104302.624000", "104302.627000", "104302.630000", "104302.633000", "104302.636000", "104302.639000", "104342.583000", "104342.586000", "104342.589000", "104342.592000", "104342.594000", "104342.597000", "104342.600000", "104342.603000", "104342.606000", "104342.609000", "104342.612000", "104342.615000", "104342.618000", "104342.620000", "104342.624000", "104342.626000", "104342.629000", "104342.632000", "104342.635000", "104342.638000", "104342.641000", "104342.644000", "104342.647000", "104342.650000", "104342.652000", "104342.655000", "104342.658000", "104342.661000", "104342.664000", "104342.667000", "104405.329000", "104405.332000", "104405.335000", "104405.338000", "104405.341000", "104405.343000", "104405.346000", "104405.349000", "104405.352000", "104405.355000", "104405.358000", "104405.361000", "104405.364000", "104405.367000", "104405.369000", "104405.372000"],
      "InstanceNumber": [1, 2, 3, 4, 5, 6, 7, 8, 9, 10, 11, 12, 13, 14, 15, 16, 17, 18, 19, 20, 21, 22, 23, 24, 25, 26, 27, 28, 29, 30, 31, 32, 33, 34, 35, 36, 37, 38, 39, 40, 41, 42, 43, 44, 45, 46, 47, 48, 49, 50, 51, 52, 53, 54, 55, 56, 57, 58, 59, 60, 61, 62, 63, 64, 65, 66, 67, 68, 69, 70, 71, 72, 73, 74, 75, 76, 77, 78, 79, 80, 81, 82, 83, 84, 85, 86, 87, 88, 89, 90, 91, 92, 93, 94, 95, 96, 97, 98, 99, 100, 101, 102, 103, 104, 105, 106, 107, 108, 109, 110, 111, 112, 113, 114, 115, 116, 117, 118, 119, 120, 121, 122, 123, 124, 125, 126, 127, 128, 129, 130, 131, 132, 133, 134, 135, 136, 137, 138, 139, 140, 141, 142, 143, 144],
      "LargestImagePixelValue": [48309, 47251, 46281, 46301, 45742, 45535, 45295, 44906, 44952, 45041, 44922, 44786, 44365, 44601, 44707, 44282, 44905, 44427, 44389, 44970, 44225, 44441, 44338, 45118, 45099, 45480, 44414, 43966, 45137, 44508, 45321, 45235, 45119, 45146, 45003, 44690, 44832, 44837, 44878, 45384, 44518, 44530, 44613, 44305, 44620, 44486, 44369, 43756, 43820, 44274, 43837, 43497, 43940, 44161, 43751, 43872, 43605, 43989, 44305, 43837, 44405, 44462, 43808, 44457, 44319, 44469, 44761, 43808, 44321, 44417, 44627, 44503, 44658, 44217, 44081, 44006, 44486, 44099, 44671, 44336, 44261, 44322, 44209, 44884, 44143, 44167, 44378, 44884, 45243, 44529, 44747, 44830, 45050, 45287, 44704, 44907, 44846, 44935, 45079, 45056, 44761, 44091, 44293, 44204, 44283, 44555, 44570, 44567, 45040, 44791, 45089, 45015, 45199, 44898, 44945, 44890, 44966, 44646, 45065, 45440, 45117, 45126, 44800, 45052, 44502, 44470, 44642, 44608, 44820, 44661, 44488, 44216, 44256, 44767, 44953, 44533, 44142, 44273, 44189, 44571, 44616, 44017, 45180, 44659],
      "WindowCenter": [10000.0, 9977.0, 9976.0, 9975.0, 9977.0, 9983.0, 9986.0, 9973.0, 9963.0, 9968.0, 9960.0, 9944.0, 9942.0, 9943.0, 9942.0, 9943.0, 9941.0, 9950.0, 9951.0, 9955.0, 9946.0, 9945.0, 9943.0, 9948.0, 9962.0, 9973.0, 9989.0, 9994.0, 9998.0, 9984.0, 9978.0, 9969.0, 9968.0, 9969.0, 9967.0, 9968.0, 9961.0, 9961.0, 9967.0, 9980.0, 9969.0, 9950.0, 9951.0, 9958.0, 9958.0, 9959.0, 9937.0, 9919.0, 9899.0, 9881.0, 9883.0, 9881.0, 9895.0, 9897.0, 9889.0, 9886.0, 9880.0, 9895.0, 9911.0, 9925.0, 9949.0, 9950.0, 9950.0, 9951.0, 9951.0, 9950.0, 9947.0, 9936.0, 9950.0, 9967.0, 9978.0, 9977.0, 9974.0, 9968.0, 9957.0, 9951.0, 9948.0, 9947.0, 9950.0, 9952.0, 9949.0, 9948.0, 9946.0, 9952.0, 9954.0, 9964.0, 9962.0, 9962.0, 9967.0, 9954.0, 9950.0, 9948.0, 9931.0, 9929.0, 9918.0, 9908.0, 9915.0, 9912.0, 9918.0, 9918.0, 9920.0, 9923.0, 9923.0, 9914.0, 9903.0, 9886.0, 9868.0, 9867.0, 9880.0, 9890.0, 9908.0, 9933.0, 9927.0, 9935.0, 9944.0, 9952.0, 9960.0, 9955.0, 9959.0, 9963.0, 9958.0, 9962.0, 9962.0, 9960.0, 9945.0, 9945.0, 9949.0, 9950.0, 9952.0, 9942.0, 9931.0, 9931.0, 9931.0, 9937.0, 9934.0, 9910.0, 9877.0, 9867.0, 9869.0, 9884.0, 9904.0, 9924.0, 9933.0, 9956.0],
      "WindowWidth": [21414.0, 21335.0, 21318.0, 21304.0, 21307.0, 21314.0, 21321.0, 21293.0, 21268.0, 21276.0, 21256.0, 21222.0, 21217.0, 21220.0, 21221.0, 21225.0, 21217.0, 21239.0, 21239.0, 21244.0, 21232.0, 21227.0, 21223.0, 21232.0, 21261.0, 21287.0, 21327.0, 21343.0, 21348.0, 21318.0, 21301.0, 21281.0, 21281.0, 21282.0, 21276.0, 21280.0, 21264.0, 21264.0, 21275.0, 21299.0, 21280.0, 21236.0, 21240.0, 21257.0, 21257.0, 21259.0, 21210.0, 21166.0, 21121.0, 21081.0, 21090.0, 21088.0, 21116.0, 21121.0, 21105.0, 21095.0, 21083.0, 21116.0, 21150.0, 21185.0, 21237.0, 21239.0, 21240.0, 21243.0, 21244.0, 21241.0, 21228.0, 21210.0, 21238.0, 21278.0, 21304.0, 21301.0, 21292.0, 21282.0, 21254.0, 21245.0, 21234.0, 21232.0, 21234.0, 21240.0, 21239.0, 21235.0, 21231.0, 21245.0, 21247.0, 21270.0, 21265.0, 21264.0, 21272.0, 21245.0, 21236.0, 21236.0, 21189.0, 21184.0, 21166.0, 21144.0, 21156.0, 21148.0, 21158.0, 21160.0, 21169.0, 21180.0, 21175.0, 21156.0, 21126.0, 21088.0, 21048.0, 21044.0, 21071.0, 21093.0, 21140.0, 21194.0, 21181.0, 21200.0, 21221.0, 21238.0, 21255.0, 21246.0, 21255.0, 21257.0, 21249.0, 21260.0, 21260.0, 21256.0, 21229.0, 21227.0, 21233.0, 21234.0, 21239.0, 21212.0, 21196.0, 21192.0, 21192.0, 21206.0, 21201.0, 21148.0, 21073.0, 21047.0, 21053.0, 21083.0, 21128.0, 21174.0, 21194.0, 21244.0]
    },
    "slices": {}
  }
}