{
  "AcquisitionMatrixPE": 104,
  "AcquisitionNumber": 1,
  "AcquisitionTime": "10:52:16.330000",
  "BandwidthPerPixelPhaseEncode": 17.17,
  "BaseResolution": 104,
  "BodyPartExamined": "BRAIN",
  "CoilString": "HC1-7;NC1_2",
  "ConsistencyInfo": "N4_VE11C_LATEST_20160120",
  "ConversionSoftware": "dcm2niix",
  "ConversionSoftwareVersion": "v1.0.20200427",
  "DerivedVendorReportedEchoSpacing": 0.000560011,
  "DeviceSerialNumber": "167006",
  "DwellTime": 2.1e-06,
  "EchoTime": 0.037,
  "EchoTrainLength": 104,
  "EffectiveEchoSpacing": 0.000560011,
  "FlipAngle": 52,
  "ImageComments": "Unaliased_MB4_PE3_LB",
  "ImageOrientationPatientDICOM": [0.998107, 0.00143542, -0.0614895, -0.015331, 0.973979, -0.226119],
  "ImageType": [
    "ORIGINAL",
    "PRIMARY",
    "M",
    "MB",
    "ND",
    "MOSAIC"
],
  "ImagingFrequency": 123.259,
  "InPlanePhaseEncodingDirectionDICOM": "COL",
  "InstitutionAddress": "Chemin_Queen-Mary_4565_Montreal_District_CA_H3W_1W5",
  "InstitutionName": "IUGM",
  "InstitutionalDepartmentName": "Department",
  "MRAcquisitionType": "2D",
  "MagneticFieldStrength": 3,
  "Manufacturer": "Siemens",
  "ManufacturersModelName": "Prisma_fit",
  "Modality": "MR",
  "MultibandAccelerationFactor": 4,
  "PartialFourier": 1,
  "PatientPosition": "HFS",
  "PercentPhaseFOV": 100,
  "PercentSampling": 100,
  "PhaseEncodingDirection": "j",
  "PhaseEncodingSteps": 104,
  "PhaseResolution": 1,
  "PixelBandwidth": 2290,
  "ProcedureStepDescription": "hcptrt_generic",
  "ProtocolName": "func_task-gambling_run-2",
  "PulseSequenceDetails": "%CustomerSeq%_cmrr_mbep2d_bold",
  "ReceiveCoilActiveElements": "HC1-7;NC1,2",
  "ReceiveCoilName": "HeadNeck_64",
  "ReconMatrixPE": 104,
  "RepetitionTime": 1.49,
  "SAR": 0.0301946,
  "ScanOptions": "FS",
  "ScanningSequence": "EP",
  "SequenceName": "epfid2d1_104",
  "SequenceVariant": "SK_SS",
  "SeriesDescription": "func_task-gambling_run-2",
  "SeriesNumber": 24,
  "ShimSetting": [596, -7255, -8854, 591, -53, -290, 17, 59],
  "SliceThickness": 2,
  "SliceTiming": [0, 0.7825, 0.0975, 0.88, 0.195, 0.98, 0.2925, 1.0775, 0.39, 1.175, 0.49, 1.2725, 0.5875, 1.37, 0.685, 0, 0.7825, 0.0975, 0.88, 0.195, 0.98, 0.2925, 1.0775, 0.39, 1.175, 0.49, 1.2725, 0.5875, 1.37, 0.685, 0, 0.7825, 0.0975, 0.88, 0.195, 0.98, 0.2925, 1.0775, 0.39, 1.175, 0.49, 1.2725, 0.5875, 1.37, 0.685, 0, 0.7825, 0.0975, 0.88, 0.195, 0.98, 0.2925, 1.0775, 0.39, 1.175, 0.49, 1.2725, 0.5875, 1.37, 0.685],
  "SoftwareVersions": "syngo_MR_E11",
  "SpacingBetweenSlices": 2,
  "StationName": "MRC35049",
  "TaskName": "gambling",
  "TotalReadoutTime": 0.0576811,
  "TxRefAmp": 220.508,
  "WipMemBlock": "36634a1f-9e27-4f3e-b66d-85e704f7f925||Sequence: R016 ve11c/master r/e634e98; Dec 19 2017 11:00:25 by eja",
  "dcmmeta_affine": [
    [-1.996213436126709, -0.030662043020129204, -0.1191297322511673, 107.77902221679688],
    [-0.0028708374593406916, 1.9479581117630005, -0.4532669484615326, -73.028076171875],
    [-0.12297891080379486, 0.4522377848625183, 1.9443140029907227, -51.27632141113281],
    [0.0, 0.0, 0.0, 1.0]
],
  "dcmmeta_reorient_transform": [
    [0.0, -1.0, 0.0, 103.0],
    [1.0, 0.0, 0.0, 0.0],
    [0.0, 0.0, 1.0, 0.0],
    [0.0, 0.0, 0.0, 1.0]
],
  "dcmmeta_shape": [104, 104, 60, 129],
  "dcmmeta_slice_dim": 2,
  "dcmmeta_version": 0.6,
  "global": {
    "const": {
      "AcquisitionMatrix": [104, 0, 0, 104],
      "AngioFlag": "N",
      "BitsAllocated": 16,
      "BitsStored": 16,
      "BodyPartExamined": "BRAIN",
      "Columns": 832,
      "EchoNumbers": 1,
      "EchoTime": 37.0,
      "EchoTrainLength": 104,
      "FlipAngle": 52.0,
      "HighBit": 15,
      "ImageOrientationPatient": [0.99810670094095, 0.00143541867419, -0.0614894552749, -0.0153310217349, 0.97397905738804, -0.226118896915],
      "ImagePositionPatient": [-820.08152597282, -837.71335070609, 204.68305139629],
      "ImageType": [
        "ORIGINAL",
        "PRIMARY",
        "M",
        "MB",
        "ND",
        "MOSAIC"
],
      "ImagedNucleus": "1H",
      "ImagingFrequency": 123.2591,
      "InPlanePhaseEncodingDirection": "COL",
      "MRAcquisitionType": "2D",
      "MagneticFieldStrength": 3.0,
      "Manufacturer": "SIEMENS",
      "ManufacturerModelName": "Prisma_fit",
      "Modality": "MR",
      "NumberOfAverages": 1.0,
      "NumberOfPhaseEncodingSteps": 104,
      "PercentPhaseFieldOfView": 100.0,
      "PercentSampling": 100.0,
      "PerformedProcedureStepStartTime": "100721.125000",
      "PhotometricInterpretation": "MONOCHROME2",
      "PixelBandwidth": 2290.0,
      "PixelRepresentation": 0,
      "PixelSpacing": [2.0, 2.0],
      "ProtocolName": "func_task-gambling_run-2",
      "RepetitionTime": 1490.0,
      "Rows": 832,
      "SAR": 0.03019464192012,
      "SamplesPerPixel": 1,
      "ScanOptions": "FS",
      "ScanningSequence": "EP",
      "SequenceName": "epfid2d1_104",
      "SequenceVariant": [
        "SK",
        "SS"
],
      "SeriesDescription": "func_task-gambling_run-2",
      "SeriesNumber": 24,
      "SeriesTime": "105342.613000",
      "SliceLocation": -39.717873076397,
      "SliceThickness": 2.0,
      "SmallestImagePixelValue": 0,
      "SoftwareVersions": "syngo MR E11",
      "SpacingBetweenSlices": 1.9999999630667,
      "SpecificCharacterSet": "ISO_IR 100",
      "StudyID": "1",
      "StudyTime": "100721.040000",
      "TransmitCoilName": "Body",
      "VariableFlipAngleFlag": "N",
      "WindowCenterWidthExplanation": "Algo1",
      "dBdt": 0.0},
    "slices": {}
  },
  "time": {
    "samples": {
      "AcquisitionNumber": [1, 2, 3, 4, 5, 6, 7, 8, 9, 10, 11, 12, 13, 14, 15, 16, 17, 18, 19, 20, 21, 22, 23, 24, 25, 26, 27, 28, 29, 30, 31, 32, 33, 34, 35, 36, 37, 38, 39, 40, 41, 42, 43, 44, 45, 46, 47, 48, 49, 50, 51, 52, 53, 54, 55, 56, 57, 58, 59, 60, 61, 62, 63, 64, 65, 66, 67, 68, 69, 70, 71, 72, 73, 74, 75, 76, 77, 78, 79, 80, 81, 82, 83, 84, 85, 86, 87, 88, 89, 90, 91, 92, 93, 94, 95, 96, 97, 98, 99, 100, 101, 102, 103, 104, 105, 106, 107, 108, 109, 110, 111, 112, 113, 114, 115, 116, 117, 118, 119, 120, 121, 122, 123, 124, 125, 126, 127, 128, 129],
      "AcquisitionTime": ["105216.330000", "105217.820000", "105219.310000", "105220.800000", "105222.290000", "105223.780000", "105225.270000", "105226.760000", "105228.250000", "105229.740000", "105231.230000", "105232.720000", "105234.210000", "105235.700000", "105237.190000", "105238.680000", "105240.170000", "105241.660000", "105243.150000", "105244.640000", "105246.130000", "105247.620000", "105249.110000", "105250.600000", "105252.090000", "105253.580000", "105255.070000", "105256.560000", "105258.050000", "105259.540000", "105301.030000", "105302.520000", "105304.010000", "105305.500000", "105306.990000", "105308.480000", "105309.970000", "105311.460000", "105312.950000", "105314.440000", "105315.930000", "105317.420000", "105318.910000", "105320.400000", "105321.890000", "105323.380000", "105324.870000", "105326.360000", "105327.850000", "105329.340000", "105330.830000", "105332.320000", "105333.810000", "105335.300000", "105336.790000", "105338.280000", "105339.770000", "105341.260000", "105342.750000", "105344.240000", "105345.730000", "105347.220000", "105348.710000", "105350.200000", "105351.690000", "105353.180000", "105354.670000", "105356.160000", "105357.650000", "105359.140000", "105400.630000", "105402.120000", "105403.610000", "105405.100000", "105406.590000", "105408.080000", "105409.570000", "105411.060000", "105412.550000", "105414.040000", "105415.530000", "105417.020000", "105418.510000", "105420.000000", "105421.490000", "105422.980000", "105424.470000", "105425.960000", "105427.450000", "105428.940000", "105430.430000", "105431.920000", "105433.410000", "105434.900000", "105436.390000", "105437.880000", "105439.370000", "105440.860000", "105442.350000", "105443.840000", "105445.330000", "105446.820000", "105448.310000", "105449.800000", "105451.290000", "105452.780000", "105454.270000", "105455.760000", "105457.250000", "105458.740000", "105500.230000", "105501.720000", "105503.210000", "105504.700000", "105506.190000", "105507.680000", "105509.170000", "105510.660000", "105512.150000", "105513.640000", "105515.130000", "105516.620000", "105518.110000", "105519.600000", "105521.090000", "105522.580000", "105524.070000", "105525.560000", "105527.050000"],
      "ContentTime": ["105342.615000", "105342.626000", "105342.629000", "105342.632000", "105342.635000", "105342.638000", "105342.641000", "105342.644000", "105342.649000", "105342.652000", "105342.655000", "105342.658000", "105342.661000", "105342.664000", "105342.667000", "105342.669000", "105342.672000", "105342.675000", "105342.678000", "105342.681000", "105342.684000", "105342.686000", "105342.689000", "105342.692000", "105342.695000", "105342.709000", "105342.714000", "105342.717000", "105342.720000", "105342.723000", "105342.726000", "105342.729000", "105402.583000", "105402.586000", "105402.589000", "105402.592000", "105402.595000", "105402.598000", "105402.601000", "105402.604000", "105402.607000", "105402.610000", "105402.613000", "105402.616000", "105402.619000", "105402.621000", "105402.624000", "105402.627000", "105402.630000", "105402.633000", "105402.636000", "105402.639000", "105422.583000", "105422.586000", "105422.589000", "105422.592000", "105422.595000", "105422.598000", "105422.600000", "105422.603000", "105422.606000", "105422.609000", "105422.612000", "105422.615000", "105422.618000", "105422.621000", "105422.623000", "105422.626000", "105422.629000", "105422.632000", "105422.635000", "105422.638000", "105422.641000", "105442.583000", "105442.586000", "105442.589000", "105442.592000", "105442.595000", "105442.597000", "105442.600000", "105442.603000", "105442.606000", "105442.609000", "105442.612000", "105442.615000", "105442.618000", "105442.620000", "105442.623000", "105442.626000", "105442.629000", "105442.632000", "105442.635000", "105442.638000", "105522.583000", "105522.586000", "105522.589000", "105522.592000", "105522.595000", "105522.598000", "105522.600000", "105522.603000", "105522.606000", "105522.609000", "105522.612000", "105522.615000", "105522.618000", "105522.621000", "105522.624000", "105522.630000", "105522.633000", "105522.636000", "105522.638000", "105522.641000", "105522.644000", "105522.647000", "105522.650000", "105522.653000", "105522.656000", "105522.658000", "105522.661000", "105522.664000", "105522.667000", "105522.670000", "105522.673000", "105529.127000", "105529.130000", "105529.133000", "105529.136000", "105529.139000"],
      "InstanceCreationTime": ["105342.615000", "105342.626000", "105342.629000", "105342.632000", "105342.635000", "105342.638000", "105342.641000", "105342.644000", "105342.649000", "105342.652000", "105342.655000", "105342.658000", "105342.661000", "105342.664000", "105342.667000", "105342.669000", "105342.672000", "105342.675000", "105342.678000", "105342.681000", "105342.684000", "105342.686000", "105342.689000", "105342.692000", "105342.695000", "105342.709000", "105342.714000", "105342.717000", "105342.720000", "105342.723000", "105342.726000", "105342.729000", "105402.583000", "105402.586000", "105402.589000", "105402.592000", "105402.595000", "105402.598000", "105402.601000", "105402.604000", "105402.607000", "105402.610000", "105402.613000", "105402.616000", "105402.619000", "105402.621000", "105402.624000", "105402.627000", "105402.630000", "105402.633000", "105402.636000", "105402.639000", "105422.583000", "105422.586000", "105422.589000", "105422.592000", "105422.595000", "105422.598000", "105422.600000", "105422.603000", "105422.606000", "105422.609000", "105422.612000", "105422.615000", "105422.618000", "105422.621000", "105422.623000", "105422.626000", "105422.629000", "105422.632000", "105422.635000", "105422.638000", "105422.641000", "105442.583000", "105442.586000", "105442.589000", "105442.592000", "105442.595000", "105442.597000", "105442.600000", "105442.603000", "105442.606000", "105442.609000", "105442.612000", "105442.615000", "105442.618000", "105442.620000", "105442.623000", "105442.626000", "105442.629000", "105442.632000", "105442.635000", "105442.638000", "105522.583000", "105522.586000", "105522.589000", "105522.592000", "105522.595000", "105522.598000", "105522.600000", "105522.603000", "105522.606000", "105522.609000", "105522.612000", "105522.615000", "105522.618000", "105522.621000", "105522.624000", "105522.630000", "105522.633000", "105522.636000", "105522.638000", "105522.641000", "105522.644000", "105522.647000", "105522.650000", "105522.653000", "105522.656000", "105522.658000", "105522.661000", "105522.664000", "105522.667000", "105522.670000", "105522.673000", "105529.127000", "105529.130000", "105529.133000", "105529.136000", "105529.139000"],
      "InstanceNumber": [1, 2, 3, 4, 5, 6, 7, 8, 9, 10, 11, 12, 13, 14, 15, 16, 17, 18, 19, 20, 21, 22, 23, 24, 25, 26, 27, 28, 29, 30, 31, 32, 33, 34, 35, 36, 37, 38, 39, 40, 41, 42, 43, 44, 45, 46, 47, 48, 49, 50, 51, 52, 53, 54, 55, 56, 57, 58, 59, 60, 61, 62, 63, 64, 65, 66, 67, 68, 69, 70, 71, 72, 73, 74, 75, 76, 77, 78, 79, 80, 81, 82, 83, 84, 85, 86, 87, 88, 89, 90, 91, 92, 93, 94, 95, 96, 97, 98, 99, 100, 101, 102, 103, 104, 105, 106, 107, 108, 109, 110, 111, 112, 113, 114, 115, 116, 117, 118, 119, 120, 121, 122, 123, 124, 125, 126, 127, 128, 129],
      "LargestImagePixelValue": [47981, 46934, 46565, 45669, 45631, 45229, 45476, 45031, 45216, 44904, 44442, 44681, 44536, 44236, 44267, 44246, 44455, 44501, 44438, 44169, 44336, 43971, 44247, 44002, 43912, 44013, 43791, 42932, 42590, 42990, 43040, 43582, 42787, 43682, 44015, 44794, 44294, 43898, 43788, 43334, 43334, 42932, 43466, 42625, 42436, 43115, 42514, 42516, 43020, 42289, 42505, 42622, 42138, 42926, 42246, 42347, 42628, 42618, 42164, 42307, 41878, 42233, 41958, 42122, 42447, 42624, 43613, 45208, 43824, 42972, 42836, 42421, 42244, 42483, 42926, 43070, 43783, 43372, 44049, 43257, 43182, 42774, 42878, 42770, 43298, 42955, 43085, 42961, 43517, 43141, 43581, 43079, 43168, 42806, 42861, 42561, 43078, 42357, 42597, 42687, 43041, 42718, 42619, 42914, 43404, 42926, 42623, 42898, 42619, 42874, 43247, 42957, 43261, 42811, 43064, 42853, 43261, 43156, 43116, 43216, 42867, 43452, 43771, 43710, 43710, 44159, 43974, 43730, 43882],
      "WindowCenter": [10121.0, 10080.0, 10069.0, 10059.0, 10064.0, 10059.0, 10060.0, 10067.0, 10074.0, 10076.0, 10076.0, 10075.0, 10076.0, 10071.0, 10069.0, 10064.0, 10061.0, 10059.0, 10052.0, 10052.0, 10049.0, 10053.0, 10052.0, 10051.0, 10046.0, 10043.0, 10047.0, 10031.0, 10035.0, 10049.0, 10048.0, 10039.0, 10008.0, 10001.0, 9997.0, 10003.0, 10020.0, 10016.0, 10023.0, 10017.0, 10017.0, 10019.0, 10042.0, 10040.0, 10049.0, 10046.0, 10033.0, 10022.0, 10022.0, 10005.0, 10011.0, 10003.0, 10012.0, 10020.0, 10013.0, 10009.0, 10005.0, 10004.0, 10006.0, 9999.0, 9992.0, 9996.0, 9991.0, 9996.0, 9997.0, 10016.0, 10028.0, 10052.0, 10044.0, 10023.0, 10015.0, 10005.0, 9991.0, 9998.0, 10004.0, 10010.0, 10019.0, 10021.0, 10031.0, 10028.0, 10035.0, 10038.0, 10031.0, 10031.0, 10027.0, 10012.0, 10010.0, 10010.0, 10008.0, 10001.0, 9990.0, 9990.0, 9988.0, 9982.0, 9975.0, 9981.0, 9980.0, 9977.0, 9974.0, 9981.0, 9996.0, 9997.0, 9997.0, 9998.0, 10004.0, 10008.0, 10009.0, 10004.0, 9991.0, 9988.0, 9985.0, 9989.0, 9996.0, 9998.0, 9998.0, 9990.0, 9987.0, 9980.0, 9985.0, 9976.0, 9976.0, 9981.0, 9996.0, 10000.0, 10007.0, 10004.0, 9993.0, 9984.0, 9980.0],
      "WindowWidth": [21713.0, 21590.0, 21549.0, 21518.0, 21522.0, 21511.0, 21512.0, 21524.0, 21540.0, 21543.0, 21544.0, 21542.0, 21543.0, 21536.0, 21534.0, 21519.0, 21511.0, 21507.0, 21491.0, 21493.0, 21483.0, 21493.0, 21491.0, 21490.0, 21482.0, 21473.0, 21484.0, 21452.0, 21465.0, 21490.0, 21486.0, 21464.0, 21398.0, 21375.0, 21368.0, 21380.0, 21416.0, 21409.0, 21424.0, 21415.0, 21415.0, 21421.0, 21471.0, 21473.0, 21491.0, 21482.0, 21454.0, 21427.0, 21428.0, 21391.0, 21401.0, 21383.0, 21401.0, 21419.0, 21407.0, 21401.0, 21389.0, 21385.0, 21390.0, 21376.0, 21360.0, 21368.0, 21358.0, 21364.0, 21367.0, 21414.0, 21436.0, 21482.0, 21472.0, 21429.0, 21410.0, 21388.0, 21357.0, 21369.0, 21381.0, 21396.0, 21415.0, 21421.0, 21439.0, 21437.0, 21453.0, 21462.0, 21446.0, 21445.0, 21433.0, 21400.0, 21393.0, 21394.0, 21388.0, 21377.0, 21350.0, 21349.0, 21343.0, 21332.0, 21318.0, 21331.0, 21326.0, 21324.0, 21316.0, 21330.0, 21363.0, 21365.0, 21367.0, 21368.0, 21379.0, 21390.0, 21394.0, 21381.0, 21354.0, 21345.0, 21335.0, 21348.0, 21362.0, 21367.0, 21367.0, 21349.0, 21340.0, 21324.0, 21332.0, 21314.0, 21311.0, 21321.0, 21352.0, 21362.0, 21378.0, 21369.0, 21349.0, 21329.0, 21317.0]
    },
    "slices": {}
  }
}