{
  "AcquisitionMatrixPE": 104,
  "AcquisitionNumber": 1,
  "AcquisitionTime": "10:36:23.747500",
  "BandwidthPerPixelPhaseEncode": 17.17,
  "BaseResolution": 104,
  "BodyPartExamined": "BRAIN",
  "CoilString": "HC1-7;NC1_2",
  "ConsistencyInfo": "N4_VE11C_LATEST_20160120",
  "ConversionSoftware": "dcm2niix",
  "ConversionSoftwareVersion": "v1.0.20200427",
  "DerivedVendorReportedEchoSpacing": 0.000560011,
  "DeviceSerialNumber": "167006",
  "DwellTime": 2.1e-06,
  "EchoTime": 0.037,
  "EchoTrainLength": 104,
  "EffectiveEchoSpacing": 0.000560011,
  "FlipAngle": 52,
  "ImageComments": "Unaliased_MB4_PE3_LB",
  "ImageOrientationPatientDICOM": [0.998107, 0.00143542, -0.0614895, -0.015331, 0.973979, -0.226119],
  "ImageType": [
    "ORIGINAL",
    "PRIMARY",
    "M",
    "MB",
    "ND",
    "MOSAIC"
],
  "ImagingFrequency": 123.259,
  "InPlanePhaseEncodingDirectionDICOM": "COL",
  "InstitutionAddress": "Chemin_Queen-Mary_4565_Montreal_District_CA_H3W_1W5",
  "InstitutionName": "IUGM",
  "InstitutionalDepartmentName": "Department",
  "MRAcquisitionType": "2D",
  "MagneticFieldStrength": 3,
  "Manufacturer": "Siemens",
  "ManufacturersModelName": "Prisma_fit",
  "Modality": "MR",
  "MultibandAccelerationFactor": 4,
  "PartialFourier": 1,
  "PatientPosition": "HFS",
  "PercentPhaseFOV": 100,
  "PercentSampling": 100,
  "PhaseEncodingDirection": "j",
  "PhaseEncodingSteps": 104,
  "PhaseResolution": 1,
  "PixelBandwidth": 2290,
  "ProcedureStepDescription": "hcptrt_generic",
  "ProtocolName": "func_task-gambling_run-1",
  "PulseSequenceDetails": "%CustomerSeq%_cmrr_mbep2d_bold",
  "ReceiveCoilActiveElements": "HC1-7;NC1,2",
  "ReceiveCoilName": "HeadNeck_64",
  "ReconMatrixPE": 104,
  "RepetitionTime": 1.49,
  "SAR": 0.0301946,
  "ScanOptions": "FS",
  "ScanningSequence": "EP",
  "SequenceName": "epfid2d1_104",
  "SequenceVariant": "SK_SS",
  "SeriesDescription": "func_task-gambling_run-1",
  "SeriesNumber": 16,
  "ShimSetting": [596, -7255, -8854, 591, -53, -290, 17, 59],
  "SliceThickness": 2,
  "SliceTiming": [0, 0.7825, 0.0975, 0.88, 0.195, 0.98, 0.2925, 1.0775, 0.39, 1.175, 0.49, 1.2725, 0.5875, 1.37, 0.685, 0, 0.7825, 0.0975, 0.88, 0.195, 0.98, 0.2925, 1.0775, 0.39, 1.175, 0.49, 1.2725, 0.5875, 1.37, 0.685, 0, 0.7825, 0.0975, 0.88, 0.195, 0.98, 0.2925, 1.0775, 0.39, 1.175, 0.49, 1.2725, 0.5875, 1.37, 0.685, 0, 0.7825, 0.0975, 0.88, 0.195, 0.98, 0.2925, 1.0775, 0.39, 1.175, 0.49, 1.2725, 0.5875, 1.37, 0.685],
  "SoftwareVersions": "syngo_MR_E11",
  "SpacingBetweenSlices": 2,
  "StationName": "MRC35049",
  "TaskName": "gambling",
  "TotalReadoutTime": 0.0576811,
  "TxRefAmp": 220.508,
  "WipMemBlock": "45ac8f35-b166-49b5-82cf-d55fab14c953||Sequence: R016 ve11c/master r/e634e98; Dec 19 2017 11:00:25 by eja",
  "dcmmeta_affine": [
    [-1.996213436126709, -0.030662043020129204, -0.1191297322511673, 107.77902221679688],
    [-0.0028708374593406916, 1.9479581117630005, -0.4532669484615326, -73.028076171875],
    [-0.12297891080379486, 0.4522377848625183, 1.9443140029907227, -51.27632141113281],
    [0.0, 0.0, 0.0, 1.0]
],
  "dcmmeta_reorient_transform": [
    [0.0, -1.0, 0.0, 103.0],
    [1.0, 0.0, 0.0, 0.0],
    [0.0, 0.0, 1.0, 0.0],
    [0.0, 0.0, 0.0, 1.0]
],
  "dcmmeta_shape": [104, 104, 60, 129],
  "dcmmeta_slice_dim": 2,
  "dcmmeta_version": 0.6,
  "global": {
    "const": {
      "AcquisitionMatrix": [104, 0, 0, 104],
      "AngioFlag": "N",
      "BitsAllocated": 16,
      "BitsStored": 16,
      "BodyPartExamined": "BRAIN",
      "Columns": 832,
      "EchoNumbers": 1,
      "EchoTime": 37.0,
      "EchoTrainLength": 104,
      "FlipAngle": 52.0,
      "HighBit": 15,
      "ImageOrientationPatient": [0.99810670094095, 0.00143541867419, -0.0614894552749, -0.0153310217349, 0.97397905738804, -0.226118896915],
      "ImagePositionPatient": [-820.08152597282, -837.71335070609, 204.68305139629],
      "ImageType": [
        "ORIGINAL",
        "PRIMARY",
        "M",
        "MB",
        "ND",
        "MOSAIC"
],
      "ImagedNucleus": "1H",
      "ImagingFrequency": 123.259101,
      "InPlanePhaseEncodingDirection": "COL",
      "MRAcquisitionType": "2D",
      "MagneticFieldStrength": 3.0,
      "Manufacturer": "SIEMENS",
      "ManufacturerModelName": "Prisma_fit",
      "Modality": "MR",
      "NumberOfAverages": 1.0,
      "NumberOfPhaseEncodingSteps": 104,
      "PercentPhaseFieldOfView": 100.0,
      "PercentSampling": 100.0,
      "PerformedProcedureStepStartTime": "100721.125000",
      "PhotometricInterpretation": "MONOCHROME2",
      "PixelBandwidth": 2290.0,
      "PixelRepresentation": 0,
      "PixelSpacing": [2.0, 2.0],
      "ProtocolName": "func_task-gambling_run-1",
      "RepetitionTime": 1490.0,
      "Rows": 832,
      "SAR": 0.03019464192012,
      "SamplesPerPixel": 1,
      "ScanOptions": "FS",
      "ScanningSequence": "EP",
      "SequenceName": "epfid2d1_104",
      "SequenceVariant": [
        "SK",
        "SS"
],
      "SeriesDescription": "func_task-gambling_run-1",
      "SeriesNumber": 16,
      "SeriesTime": "103745.561000",
      "SliceLocation": -39.717873076397,
      "SliceThickness": 2.0,
      "SmallestImagePixelValue": 0,
      "SoftwareVersions": "syngo MR E11",
      "SpacingBetweenSlices": 1.9999999630667,
      "SpecificCharacterSet": "ISO_IR 100",
      "StudyID": "1",
      "StudyTime": "100721.040000",
      "TransmitCoilName": "Body",
      "VariableFlipAngleFlag": "N",
      "WindowCenterWidthExplanation": "Algo1",
      "dBdt": 0.0},
    "slices": {}
  },
  "time": {
    "samples": {
      "AcquisitionNumber": [1, 2, 3, 4, 5, 6, 7, 8, 9, 10, 11, 12, 13, 14, 15, 16, 17, 18, 19, 20, 21, 22, 23, 24, 25, 26, 27, 28, 29, 30, 31, 32, 33, 34, 35, 36, 37, 38, 39, 40, 41, 42, 43, 44, 45, 46, 47, 48, 49, 50, 51, 52, 53, 54, 55, 56, 57, 58, 59, 60, 61, 62, 63, 64, 65, 66, 67, 68, 69, 70, 71, 72, 73, 74, 75, 76, 77, 78, 79, 80, 81, 82, 83, 84, 85, 86, 87, 88, 89, 90, 91, 92, 93, 94, 95, 96, 97, 98, 99, 100, 101, 102, 103, 104, 105, 106, 107, 108, 109, 110, 111, 112, 113, 114, 115, 116, 117, 118, 119, 120, 121, 122, 123, 124, 125, 126, 127, 128, 129],
      "AcquisitionTime": ["103623.747500", "103625.237500", "103626.727500", "103628.217500", "103629.707500", "103631.197500", "103632.687500", "103634.177500", "103635.667500", "103637.157500", "103638.647500", "103640.137500", "103641.627500", "103643.117500", "103644.607500", "103646.097500", "103647.587500", "103649.077500", "103650.567500", "103652.057500", "103653.547500", "103655.037500", "103656.527500", "103658.017500", "103659.507500", "103700.997500", "103702.487500", "103703.977500", "103705.467500", "103706.957500", "103708.447500", "103709.937500", "103711.427500", "103712.917500", "103714.407500", "103715.897500", "103717.387500", "103718.877500", "103720.367500", "103721.857500", "103723.347500", "103724.837500", "103726.327500", "103727.817500", "103729.307500", "103730.797500", "103732.287500", "103733.777500", "103735.267500", "103736.757500", "103738.247500", "103739.737500", "103741.227500", "103742.717500", "103744.207500", "103745.697500", "103747.187500", "103748.677500", "103750.167500", "103751.657500", "103753.147500", "103754.637500", "103756.127500", "103757.617500", "103759.107500", "103800.597500", "103802.087500", "103803.577500", "103805.067500", "103806.557500", "103808.047500", "103809.537500", "103811.027500", "103812.517500", "103814.007500", "103815.497500", "103816.987500", "103818.477500", "103819.967500", "103821.457500", "103822.947500", "103824.437500", "103825.927500", "103827.417500", "103828.907500", "103830.397500", "103831.887500", "103833.377500", "103834.867500", "103836.357500", "103837.847500", "103839.337500", "103840.827500", "103842.317500", "103843.807500", "103845.297500", "103846.787500", "103848.277500", "103849.767500", "103851.257500", "103852.747500", "103854.237500", "103855.727500", "103857.217500", "103858.707500", "103900.197500", "103901.687500", "103903.177500", "103904.667500", "103906.157500", "103907.647500", "103909.137500", "103910.627500", "103912.117500", "103913.607500", "103915.097500", "103916.587500", "103918.077500", "103919.567500", "103921.057500", "103922.547500", "103924.037500", "103925.527500", "103927.017500", "103928.507500", "103929.997500", "103931.487500", "103932.977500", "103934.467500"],
      "ContentTime": ["103745.564000", "103745.568000", "103745.571000", "103745.573000", "103745.586000", "103745.589000", "103745.592000", "103745.595000", "103745.598000", "103745.600000", "103745.603000", "103745.606000", "103745.609000", "103745.612000", "103745.615000", "103745.617000", "103745.620000", "103745.623000", "103745.626000", "103745.629000", "103745.632000", "103745.635000", "103745.638000", "103745.640000", "103745.643000", "103745.646000", "103745.649000", "103805.529000", "103805.532000", "103805.535000", "103805.537000", "103805.541000", "103805.543000", "103805.547000", "103805.550000", "103805.553000", "103805.555000", "103805.558000", "103805.561000", "103805.564000", "103805.573000", "103805.576000", "103805.579000", "103805.582000", "103805.585000", "103805.588000", "103805.590000", "103825.529000", "103825.532000", "103825.535000", "103825.538000", "103825.541000", "103825.543000", "103825.546000", "103825.549000", "103825.552000", "103825.555000", "103825.558000", "103825.561000", "103825.563000", "103825.566000", "103825.569000", "103825.572000", "103825.575000", "103825.578000", "103825.581000", "103825.583000", "103825.586000", "103845.529000", "103845.532000", "103845.535000", "103845.538000", "103845.540000", "103845.543000", "103845.546000", "103845.549000", "103845.552000", "103845.555000", "103845.558000", "103845.561000", "103845.563000", "103845.566000", "103845.569000", "103845.572000", "103845.575000", "103845.578000", "103845.581000", "103845.584000", "103925.529000", "103925.532000", "103925.535000", "103925.538000", "103925.541000", "103925.543000", "103925.546000", "103925.549000", "103925.552000", "103925.555000", "103925.558000", "103925.561000", "103925.564000", "103925.566000", "103925.569000", "103925.591000", "103925.594000", "103925.597000", "103925.599000", "103925.602000", "103925.605000", "103925.608000", "103925.611000", "103925.614000", "103925.617000", "103925.620000", "103925.622000", "103925.625000", "103925.628000", "103925.631000", "103925.634000", "103925.637000", "103925.640000", "103937.066000", "103937.069000", "103937.072000", "103937.075000", "103937.078000", "103937.081000", "103937.084000", "103937.087000"],
      "InstanceCreationTime": ["103745.564000", "103745.568000", "103745.571000", "103745.573000", "103745.586000", "103745.589000", "103745.592000", "103745.595000", "103745.598000", "103745.600000", "103745.603000", "103745.606000", "103745.609000", "103745.612000", "103745.615000", "103745.617000", "103745.620000", "103745.623000", "103745.626000", "103745.629000", "103745.632000", "103745.635000", "103745.638000", "103745.640000", "103745.643000", "103745.646000", "103745.649000", "103805.529000", "103805.532000", "103805.535000", "103805.537000", "103805.541000", "103805.543000", "103805.547000", "103805.550000", "103805.553000", "103805.555000", "103805.558000", "103805.561000", "103805.564000", "103805.573000", "103805.576000", "103805.579000", "103805.582000", "103805.585000", "103805.588000", "103805.590000", "103825.529000", "103825.532000", "103825.535000", "103825.538000", "103825.541000", "103825.543000", "103825.546000", "103825.549000", "103825.552000", "103825.555000", "103825.558000", "103825.561000", "103825.563000", "103825.566000", "103825.569000", "103825.572000", "103825.575000", "103825.578000", "103825.581000", "103825.583000", "103825.586000", "103845.529000", "103845.532000", "103845.535000", "103845.538000", "103845.540000", "103845.543000", "103845.546000", "103845.549000", "103845.552000", "103845.555000", "103845.558000", "103845.561000", "103845.563000", "103845.566000", "103845.569000", "103845.572000", "103845.575000", "103845.578000", "103845.581000", "103845.584000", "103925.529000", "103925.532000", "103925.535000", "103925.538000", "103925.541000", "103925.543000", "103925.546000", "103925.549000", "103925.552000", "103925.555000", "103925.558000", "103925.561000", "103925.564000", "103925.566000", "103925.569000", "103925.591000", "103925.594000", "103925.597000", "103925.599000", "103925.602000", "103925.605000", "103925.608000", "103925.611000", "103925.614000", "103925.617000", "103925.620000", "103925.622000", "103925.625000", "103925.628000", "103925.631000", "103925.634000", "103925.637000", "103925.640000", "103937.066000", "103937.069000", "103937.072000", "103937.075000", "103937.078000", "103937.081000", "103937.084000", "103937.087000"],
      "InstanceNumber": [1, 2, 3, 4, 5, 6, 7, 8, 9, 10, 11, 12, 13, 14, 15, 16, 17, 18, 19, 20, 21, 22, 23, 24, 25, 26, 27, 28, 29, 30, 31, 32, 33, 34, 35, 36, 37, 38, 39, 40, 41, 42, 43, 44, 45, 46, 47, 48, 49, 50, 51, 52, 53, 54, 55, 56, 57, 58, 59, 60, 61, 62, 63, 64, 65, 66, 67, 68, 69, 70, 71, 72, 73, 74, 75, 76, 77, 78, 79, 80, 81, 82, 83, 84, 85, 86, 87, 88, 89, 90, 91, 92, 93, 94, 95, 96, 97, 98, 99, 100, 101, 102, 103, 104, 105, 106, 107, 108, 109, 110, 111, 112, 113, 114, 115, 116, 117, 118, 119, 120, 121, 122, 123, 124, 125, 126, 127, 128, 129],
      "LargestImagePixelValue": [48078, 46390, 45935, 45428, 44660, 44500, 44915, 45035, 45138, 44669, 44634, 44299, 44186, 44595, 44573, 44530, 44470, 44582, 44756, 44465, 44207, 44499, 44056, 44530, 44142, 44154, 44435, 44562, 44574, 43919, 44085, 44064, 44030, 44258, 44408, 44179, 44597, 44151, 43940, 43707, 44041, 44574, 44963, 44734, 44735, 44676, 44837, 44988, 44764, 45076, 44768, 45350, 45176, 44803, 45216, 45531, 45006, 45302, 44933, 45019, 45031, 45006, 45274, 44803, 45074, 45081, 44741, 45152, 45092, 45478, 45142, 45350, 45181, 44888, 45172, 45139, 45105, 45425, 44894, 45192, 45164, 45049, 45506, 45320, 45439, 45751, 45451, 45551, 45337, 45091, 46095, 45008, 44888, 45277, 44805, 44350, 44292, 43797, 43856, 43515, 44349, 44098, 44957, 44347, 44255, 44456, 44476, 44456, 44839, 44772, 44234, 44497, 44513, 45208, 45105, 45267, 45229, 44986, 45173, 45429, 45344, 45224, 44863, 45098, 45256, 45214, 45901, 45236, 45402],
      "WindowCenter": [10020.0, 9983.0, 9976.0, 9962.0, 9961.0, 9956.0, 9968.0, 9979.0, 9986.0, 9995.0, 9981.0, 9975.0, 9981.0, 9980.0, 9988.0, 9988.0, 9979.0, 9979.0, 9971.0, 9971.0, 9973.0, 9979.0, 9980.0, 9972.0, 9971.0, 9963.0, 9952.0, 9958.0, 9950.0, 9950.0, 9950.0, 9944.0, 9944.0, 9945.0, 9951.0, 9947.0, 9960.0, 9970.0, 9972.0, 9965.0, 9964.0, 9970.0, 9974.0, 9977.0, 9969.0, 9967.0, 9967.0, 9966.0, 9965.0, 9967.0, 9967.0, 9974.0, 9967.0, 9961.0, 9966.0, 9972.0, 9973.0, 9965.0, 9958.0, 9967.0, 9974.0, 9975.0, 9966.0, 9965.0, 9964.0, 9965.0, 9959.0, 9965.0, 9966.0, 9972.0, 9973.0, 9973.0, 9966.0, 9959.0, 9963.0, 9957.0, 9961.0, 9969.0, 9964.0, 9978.0, 9973.0, 9971.0, 9962.0, 9961.0, 9968.0, 9970.0, 9962.0, 9961.0, 9953.0, 9952.0, 9964.0, 9962.0, 9972.0, 9964.0, 9978.0, 9984.0, 9976.0, 9959.0, 9926.0, 9889.0, 9874.0, 9880.0, 9903.0, 9907.0, 9917.0, 9925.0, 9931.0, 9935.0, 9952.0, 9961.0, 9965.0, 9963.0, 9954.0, 9958.0, 9958.0, 9967.0, 9976.0, 9976.0, 9975.0, 9970.0, 9968.0, 9970.0, 9968.0, 9969.0, 9969.0, 9975.0, 9977.0, 9964.0, 9962.0],
      "WindowWidth": [21461.0, 21352.0, 21318.0, 21282.0, 21273.0, 21260.0, 21283.0, 21307.0, 21320.0, 21338.0, 21310.0, 21299.0, 21311.0, 21309.0, 21328.0, 21326.0, 21306.0, 21305.0, 21287.0, 21290.0, 21295.0, 21307.0, 21309.0, 21290.0, 21285.0, 21269.0, 21245.0, 21255.0, 21239.0, 21240.0, 21239.0, 21230.0, 21231.0, 21232.0, 21245.0, 21239.0, 21263.0, 21288.0, 21292.0, 21277.0, 21275.0, 21286.0, 21295.0, 21300.0, 21284.0, 21277.0, 21279.0, 21275.0, 21273.0, 21278.0, 21277.0, 21293.0, 21279.0, 21267.0, 21277.0, 21287.0, 21291.0, 21271.0, 21260.0, 21279.0, 21293.0, 21296.0, 21274.0, 21271.0, 21271.0, 21272.0, 21263.0, 21274.0, 21276.0, 21288.0, 21291.0, 21290.0, 21276.0, 21263.0, 21268.0, 21256.0, 21261.0, 21277.0, 21271.0, 21301.0, 21289.0, 21284.0, 21264.0, 21259.0, 21278.0, 21281.0, 21267.0, 21261.0, 21244.0, 21244.0, 21275.0, 21267.0, 21290.0, 21275.0, 21303.0, 21321.0, 21303.0, 21264.0, 21190.0, 21107.0, 21067.0, 21079.0, 21128.0, 21142.0, 21164.0, 21182.0, 21195.0, 21207.0, 21244.0, 21266.0, 21274.0, 21270.0, 21250.0, 21255.0, 21253.0, 21274.0, 21292.0, 21296.0, 21295.0, 21284.0, 21279.0, 21283.0, 21276.0, 21277.0, 21277.0, 21288.0, 21294.0, 21269.0, 21262.0]
    },
    "slices": {}
  }
}