{
  "AcquisitionMatrixPE": 104,
  "AcquisitionNumber": 1,
  "AcquisitionTime": "10:20:57.637500",
  "BandwidthPerPixelPhaseEncode": 17.17,
  "BaseResolution": 104,
  "BodyPartExamined": "BRAIN",
  "CoilString": "HC1-7;NC1_2",
  "ConsistencyInfo": "N4_VE11C_LATEST_20160120",
  "ConversionSoftware": "dcm2niix",
  "ConversionSoftwareVersion": "v1.0.20200427",
  "DerivedVendorReportedEchoSpacing": 0.000560011,
  "DeviceSerialNumber": "167006",
  "DwellTime": 2.1e-06,
  "EchoTime": 0.037,
  "EchoTrainLength": 104,
  "EffectiveEchoSpacing": 0.000560011,
  "FlipAngle": 52,
  "ImageComments": "Unaliased_MB4_PE3_LB",
  "ImageOrientationPatientDICOM": [0.998107, 0.00143542, -0.0614895, -0.015331, 0.973979, -0.226119],
  "ImageType": [
    "ORIGINAL",
    "PRIMARY",
    "M",
    "MB",
    "ND",
    "MOSAIC"
],
  "ImagingFrequency": 123.259,
  "InPlanePhaseEncodingDirectionDICOM": "COL",
  "InstitutionAddress": "Chemin_Queen-Mary_4565_Montreal_District_CA_H3W_1W5",
  "InstitutionName": "IUGM",
  "InstitutionalDepartmentName": "Department",
  "MRAcquisitionType": "2D",
  "MagneticFieldStrength": 3,
  "Manufacturer": "Siemens",
  "ManufacturersModelName": "Prisma_fit",
  "Modality": "MR",
  "MultibandAccelerationFactor": 4,
  "PartialFourier": 1,
  "PatientPosition": "HFS",
  "PercentPhaseFOV": 100,
  "PercentSampling": 100,
  "PhaseEncodingDirection": "j",
  "PhaseEncodingSteps": 104,
  "PhaseResolution": 1,
  "PixelBandwidth": 2290,
  "ProcedureStepDescription": "hcptrt_generic",
  "ProtocolName": "func_task-language_run-1",
  "PulseSequenceDetails": "%CustomerSeq%_cmrr_mbep2d_bold",
  "ReceiveCoilActiveElements": "HC1-7;NC1,2",
  "ReceiveCoilName": "HeadNeck_64",
  "ReconMatrixPE": 104,
  "RepetitionTime": 1.49,
  "SAR": 0.0302772,
  "ScanOptions": "FS",
  "ScanningSequence": "EP",
  "SequenceName": "epfid2d1_104",
  "SequenceVariant": "SK_SS",
  "SeriesDescription": "func_task-language_run-1",
  "SeriesNumber": 10,
  "ShimSetting": [596, -7255, -8854, 591, -53, -290, 17, 59],
  "SliceThickness": 2,
  "SliceTiming": [0, 0.785, 0.0975, 0.8825, 0.195, 0.98, 0.295, 1.0775, 0.3925, 1.175, 0.49, 1.275, 0.5875, 1.3725, 0.685, 0, 0.785, 0.0975, 0.8825, 0.195, 0.98, 0.295, 1.0775, 0.3925, 1.175, 0.49, 1.275, 0.5875, 1.3725, 0.685, 0, 0.785, 0.0975, 0.8825, 0.195, 0.98, 0.295, 1.0775, 0.3925, 1.175, 0.49, 1.275, 0.5875, 1.3725, 0.685, 0, 0.785, 0.0975, 0.8825, 0.195, 0.98, 0.295, 1.0775, 0.3925, 1.175, 0.49, 1.275, 0.5875, 1.3725, 0.685],
  "SoftwareVersions": "syngo_MR_E11",
  "SpacingBetweenSlices": 2,
  "StationName": "MRC35049",
  "TaskName": "language",
  "TotalReadoutTime": 0.0576811,
  "TxRefAmp": 220.508,
  "WipMemBlock": "a4bae216-47e0-4af7-a01e-e63dd369fd35||Sequence: R016 ve11c/master r/e634e98; Dec 19 2017 11:00:25 by eja",
  "dcmmeta_affine": [
    [-1.996213436126709, -0.030662043020129204, -0.1191297322511673, 107.77902221679688],
    [-0.0028708374593406916, 1.9479581117630005, -0.4532669484615326, -73.028076171875],
    [-0.12297891080379486, 0.4522377848625183, 1.9443140029907227, -51.27632141113281],
    [0.0, 0.0, 0.0, 1.0]
],
  "dcmmeta_reorient_transform": [
    [0.0, -1.0, 0.0, 103.0],
    [1.0, 0.0, 0.0, 0.0],
    [0.0, 0.0, 1.0, 0.0],
    [0.0, 0.0, 0.0, 1.0]
],
  "dcmmeta_shape": [104, 104, 60, 159],
  "dcmmeta_slice_dim": 2,
  "dcmmeta_version": 0.6,
  "global": {
    "const": {
      "AcquisitionMatrix": [104, 0, 0, 104],
      "AngioFlag": "N",
      "BitsAllocated": 16,
      "BitsStored": 16,
      "BodyPartExamined": "BRAIN",
      "Columns": 832,
      "EchoNumbers": 1,
      "EchoTime": 37.0,
      "EchoTrainLength": 104,
      "FlipAngle": 52.0,
      "HighBit": 15,
      "ImageOrientationPatient": [0.99810670094095, 0.00143541867419, -0.0614894552749, -0.0153310217349, 0.97397905738804, -0.226118896915],
      "ImagePositionPatient": [-820.08152597282, -837.71335070609, 204.68305139629],
      "ImageType": [
        "ORIGINAL",
        "PRIMARY",
        "M",
        "MB",
        "ND",
        "MOSAIC"
],
      "ImagedNucleus": "1H",
      "ImagingFrequency": 123.259092,
      "InPlanePhaseEncodingDirection": "COL",
      "MRAcquisitionType": "2D",
      "MagneticFieldStrength": 3.0,
      "Manufacturer": "SIEMENS",
      "ManufacturerModelName": "Prisma_fit",
      "Modality": "MR",
      "NumberOfAverages": 1.0,
      "NumberOfPhaseEncodingSteps": 104,
      "PercentPhaseFieldOfView": 100.0,
      "PercentSampling": 100.0,
      "PerformedProcedureStepStartTime": "100721.125000",
      "PhotometricInterpretation": "MONOCHROME2",
      "PixelBandwidth": 2290.0,
      "PixelRepresentation": 0,
      "PixelSpacing": [2.0, 2.0],
      "ProtocolName": "func_task-language_run-1",
      "RepetitionTime": 1490.0,
      "Rows": 832,
      "SAR": 0.03027716849524,
      "SamplesPerPixel": 1,
      "ScanOptions": "FS",
      "ScanningSequence": "EP",
      "SequenceName": "epfid2d1_104",
      "SequenceVariant": [
        "SK",
        "SS"
],
      "SeriesDescription": "func_task-language_run-1",
      "SeriesNumber": 10,
      "SeriesTime": "102225.569000",
      "SliceLocation": -39.717873076397,
      "SliceThickness": 2.0,
      "SmallestImagePixelValue": 0,
      "SoftwareVersions": "syngo MR E11",
      "SpacingBetweenSlices": 1.9999999630667,
      "SpecificCharacterSet": "ISO_IR 100",
      "StudyID": "1",
      "StudyTime": "100721.040000",
      "TransmitCoilName": "Body",
      "VariableFlipAngleFlag": "N",
      "WindowCenterWidthExplanation": "Algo1",
      "dBdt": 0.0},
    "slices": {}
  },
  "time": {
    "samples": {
      "AcquisitionNumber": [1, 2, 3, 4, 5, 6, 7, 8, 9, 10, 11, 12, 13, 14, 15, 16, 17, 18, 19, 20, 21, 22, 23, 24, 25, 26, 27, 28, 29, 30, 31, 32, 33, 34, 35, 36, 37, 38, 39, 40, 41, 42, 43, 44, 45, 46, 47, 48, 49, 50, 51, 52, 53, 54, 55, 56, 57, 58, 59, 60, 61, 62, 63, 64, 65, 66, 67, 68, 69, 70, 71, 72, 73, 74, 75, 76, 77, 78, 79, 80, 81, 82, 83, 84, 85, 86, 87, 88, 89, 90, 91, 92, 93, 94, 95, 96, 97, 98, 99, 100, 101, 102, 103, 104, 105, 106, 107, 108, 109, 110, 111, 112, 113, 114, 115, 116, 117, 118, 119, 120, 121, 122, 123, 124, 125, 126, 127, 128, 129, 130, 131, 132, 133, 134, 135, 136, 137, 138, 139, 140, 141, 142, 143, 144, 145, 146, 147, 148, 149, 150, 151, 152, 153, 154, 155, 156, 157, 158, 159],
      "AcquisitionTime": ["102057.637500", "102059.127500", "102100.617500", "102102.107500", "102103.597500", "102105.087500", "102106.577500", "102108.067500", "102109.557500", "102111.047500", "102112.537500", "102114.027500", "102115.517500", "102117.007500", "102118.497500", "102119.987500", "102121.477500", "102122.967500", "102124.457500", "102125.947500", "102127.437500", "102128.927500", "102130.417500", "102131.907500", "102133.397500", "102134.887500", "102136.377500", "102137.867500", "102139.357500", "102140.847500", "102142.337500", "102143.827500", "102145.317500", "102146.807500", "102148.297500", "102149.787500", "102151.277500", "102152.767500", "102154.257500", "102155.747500", "102157.237500", "102158.727500", "102200.217500", "102201.707500", "102203.197500", "102204.687500", "102206.177500", "102207.667500", "102209.157500", "102210.647500", "102212.137500", "102213.627500", "102215.117500", "102216.607500", "102218.097500", "102219.587500", "102221.077500", "102222.567500", "102224.057500", "102225.547500", "102227.037500", "102228.527500", "102230.017500", "102231.507500", "102232.997500", "102234.487500", "102235.977500", "102237.467500", "102238.957500", "102240.447500", "102241.937500", "102243.427500", "102244.917500", "102246.407500", "102247.897500", "102249.387500", "102250.877500", "102252.367500", "102253.857500", "102255.347500", "102256.837500", "102258.327500", "102259.817500", "102301.307500", "102302.797500", "102304.287500", "102305.777500", "102307.267500", "102308.757500", "102310.247500", "102311.737500", "102313.227500", "102314.717500", "102316.207500", "102317.697500", "102319.187500", "102320.677500", "102322.167500", "102323.657500", "102325.147500", "102326.637500", "102328.127500", "102329.617500", "102331.107500", "102332.597500", "102334.087500", "102335.577500", "102337.067500", "102338.557500", "102340.047500", "102341.537500", "102343.027500", "102344.517500", "102346.007500", "102347.497500", "102348.987500", "102350.477500", "102351.967500", "102353.457500", "102354.947500", "102356.437500", "102357.927500", "102359.417500", "102400.907500", "102402.397500", "102403.887500", "102405.377500", "102406.867500", "102408.357500", "102409.847500", "102411.337500", "102412.827500", "102414.317500", "102415.807500", "102417.297500", "102418.787500", "102420.277500", "102421.767500", "102423.257500", "102424.747500", "102426.237500", "102427.727500", "102429.217500", "102430.707500", "102432.197500", "102433.687500", "102435.177500", "102436.667500", "102438.157500", "102439.647500", "102441.137500", "102442.627500", "102444.117500", "102445.607500", "102447.097500", "102448.587500", "102450.077500", "102451.567500", "102453.057500"],
      "ContentTime": ["102225.572000", "102225.575000", "102225.582000", "102225.585000", "102225.588000", "102225.591000", "102225.594000", "102225.597000", "102225.600000", "102225.603000", "102225.606000", "102225.610000", "102225.619000", "102225.622000", "102225.625000", "102225.628000", "102225.631000", "102225.635000", "102225.638000", "102225.641000", "102225.643000", "102225.646000", "102225.650000", "102225.653000", "102225.656000", "102225.659000", "102225.662000", "102225.666000", "102225.669000", "102225.672000", "102225.676000", "102225.679000", "102225.682000", "102225.684000", "102245.529000", "102245.532000", "102245.536000", "102245.540000", "102245.543000", "102245.546000", "102245.549000", "102245.552000", "102245.555000", "102245.558000", "102245.561000", "102245.564000", "102245.567000", "102245.570000", "102245.574000", "102245.582000", "102245.584000", "102245.587000", "102245.590000", "102245.593000", "102245.596000", "102305.549000", "102305.553000", "102305.556000", "102305.560000", "102305.563000", "102305.568000", "102305.572000", "102305.576000", "102305.579000", "102305.582000", "102305.587000", "102305.591000", "102305.594000", "102305.597000", "102305.600000", "102305.604000", "102305.608000", "102305.611000", "102305.614000", "102305.617000", "102325.529000", "102325.532000", "102325.535000", "102325.538000", "102325.540000", "102325.543000", "102325.546000", "102325.549000", "102325.552000", "102325.555000", "102325.557000", "102325.560000", "102325.563000", "102325.566000", "102325.569000", "102325.572000", "102325.574000", "102325.577000", "102325.580000", "102325.583000", "102405.528000", "102405.531000", "102405.534000", "102405.537000", "102405.539000", "102405.542000", "102405.545000", "102405.548000", "102405.551000", "102405.554000", "102405.557000", "102405.559000", "102405.562000", "102405.565000", "102405.568000", "102405.571000", "102405.573000", "102405.576000", "102405.579000", "102405.582000", "102405.585000", "102405.588000", "102405.591000", "102405.593000", "102405.596000", "102405.599000", "102405.602000", "102405.605000", "102405.607000", "102405.610000", "102445.529000", "102445.532000", "102445.535000", "102445.538000", "102445.541000", "102445.543000", "102445.546000", "102445.549000", "102445.552000", "102445.555000", "102445.558000", "102445.561000", "102445.564000", "102445.566000", "102445.569000", "102445.572000", "102445.575000", "102445.578000", "102445.581000", "102445.584000", "102445.586000", "102445.589000", "102445.592000", "102445.595000", "102445.598000", "102445.600000", "102445.603000", "102454.995000", "102455.000000", "102455.003000", "102455.006000", "102455.009000", "102455.012000", "102455.016000"],
      "InstanceCreationTime": ["102225.572000", "102225.575000", "102225.582000", "102225.585000", "102225.588000", "102225.591000", "102225.594000", "102225.597000", "102225.600000", "102225.603000", "102225.606000", "102225.610000", "102225.619000", "102225.622000", "102225.625000", "102225.628000", "102225.631000", "102225.635000", "102225.638000", "102225.641000", "102225.643000", "102225.646000", "102225.650000", "102225.653000", "102225.656000", "102225.659000", "102225.662000", "102225.666000", "102225.669000", "102225.672000", "102225.676000", "102225.679000", "102225.682000", "102225.684000", "102245.529000", "102245.532000", "102245.536000", "102245.540000", "102245.543000", "102245.546000", "102245.549000", "102245.552000", "102245.555000", "102245.558000", "102245.561000", "102245.564000", "102245.567000", "102245.570000", "102245.574000", "102245.582000", "102245.584000", "102245.587000", "102245.590000", "102245.593000", "102245.596000", "102305.549000", "102305.553000", "102305.556000", "102305.560000", "102305.563000", "102305.568000", "102305.572000", "102305.576000", "102305.579000", "102305.582000", "102305.587000", "102305.591000", "102305.594000", "102305.597000", "102305.600000", "102305.604000", "102305.608000", "102305.611000", "102305.614000", "102305.617000", "102325.529000", "102325.532000", "102325.535000", "102325.538000", "102325.540000", "102325.543000", "102325.546000", "102325.549000", "102325.552000", "102325.555000", "102325.557000", "102325.560000", "102325.563000", "102325.566000", "102325.569000", "102325.572000", "102325.574000", "102325.577000", "102325.580000", "102325.583000", "102405.528000", "102405.531000", "102405.534000", "102405.537000", "102405.539000", "102405.542000", "102405.545000", "102405.548000", "102405.551000", "102405.554000", "102405.557000", "102405.559000", "102405.562000", "102405.565000", "102405.568000", "102405.571000", "102405.573000", "102405.576000", "102405.579000", "102405.582000", "102405.585000", "102405.588000", "102405.591000", "102405.593000", "102405.596000", "102405.599000", "102405.602000", "102405.605000", "102405.607000", "102405.610000", "102445.529000", "102445.532000", "102445.535000", "102445.538000", "102445.541000", "102445.543000", "102445.546000", "102445.549000", "102445.552000", "102445.555000", "102445.558000", "102445.561000", "102445.564000", "102445.566000", "102445.569000", "102445.572000", "102445.575000", "102445.578000", "102445.581000", "102445.584000", "102445.586000", "102445.589000", "102445.592000", "102445.595000", "102445.598000", "102445.600000", "102445.603000", "102454.995000", "102455.000000", "102455.003000", "102455.006000", "102455.009000", "102455.012000", "102455.016000"],
      "InstanceNumber": [1, 2, 3, 4, 5, 6, 7, 8, 9, 10, 11, 12, 13, 14, 15, 16, 17, 18, 19, 20, 21, 22, 23, 24, 25, 26, 27, 28, 29, 30, 31, 32, 33, 34, 35, 36, 37, 38, 39, 40, 41, 42, 43, 44, 45, 46, 47, 48, 49, 50, 51, 52, 53, 54, 55, 56, 57, 58, 59, 60, 61, 62, 63, 64, 65, 66, 67, 68, 69, 70, 71, 72, 73, 74, 75, 76, 77, 78, 79, 80, 81, 82, 83, 84, 85, 86, 87, 88, 89, 90, 91, 92, 93, 94, 95, 96, 97, 98, 99, 100, 101, 102, 103, 104, 105, 106, 107, 108, 109, 110, 111, 112, 113, 114, 115, 116, 117, 118, 119, 120, 121, 122, 123, 124, 125, 126, 127, 128, 129, 130, 131, 132, 133, 134, 135, 136, 137, 138, 139, 140, 141, 142, 143, 144, 145, 146, 147, 148, 149, 150, 151, 152, 153, 154, 155, 156, 157, 158, 159],
      "LargestImagePixelValue": [46408, 45431, 43984, 44247, 43425, 43330, 43992, 43714, 43359, 43769, 43024, 43164, 43073, 42620, 43333, 43028, 42714, 43360, 42831, 42431, 43357, 42891, 42637, 43140, 42353, 42311, 42633, 42235, 42606, 43382, 42843, 43425, 42631, 42666, 42676, 42488, 42716, 42764, 42219, 42352, 42179, 42321, 42893, 42257, 42447, 42868, 42033, 42946, 42483, 42236, 42913, 42024, 42434, 42722, 42071, 43013, 42750, 42192, 42822, 42590, 42281, 42722, 42212, 42471, 42493, 42298, 42312, 42524, 41967, 42262, 42122, 42091, 42157, 41782, 41722, 42079, 41719, 42316, 42060, 41706, 42502, 41751, 42367, 42122, 42011, 41815, 41741, 42152, 42726, 42542, 42111, 42075, 42534, 42435, 42359, 42839, 42709, 42549, 42589, 42326, 42255, 42198, 41953, 42162, 42285, 42413, 42455, 42515, 42720, 42471, 42460, 42194, 42429, 41886, 42219, 42167, 42227, 42683, 42482, 42251, 42361, 41894, 42694, 42444, 42360, 42720, 43102, 42356, 42192, 42728, 42700, 42327, 42313, 42498, 42605, 42307, 42575, 42245, 42317, 42708, 42452, 42349, 42905, 42521, 42524, 42400, 42473, 42806, 42373, 42742, 42349, 42600, 42514, 42031, 42807, 42692, 42252, 42856, 42808],
      "WindowCenter": [10146.0, 10106.0, 10074.0, 10068.0, 10051.0, 10041.0, 10048.0, 10043.0, 10038.0, 10044.0, 10032.0, 10032.0, 10036.0, 10017.0, 10027.0, 10019.0, 10016.0, 10024.0, 10019.0, 10013.0, 10011.0, 10007.0, 10007.0, 10020.0, 10016.0, 10023.0, 10024.0, 10017.0, 10014.0, 10018.0, 10004.0, 10008.0, 9995.0, 9994.0, 10000.0, 10002.0, 10021.0, 10028.0, 10028.0, 10018.0, 10007.0, 10002.0, 10004.0, 10005.0, 10005.0, 10011.0, 10006.0, 10011.0, 10004.0, 10006.0, 10010.0, 10000.0, 10005.0, 10012.0, 10000.0, 10012.0, 10012.0, 9999.0, 10004.0, 10006.0, 10005.0, 10005.0, 9999.0, 10004.0, 10009.0, 10019.0, 10015.0, 10023.0, 10011.0, 10007.0, 10008.0, 10009.0, 10006.0, 10008.0, 10008.0, 10001.0, 10002.0, 10007.0, 10001.0, 10001.0, 10007.0, 9995.0, 10000.0, 9998.0, 9993.0, 9986.0, 9991.0, 9999.0, 10021.0, 10016.0, 10015.0, 10003.0, 9998.0, 9995.0, 9991.0, 10003.0, 10008.0, 10006.0, 10008.0, 10016.0, 10016.0, 10018.0, 10018.0, 10016.0, 10010.0, 10013.0, 9999.0, 9999.0, 10010.0, 10007.0, 10006.0, 10002.0, 9999.0, 9992.0, 9990.0, 9991.0, 9996.0, 10009.0, 10011.0, 10006.0, 10015.0, 10017.0, 10015.0, 10009.0, 10007.0, 10005.0, 10012.0, 10006.0, 10007.0, 10006.0, 9999.0, 9992.0, 9997.0, 9997.0, 10006.0, 10007.0, 10007.0, 10009.0, 10001.0, 10000.0, 9998.0, 9999.0, 9995.0, 9996.0, 9999.0, 10006.0, 10009.0, 10022.0, 10011.0, 10015.0, 10009.0, 10007.0, 10006.0, 10000.0, 10005.0, 10000.0, 9999.0, 10012.0, 10015.0],
      "WindowWidth": [21779.0, 21656.0, 21570.0, 21541.0, 21497.0, 21473.0, 21485.0, 21469.0, 21462.0, 21471.0, 21451.0, 21452.0, 21457.0, 21420.0, 21436.0, 21416.0, 21415.0, 21428.0, 21417.0, 21408.0, 21402.0, 21394.0, 21397.0, 21425.0, 21417.0, 21432.0, 21434.0, 21421.0, 21413.0, 21416.0, 21388.0, 21394.0, 21370.0, 21366.0, 21376.0, 21384.0, 21424.0, 21440.0, 21447.0, 21424.0, 21395.0, 21385.0, 21387.0, 21388.0, 21389.0, 21403.0, 21394.0, 21401.0, 21384.0, 21389.0, 21398.0, 21380.0, 21390.0, 21402.0, 21382.0, 21408.0, 21404.0, 21376.0, 21385.0, 21393.0, 21390.0, 21389.0, 21378.0, 21388.0, 21397.0, 21425.0, 21417.0, 21433.0, 21407.0, 21395.0, 21400.0, 21403.0, 21392.0, 21398.0, 21398.0, 21383.0, 21384.0, 21393.0, 21380.0, 21384.0, 21394.0, 21369.0, 21378.0, 21372.0, 21366.0, 21351.0, 21360.0, 21372.0, 21420.0, 21414.0, 21409.0, 21386.0, 21373.0, 21365.0, 21359.0, 21381.0, 21395.0, 21390.0, 21398.0, 21417.0, 21417.0, 21423.0, 21423.0, 21416.0, 21405.0, 21408.0, 21378.0, 21377.0, 21398.0, 21392.0, 21394.0, 21386.0, 21375.0, 21361.0, 21357.0, 21361.0, 21370.0, 21396.0, 21399.0, 21392.0, 21414.0, 21420.0, 21415.0, 21404.0, 21396.0, 21389.0, 21399.0, 21391.0, 21393.0, 21393.0, 21380.0, 21363.0, 21370.0, 21371.0, 21391.0, 21394.0, 21394.0, 21397.0, 21381.0, 21379.0, 21374.0, 21376.0, 21362.0, 21367.0, 21378.0, 21393.0, 21401.0, 21427.0, 21404.0, 21409.0, 21399.0, 21394.0, 21393.0, 21382.0, 21390.0, 21382.0, 21380.0, 21405.0, 21413.0]
    },
    "slices": {}
  }
}