{
  "AcquisitionMatrixPE": 104,
  "AcquisitionNumber": 1,
  "AcquisitionTime": "11:14:38.472500",
  "BandwidthPerPixelPhaseEncode": 17.17,
  "BaseResolution": 104,
  "BodyPartExamined": "BRAIN",
  "CoilString": "HC1-7;NC1_2",
  "ConsistencyInfo": "N4_VE11C_LATEST_20160120",
  "ConversionSoftware": "dcm2niix",
  "ConversionSoftwareVersion": "v1.0.20200427",
  "DerivedVendorReportedEchoSpacing": 0.000560011,
  "DeviceSerialNumber": "167006",
  "DwellTime": 2.1e-06,
  "EchoTime": 0.037,
  "EchoTrainLength": 104,
  "EffectiveEchoSpacing": 0.000560011,
  "FlipAngle": 52,
  "ImageComments": "Unaliased_MB4_PE3_LB",
  "ImageOrientationPatientDICOM": [0.998107, 0.00143542, -0.0614895, -0.015331, 0.973979, -0.226119],
  "ImageType": [
    "ORIGINAL",
    "PRIMARY",
    "M",
    "MB",
    "ND",
    "MOSAIC"
],
  "ImagingFrequency": 123.259,
  "InPlanePhaseEncodingDirectionDICOM": "COL",
  "InstitutionAddress": "Chemin_Queen-Mary_4565_Montreal_District_CA_H3W_1W5",
  "InstitutionName": "IUGM",
  "InstitutionalDepartmentName": "Department",
  "MRAcquisitionType": "2D",
  "MagneticFieldStrength": 3,
  "Manufacturer": "Siemens",
  "ManufacturersModelName": "Prisma_fit",
  "Modality": "MR",
  "MultibandAccelerationFactor": 4,
  "PartialFourier": 1,
  "PatientPosition": "HFS",
  "PercentPhaseFOV": 100,
  "PercentSampling": 100,
  "PhaseEncodingDirection": "j",
  "PhaseEncodingSteps": 104,
  "PhaseResolution": 1,
  "PixelBandwidth": 2290,
  "ProcedureStepDescription": "hcptrt_generic",
  "ProtocolName": "func_task-motor_run-2",
  "PulseSequenceDetails": "%CustomerSeq%_cmrr_mbep2d_bold",
  "ReceiveCoilActiveElements": "HC1-7;NC1,2",
  "ReceiveCoilName": "HeadNeck_64",
  "ReconMatrixPE": 104,
  "RepetitionTime": 1.49,
  "SAR": 0.03024,
  "ScanOptions": "FS",
  "ScanningSequence": "EP",
  "SequenceName": "epfid2d1_104",
  "SequenceVariant": "SK_SS",
  "SeriesDescription": "func_task-motor_run-2",
  "SeriesNumber": 34,
  "ShimSetting": [596, -7255, -8854, 591, -53, -290, 17, 59],
  "SliceThickness": 2,
  "SliceTiming": [0, 0.785, 0.0975, 0.8825, 0.1975, 0.98, 0.295, 1.0775, 0.3925, 1.1775, 0.49, 1.275, 0.5875, 1.3725, 0.6875, 0, 0.785, 0.0975, 0.8825, 0.1975, 0.98, 0.295, 1.0775, 0.3925, 1.1775, 0.49, 1.275, 0.5875, 1.3725, 0.6875, 0, 0.785, 0.0975, 0.8825, 0.1975, 0.98, 0.295, 1.0775, 0.3925, 1.1775, 0.49, 1.275, 0.5875, 1.3725, 0.6875, 0, 0.785, 0.0975, 0.8825, 0.1975, 0.98, 0.295, 1.0775, 0.3925, 1.1775, 0.49, 1.275, 0.5875, 1.3725, 0.6875],
  "SoftwareVersions": "syngo_MR_E11",
  "SpacingBetweenSlices": 2,
  "StationName": "MRC35049",
  "TaskName": "motor",
  "TotalReadoutTime": 0.0576811,
  "TxRefAmp": 220.508,
  "WipMemBlock": "431ca2b0-6662-4dee-9a69-17f2b4179e74||Sequence: R016 ve11c/master r/e634e98; Dec 19 2017 11:00:25 by eja",
  "dcmmeta_affine": [
    [-1.996213436126709, -0.030662043020129204, -0.1191297322511673, 107.77902221679688],
    [-0.0028708374593406916, 1.9479581117630005, -0.4532669484615326, -73.028076171875],
    [-0.12297891080379486, 0.4522377848625183, 1.9443140029907227, -51.27632141113281],
    [0.0, 0.0, 0.0, 1.0]
],
  "dcmmeta_reorient_transform": [
    [0.0, -1.0, 0.0, 103.0],
    [1.0, 0.0, 0.0, 0.0],
    [0.0, 0.0, 1.0, 0.0],
    [0.0, 0.0, 0.0, 1.0]
],
  "dcmmeta_shape": [104, 104, 60, 144],
  "dcmmeta_slice_dim": 2,
  "dcmmeta_version": 0.6,
  "global": {
    "const": {
      "AcquisitionMatrix": [104, 0, 0, 104],
      "AngioFlag": "N",
      "BitsAllocated": 16,
      "BitsStored": 16,
      "BodyPartExamined": "BRAIN",
      "Columns": 832,
      "EchoNumbers": 1,
      "EchoTime": 37.0,
      "EchoTrainLength": 104,
      "FlipAngle": 52.0,
      "HighBit": 15,
      "ImageOrientationPatient": [0.99810670094095, 0.00143541867419, -0.0614894552749, -0.0153310217349, 0.97397905738804, -0.226118896915],
      "ImagePositionPatient": [-820.08152597282, -837.71335070609, 204.68305139629],
      "ImageType": [
        "ORIGINAL",
        "PRIMARY",
        "M",
        "MB",
        "ND",
        "MOSAIC"
],
      "ImagedNucleus": "1H",
      "ImagingFrequency": 123.259105,
      "InPlanePhaseEncodingDirection": "COL",
      "MRAcquisitionType": "2D",
      "MagneticFieldStrength": 3.0,
      "Manufacturer": "SIEMENS",
      "ManufacturerModelName": "Prisma_fit",
      "Modality": "MR",
      "NumberOfAverages": 1.0,
      "NumberOfPhaseEncodingSteps": 104,
      "PercentPhaseFieldOfView": 100.0,
      "PercentSampling": 100.0,
      "PerformedProcedureStepStartTime": "100721.125000",
      "PhotometricInterpretation": "MONOCHROME2",
      "PixelBandwidth": 2290.0,
      "PixelRepresentation": 0,
      "PixelSpacing": [2.0, 2.0],
      "ProtocolName": "func_task-motor_run-2",
      "RepetitionTime": 1490.0,
      "Rows": 832,
      "SAR": 0.03024000750572,
      "SamplesPerPixel": 1,
      "ScanOptions": "FS",
      "ScanningSequence": "EP",
      "SequenceName": "epfid2d1_104",
      "SequenceVariant": [
        "SK",
        "SS"
],
      "SeriesDescription": "func_task-motor_run-2",
      "SeriesNumber": 34,
      "SeriesTime": "111605.553000",
      "SliceLocation": -39.717873076397,
      "SliceThickness": 2.0,
      "SmallestImagePixelValue": 0,
      "SoftwareVersions": "syngo MR E11",
      "SpacingBetweenSlices": 1.9999999630667,
      "SpecificCharacterSet": "ISO_IR 100",
      "StudyID": "1",
      "StudyTime": "100721.040000",
      "TransmitCoilName": "Body",
      "VariableFlipAngleFlag": "N",
      "WindowCenterWidthExplanation": "Algo1",
      "dBdt": 0.0},
    "slices": {}
  },
  "time": {
    "samples": {
      "AcquisitionNumber": [1, 2, 3, 4, 5, 6, 7, 8, 9, 10, 11, 12, 13, 14, 15, 16, 17, 18, 19, 20, 21, 22, 23, 24, 25, 26, 27, 28, 29, 30, 31, 32, 33, 34, 35, 36, 37, 38, 39, 40, 41, 42, 43, 44, 45, 46, 47, 48, 49, 50, 51, 52, 53, 54, 55, 56, 57, 58, 59, 60, 61, 62, 63, 64, 65, 66, 67, 68, 69, 70, 71, 72, 73, 74, 75, 76, 77, 78, 79, 80, 81, 82, 83, 84, 85, 86, 87, 88, 89, 90, 91, 92, 93, 94, 95, 96, 97, 98, 99, 100, 101, 102, 103, 104, 105, 106, 107, 108, 109, 110, 111, 112, 113, 114, 115, 116, 117, 118, 119, 120, 121, 122, 123, 124, 125, 126, 127, 128, 129, 130, 131, 132, 133, 134, 135, 136, 137, 138, 139, 140, 141, 142, 143, 144],
      "AcquisitionTime": ["111438.472500", "111439.962500", "111441.452500", "111442.942500", "111444.432500", "111445.922500", "111447.412500", "111448.902500", "111450.392500", "111451.882500", "111453.372500", "111454.862500", "111456.352500", "111457.842500", "111459.332500", "111500.822500", "111502.312500", "111503.802500", "111505.292500", "111506.782500", "111508.272500", "111509.762500", "111511.252500", "111512.742500", "111514.232500", "111515.722500", "111517.212500", "111518.702500", "111520.192500", "111521.682500", "111523.172500", "111524.662500", "111526.152500", "111527.642500", "111529.132500", "111530.622500", "111532.112500", "111533.602500", "111535.092500", "111536.582500", "111538.072500", "111539.562500", "111541.052500", "111542.542500", "111544.032500", "111545.522500", "111547.012500", "111548.502500", "111549.992500", "111551.482500", "111552.972500", "111554.462500", "111555.952500", "111557.442500", "111558.932500", "111600.422500", "111601.912500", "111603.402500", "111604.892500", "111606.382500", "111607.872500", "111609.362500", "111610.852500", "111612.342500", "111613.832500", "111615.322500", "111616.812500", "111618.302500", "111619.792500", "111621.282500", "111622.772500", "111624.262500", "111625.752500", "111627.242500", "111628.732500", "111630.222500", "111631.712500", "111633.202500", "111634.692500", "111636.182500", "111637.672500", "111639.162500", "111640.652500", "111642.142500", "111643.632500", "111645.122500", "111646.612500", "111648.102500", "111649.592500", "111651.082500", "111652.572500", "111654.062500", "111655.552500", "111657.042500", "111658.532500", "111700.022500", "111701.512500", "111703.002500", "111704.492500", "111705.982500", "111707.472500", "111708.962500", "111710.452500", "111711.942500", "111713.432500", "111714.922500", "111716.412500", "111717.902500", "111719.392500", "111720.882500", "111722.372500", "111723.862500", "111725.352500", "111726.842500", "111728.332500", "111729.822500", "111731.312500", "111732.802500", "111734.292500", "111735.782500", "111737.272500", "111738.762500", "111740.252500", "111741.742500", "111743.232500", "111744.722500", "111746.212500", "111747.702500", "111749.192500", "111750.682500", "111752.172500", "111753.662500", "111755.152500", "111756.642500", "111758.132500", "111759.622500", "111801.112500", "111802.602500", "111804.092500", "111805.582500", "111807.072500", "111808.562500", "111810.052500", "111811.542500"],
      "ContentTime": ["111605.556000", "111605.559000", "111605.562000", "111605.565000", "111605.568000", "111605.571000", "111605.574000", "111605.577000", "111605.580000", "111605.583000", "111605.585000", "111605.588000", "111605.591000", "111605.594000", "111605.597000", "111605.600000", "111605.603000", "111605.606000", "111605.608000", "111605.611000", "111605.614000", "111605.617000", "111605.620000", "111605.623000", "111605.625000", "111605.628000", "111605.639000", "111605.641000", "111605.644000", "111605.647000", "111605.650000", "111605.653000", "111625.529000", "111625.541000", "111625.544000", "111625.546000", "111625.549000", "111625.552000", "111625.573000", "111625.576000", "111625.579000", "111625.582000", "111625.585000", "111625.588000", "111625.591000", "111625.593000", "111625.596000", "111625.599000", "111625.602000", "111625.605000", "111625.608000", "111625.611000", "111645.529000", "111645.532000", "111645.535000", "111645.538000", "111645.541000", "111645.543000", "111645.546000", "111645.549000", "111645.552000", "111645.555000", "111645.558000", "111645.561000", "111645.564000", "111645.566000", "111645.569000", "111645.572000", "111645.575000", "111645.578000", "111645.581000", "111645.584000", "111645.587000", "111705.529000", "111705.532000", "111705.535000", "111705.538000", "111705.541000", "111705.544000", "111705.546000", "111705.549000", "111705.552000", "111705.555000", "111705.558000", "111705.560000", "111705.563000", "111705.566000", "111705.569000", "111705.572000", "111705.575000", "111705.578000", "111705.581000", "111705.583000", "111745.529000", "111745.532000", "111745.535000", "111745.538000", "111745.541000", "111745.544000", "111745.546000", "111745.549000", "111745.552000", "111745.555000", "111745.558000", "111745.561000", "111745.564000", "111745.567000", "111745.569000", "111745.572000", "111745.575000", "111745.578000", "111745.581000", "111745.584000", "111745.587000", "111745.590000", "111745.593000", "111745.595000", "111745.598000", "111745.601000", "111745.604000", "111745.607000", "111745.610000", "111745.613000", "111745.616000", "111745.618000", "111813.558000", "111813.561000", "111813.564000", "111813.567000", "111813.570000", "111813.572000", "111813.575000", "111813.578000", "111813.581000", "111813.584000", "111813.587000", "111813.590000", "111813.593000", "111813.596000", "111813.599000", "111813.602000", "111813.605000", "111813.608000", "111813.611000"],
      "InstanceCreationTime": ["111605.556000", "111605.559000", "111605.562000", "111605.565000", "111605.568000", "111605.571000", "111605.574000", "111605.577000", "111605.580000", "111605.583000", "111605.585000", "111605.588000", "111605.591000", "111605.594000", "111605.597000", "111605.600000", "111605.603000", "111605.606000", "111605.608000", "111605.611000", "111605.614000", "111605.617000", "111605.620000", "111605.623000", "111605.625000", "111605.628000", "111605.639000", "111605.641000", "111605.644000", "111605.647000", "111605.650000", "111605.653000", "111625.529000", "111625.541000", "111625.544000", "111625.546000", "111625.549000", "111625.552000", "111625.573000", "111625.576000", "111625.579000", "111625.582000", "111625.585000", "111625.588000", "111625.591000", "111625.593000", "111625.596000", "111625.599000", "111625.602000", "111625.605000", "111625.608000", "111625.611000", "111645.529000", "111645.532000", "111645.535000", "111645.538000", "111645.541000", "111645.543000", "111645.546000", "111645.549000", "111645.552000", "111645.555000", "111645.558000", "111645.561000", "111645.564000", "111645.566000", "111645.569000", "111645.572000", "111645.575000", "111645.578000", "111645.581000", "111645.584000", "111645.587000", "111705.529000", "111705.532000", "111705.535000", "111705.538000", "111705.541000", "111705.544000", "111705.546000", "111705.549000", "111705.552000", "111705.555000", "111705.558000", "111705.560000", "111705.563000", "111705.566000", "111705.569000", "111705.572000", "111705.575000", "111705.578000", "111705.581000", "111705.583000", "111745.529000", "111745.532000", "111745.535000", "111745.538000", "111745.541000", "111745.544000", "111745.546000", "111745.549000", "111745.552000", "111745.555000", "111745.558000", "111745.561000", "111745.564000", "111745.567000", "111745.569000", "111745.572000", "111745.575000", "111745.578000", "111745.581000", "111745.584000", "111745.587000", "111745.590000", "111745.593000", "111745.595000", "111745.598000", "111745.601000", "111745.604000", "111745.607000", "111745.610000", "111745.613000", "111745.616000", "111745.618000", "111813.558000", "111813.561000", "111813.564000", "111813.567000", "111813.570000", "111813.572000", "111813.575000", "111813.578000", "111813.581000", "111813.584000", "111813.587000", "111813.590000", "111813.593000", "111813.596000", "111813.599000", "111813.602000", "111813.605000", "111813.608000", "111813.611000"],
      "InstanceNumber": [1, 2, 3, 4, 5, 6, 7, 8, 9, 10, 11, 12, 13, 14, 15, 16, 17, 18, 19, 20, 21, 22, 23, 24, 25, 26, 27, 28, 29, 30, 31, 32, 33, 34, 35, 36, 37, 38, 39, 40, 41, 42, 43, 44, 45, 46, 47, 48, 49, 50, 51, 52, 53, 54, 55, 56, 57, 58, 59, 60, 61, 62, 63, 64, 65, 66, 67, 68, 69, 70, 71, 72, 73, 74, 75, 76, 77, 78, 79, 80, 81, 82, 83, 84, 85, 86, 87, 88, 89, 90, 91, 92, 93, 94, 95, 96, 97, 98, 99, 100, 101, 102, 103, 104, 105, 106, 107, 108, 109, 110, 111, 112, 113, 114, 115, 116, 117, 118, 119, 120, 121, 122, 123, 124, 125, 126, 127, 128, 129, 130, 131, 132, 133, 134, 135, 136, 137, 138, 139, 140, 141, 142, 143, 144],
      "LargestImagePixelValue": [46932, 45714, 45035, 43899, 43752, 44033, 43350, 43207, 43185, 43286, 43325, 43049, 43244, 43259, 42643, 43192, 42881, 42686, 42893, 42591, 42936, 43275, 42835, 42808, 42545, 42947, 43254, 43601, 43599, 43218, 43055, 43667, 43176, 43559, 43138, 43027, 42893, 42490, 42583, 42934, 43644, 43176, 42598, 42427, 42728, 42822, 42206, 41949, 41734, 42368, 42816, 42428, 42423, 42523, 42553, 42769, 42919, 42710, 42517, 42335, 42265, 42322, 42555, 42926, 42590, 42093, 42482, 42474, 42187, 42300, 42235, 42054, 42320, 42159, 41810, 42103, 42344, 42376, 42034, 42408, 42397, 43073, 42866, 43088, 43086, 43059, 43129, 42994, 42469, 42713, 42592, 42668, 42588, 42487, 43189, 43313, 43257, 43465, 43209, 43445, 42967, 42624, 43426, 43170, 43333, 43313, 42924, 43003, 42267, 42300, 42240, 42083, 41751, 42201, 42657, 43005, 43131, 43204, 43162, 43026, 42770, 43450, 43959, 44167, 43898, 44241, 44301, 44119, 43638, 44602, 44945, 45141, 44572, 44768, 44425, 44548, 44142, 43621, 43726, 44444, 43898, 44004, 44287, 42943],
      "WindowCenter": [10049.0, 10018.0, 9997.0, 9983.0, 9980.0, 9980.0, 9977.0, 9982.0, 9974.0, 9988.0, 9992.0, 9986.0, 9975.0, 9964.0, 9950.0, 9949.0, 9957.0, 9957.0, 9964.0, 9955.0, 9962.0, 9946.0, 9938.0, 9921.0, 9907.0, 9912.0, 9924.0, 9932.0, 9949.0, 9969.0, 9972.0, 9980.0, 9973.0, 9962.0, 9947.0, 9939.0, 9931.0, 9939.0, 9947.0, 9955.0, 9966.0, 9950.0, 9937.0, 9935.0, 9934.0, 9927.0, 9896.0, 9867.0, 9848.0, 9846.0, 9842.0, 9839.0, 9832.0, 9833.0, 9842.0, 9855.0, 9874.0, 9869.0, 9855.0, 9839.0, 9836.0, 9828.0, 9834.0, 9859.0, 9872.0, 9891.0, 9883.0, 9880.0, 9882.0, 9906.0, 9909.0, 9903.0, 9902.0, 9909.0, 9904.0, 9898.0, 9885.0, 9875.0, 9873.0, 9894.0, 9901.0, 9929.0, 9927.0, 9930.0, 9923.0, 9930.0, 9923.0, 9924.0, 9926.0, 9926.0, 9922.0, 9916.0, 9900.0, 9881.0, 9867.0, 9871.0, 9881.0, 9900.0, 9925.0, 9935.0, 9937.0, 9930.0, 9953.0, 9946.0, 9953.0, 9956.0, 9949.0, 9924.0, 9906.0, 9908.0, 9895.0, 9886.0, 9855.0, 9842.0, 9837.0, 9843.0, 9849.0, 9857.0, 9860.0, 9860.0, 9852.0, 9849.0, 9864.0, 9873.0, 9882.0, 9902.0, 9911.0, 9917.0, 9915.0, 9924.0, 9923.0, 9928.0, 9930.0, 9939.0, 9932.0, 9924.0, 9917.0, 9911.0, 9909.0, 9906.0, 9892.0, 9900.0, 9898.0, 9896.0],
      "WindowWidth": [21534.0, 21434.0, 21370.0, 21332.0, 21319.0, 21316.0, 21313.0, 21320.0, 21303.0, 21330.0, 21335.0, 21325.0, 21303.0, 21277.0, 21250.0, 21245.0, 21263.0, 21265.0, 21280.0, 21257.0, 21271.0, 21236.0, 21218.0, 21182.0, 21151.0, 21159.0, 21183.0, 21203.0, 21239.0, 21285.0, 21292.0, 21309.0, 21297.0, 21270.0, 21237.0, 21220.0, 21204.0, 21221.0, 21239.0, 21256.0, 21277.0, 21243.0, 21218.0, 21210.0, 21208.0, 21194.0, 21129.0, 21061.0, 21015.0, 21011.0, 21001.0, 20994.0, 20978.0, 20977.0, 21002.0, 21028.0, 21073.0, 21063.0, 21031.0, 20998.0, 20989.0, 20970.0, 20979.0, 21037.0, 21071.0, 21112.0, 21094.0, 21085.0, 21091.0, 21144.0, 21155.0, 21138.0, 21133.0, 21147.0, 21143.0, 21133.0, 21100.0, 21077.0, 21070.0, 21115.0, 21136.0, 21191.0, 21191.0, 21191.0, 21180.0, 21194.0, 21182.0, 21182.0, 21189.0, 21187.0, 21175.0, 21166.0, 21131.0, 21084.0, 21050.0, 21055.0, 21081.0, 21123.0, 21179.0, 21203.0, 21211.0, 21197.0, 21246.0, 21231.0, 21246.0, 21253.0, 21242.0, 21184.0, 21144.0, 21147.0, 21119.0, 21097.0, 21034.0, 21003.0, 20984.0, 20995.0, 21007.0, 21025.0, 21034.0, 21035.0, 21016.0, 21009.0, 21039.0, 21061.0, 21082.0, 21128.0, 21150.0, 21158.0, 21160.0, 21172.0, 21169.0, 21178.0, 21184.0, 21203.0, 21190.0, 21172.0, 21155.0, 21145.0, 21141.0, 21128.0, 21099.0, 21111.0, 21105.0, 21108.0]
    },
    "slices": {}
  }
}