{
  "AcquisitionMatrixPE": 104,
  "AcquisitionNumber": 1,
  "AcquisitionTime": "11:19:7.627500",
  "BandwidthPerPixelPhaseEncode": 17.17,
  "BaseResolution": 104,
  "BodyPartExamined": "BRAIN",
  "CoilString": "HC1-7;NC1_2",
  "ConsistencyInfo": "N4_VE11C_LATEST_20160120",
  "ConversionSoftware": "dcm2niix",
  "ConversionSoftwareVersion": "v1.0.20200427",
  "DerivedVendorReportedEchoSpacing": 0.000560011,
  "DeviceSerialNumber": "167006",
  "DwellTime": 2.1e-06,
  "EchoTime": 0.037,
  "EchoTrainLength": 104,
  "EffectiveEchoSpacing": 0.000560011,
  "FlipAngle": 52,
  "ImageComments": "Unaliased_MB4_PE3_LB",
  "ImageOrientationPatientDICOM": [0.998107, 0.00143542, -0.0614895, -0.015331, 0.973979, -0.226119],
  "ImageType": [
    "ORIGINAL",
    "PRIMARY",
    "M",
    "MB",
    "ND",
    "MOSAIC"
],
  "ImagingFrequency": 123.259,
  "InPlanePhaseEncodingDirectionDICOM": "COL",
  "InstitutionAddress": "Chemin_Queen-Mary_4565_Montreal_District_CA_H3W_1W5",
  "InstitutionName": "IUGM",
  "InstitutionalDepartmentName": "Department",
  "MRAcquisitionType": "2D",
  "MagneticFieldStrength": 3,
  "Manufacturer": "Siemens",
  "ManufacturersModelName": "Prisma_fit",
  "Modality": "MR",
  "MultibandAccelerationFactor": 4,
  "PartialFourier": 1,
  "PatientPosition": "HFS",
  "PercentPhaseFOV": 100,
  "PercentSampling": 100,
  "PhaseEncodingDirection": "j",
  "PhaseEncodingSteps": 104,
  "PhaseResolution": 1,
  "PixelBandwidth": 2290,
  "ProcedureStepDescription": "hcptrt_generic",
  "ProtocolName": "func_task-social_run-2",
  "PulseSequenceDetails": "%CustomerSeq%_cmrr_mbep2d_bold",
  "ReceiveCoilActiveElements": "HC1-7;NC1,2",
  "ReceiveCoilName": "HeadNeck_64",
  "ReconMatrixPE": 104,
  "RepetitionTime": 1.49,
  "SAR": 0.0302259,
  "ScanOptions": "FS",
  "ScanningSequence": "EP",
  "SequenceName": "epfid2d1_104",
  "SequenceVariant": "SK_SS",
  "SeriesDescription": "func_task-social_run-2",
  "SeriesNumber": 36,
  "ShimSetting": [596, -7255, -8854, 591, -53, -290, 17, 59],
  "SliceThickness": 2,
  "SliceTiming": [0, 0.785, 0.0975, 0.8825, 0.195, 0.98, 0.295, 1.0775, 0.3925, 1.175, 0.49, 1.275, 0.5875, 1.3725, 0.685, 0, 0.785, 0.0975, 0.8825, 0.195, 0.98, 0.295, 1.0775, 0.3925, 1.175, 0.49, 1.275, 0.5875, 1.3725, 0.685, 0, 0.785, 0.0975, 0.8825, 0.195, 0.98, 0.295, 1.0775, 0.3925, 1.175, 0.49, 1.275, 0.5875, 1.3725, 0.685, 0, 0.785, 0.0975, 0.8825, 0.195, 0.98, 0.295, 1.0775, 0.3925, 1.175, 0.49, 1.275, 0.5875, 1.3725, 0.685],
  "SoftwareVersions": "syngo_MR_E11",
  "SpacingBetweenSlices": 2,
  "StationName": "MRC35049",
  "TaskName": "social",
  "TotalReadoutTime": 0.0576811,
  "TxRefAmp": 220.508,
  "WipMemBlock": "d32702bf-2002-46b3-8025-679670b0729e||Sequence: R016 ve11c/master r/e634e98; Dec 19 2017 11:00:25 by eja",
  "dcmmeta_affine": [
    [-1.996213436126709, -0.030662043020129204, -0.1191297322511673, 107.77902221679688],
    [-0.0028708374593406916, 1.9479581117630005, -0.4532669484615326, -73.028076171875],
    [-0.12297891080379486, 0.4522377848625183, 1.9443140029907227, -51.27632141113281],
    [0.0, 0.0, 0.0, 1.0]
],
  "dcmmeta_reorient_transform": [
    [0.0, -1.0, 0.0, 103.0],
    [1.0, 0.0, 0.0, 0.0],
    [0.0, 0.0, 1.0, 0.0],
    [0.0, 0.0, 0.0, 1.0]
],
  "dcmmeta_shape": [104, 104, 60, 139],
  "dcmmeta_slice_dim": 2,
  "dcmmeta_version": 0.6,
  "global": {
    "const": {
      "AcquisitionMatrix": [104, 0, 0, 104],
      "AngioFlag": "N",
      "BitsAllocated": 16,
      "BitsStored": 16,
      "BodyPartExamined": "BRAIN",
      "Columns": 832,
      "EchoNumbers": 1,
      "EchoTime": 37.0,
      "EchoTrainLength": 104,
      "FlipAngle": 52.0,
      "HighBit": 15,
      "ImageOrientationPatient": [0.99810670094095, 0.00143541867419, -0.0614894552749, -0.0153310217349, 0.97397905738804, -0.226118896915],
      "ImagePositionPatient": [-820.08152597282, -837.71335070609, 204.68305139629],
      "ImageType": [
        "ORIGINAL",
        "PRIMARY",
        "M",
        "MB",
        "ND",
        "MOSAIC"
],
      "ImagedNucleus": "1H",
      "ImagingFrequency": 123.259106,
      "InPlanePhaseEncodingDirection": "COL",
      "MRAcquisitionType": "2D",
      "MagneticFieldStrength": 3.0,
      "Manufacturer": "SIEMENS",
      "ManufacturerModelName": "Prisma_fit",
      "Modality": "MR",
      "NumberOfAverages": 1.0,
      "NumberOfPhaseEncodingSteps": 104,
      "PercentPhaseFieldOfView": 100.0,
      "PercentSampling": 100.0,
      "PerformedProcedureStepStartTime": "100721.125000",
      "PhotometricInterpretation": "MONOCHROME2",
      "PixelBandwidth": 2290.0,
      "PixelRepresentation": 0,
      "PixelSpacing": [2.0, 2.0],
      "ProtocolName": "func_task-social_run-2",
      "RepetitionTime": 1490.0,
      "Rows": 832,
      "SAR": 0.03022591964752,
      "SamplesPerPixel": 1,
      "ScanOptions": "FS",
      "ScanningSequence": "EP",
      "SequenceName": "epfid2d1_104",
      "SequenceVariant": [
        "SK",
        "SS"
],
      "SeriesDescription": "func_task-social_run-2",
      "SeriesNumber": 36,
      "SeriesTime": "112022.616000",
      "SliceLocation": -39.717873076397,
      "SliceThickness": 2.0,
      "SmallestImagePixelValue": 0,
      "SoftwareVersions": "syngo MR E11",
      "SpacingBetweenSlices": 1.9999999630667,
      "SpecificCharacterSet": "ISO_IR 100",
      "StudyID": "1",
      "StudyTime": "100721.040000",
      "TransmitCoilName": "Body",
      "VariableFlipAngleFlag": "N",
      "WindowCenterWidthExplanation": "Algo1",
      "dBdt": 0.0},
    "slices": {}
  },
  "time": {
    "samples": {
      "AcquisitionNumber": [1, 2, 3, 4, 5, 6, 7, 8, 9, 10, 11, 12, 13, 14, 15, 16, 17, 18, 19, 20, 21, 22, 23, 24, 25, 26, 27, 28, 29, 30, 31, 32, 33, 34, 35, 36, 37, 38, 39, 40, 41, 42, 43, 44, 45, 46, 47, 48, 49, 50, 51, 52, 53, 54, 55, 56, 57, 58, 59, 60, 61, 62, 63, 64, 65, 66, 67, 68, 69, 70, 71, 72, 73, 74, 75, 76, 77, 78, 79, 80, 81, 82, 83, 84, 85, 86, 87, 88, 89, 90, 91, 92, 93, 94, 95, 96, 97, 98, 99, 100, 101, 102, 103, 104, 105, 106, 107, 108, 109, 110, 111, 112, 113, 114, 115, 116, 117, 118, 119, 120, 121, 122, 123, 124, 125, 126, 127, 128, 129, 130, 131, 132, 133, 134, 135, 136, 137, 138, 139],
      "AcquisitionTime": ["111907.627500", "111909.117500", "111910.607500", "111912.097500", "111913.587500", "111915.077500", "111916.567500", "111918.057500", "111919.547500", "111921.037500", "111922.527500", "111924.017500", "111925.507500", "111926.997500", "111928.487500", "111929.977500", "111931.467500", "111932.957500", "111934.447500", "111935.937500", "111937.427500", "111938.917500", "111940.407500", "111941.897500", "111943.387500", "111944.877500", "111946.367500", "111947.857500", "111949.347500", "111950.837500", "111952.327500", "111953.817500", "111955.307500", "111956.797500", "111958.287500", "111959.777500", "112001.267500", "112002.757500", "112004.247500", "112005.737500", "112007.227500", "112008.717500", "112010.207500", "112011.697500", "112013.187500", "112014.677500", "112016.167500", "112017.657500", "112019.147500", "112020.637500", "112022.127500", "112023.617500", "112025.107500", "112026.597500", "112028.087500", "112029.577500", "112031.067500", "112032.557500", "112034.047500", "112035.537500", "112037.027500", "112038.517500", "112040.007500", "112041.497500", "112042.987500", "112044.477500", "112045.967500", "112047.457500", "112048.947500", "112050.437500", "112051.927500", "112053.417500", "112054.907500", "112056.397500", "112057.887500", "112059.377500", "112100.867500", "112102.357500", "112103.847500", "112105.337500", "112106.827500", "112108.317500", "112109.807500", "112111.297500", "112112.787500", "112114.277500", "112115.767500", "112117.257500", "112118.747500", "112120.237500", "112121.727500", "112123.217500", "112124.707500", "112126.197500", "112127.687500", "112129.177500", "112130.667500", "112132.157500", "112133.647500", "112135.137500", "112136.627500", "112138.117500", "112139.607500", "112141.097500", "112142.587500", "112144.077500", "112145.567500", "112147.057500", "112148.547500", "112150.037500", "112151.527500", "112153.017500", "112154.507500", "112155.997500", "112157.487500", "112158.977500", "112200.467500", "112201.957500", "112203.447500", "112204.937500", "112206.427500", "112207.917500", "112209.407500", "112210.897500", "112212.387500", "112213.877500", "112215.367500", "112216.857500", "112218.347500", "112219.837500", "112221.327500", "112222.817500", "112224.307500", "112225.797500", "112227.287500", "112228.777500", "112230.267500", "112231.757500", "112233.247500"],
      "ContentTime": ["112022.619000", "112022.622000", "112022.625000", "112022.628000", "112022.630000", "112022.633000", "112022.636000", "112022.639000", "112022.642000", "112022.645000", "112022.647000", "112022.650000", "112022.653000", "112022.656000", "112022.659000", "112022.671000", "112022.673000", "112022.676000", "112042.583000", "112042.586000", "112042.589000", "112042.591000", "112042.594000", "112042.597000", "112042.600000", "112042.603000", "112042.606000", "112042.609000", "112042.612000", "112042.614000", "112042.617000", "112042.620000", "112042.623000", "112042.626000", "112042.629000", "112042.632000", "112042.634000", "112042.637000", "112102.583000", "112102.586000", "112102.595000", "112102.597000", "112102.600000", "112102.603000", "112102.613000", "112102.616000", "112102.619000", "112102.622000", "112102.625000", "112102.628000", "112102.630000", "112102.633000", "112102.636000", "112102.639000", "112102.642000", "112102.645000", "112102.648000", "112102.650000", "112102.653000", "112122.583000", "112122.586000", "112122.589000", "112122.591000", "112122.594000", "112122.611000", "112122.613000", "112122.616000", "112122.619000", "112122.622000", "112122.625000", "112122.628000", "112122.630000", "112122.633000", "112122.636000", "112122.639000", "112122.642000", "112122.645000", "112122.648000", "112122.650000", "112142.583000", "112142.586000", "112142.589000", "112142.591000", "112142.594000", "112142.597000", "112142.600000", "112142.603000", "112142.606000", "112142.609000", "112142.612000", "112142.615000", "112142.617000", "112142.620000", "112142.623000", "112142.626000", "112142.629000", "112142.632000", "112142.635000", "112142.637000", "112222.583000", "112222.586000", "112222.589000", "112222.592000", "112222.595000", "112222.598000", "112222.600000", "112222.603000", "112222.606000", "112222.609000", "112222.612000", "112222.615000", "112222.618000", "112222.621000", "112222.623000", "112222.636000", "112222.638000", "112222.641000", "112222.644000", "112222.647000", "112222.650000", "112222.653000", "112222.656000", "112222.659000", "112222.662000", "112222.664000", "112222.667000", "112222.670000", "112222.673000", "112222.676000", "112222.679000", "112235.262000", "112235.265000", "112235.268000", "112235.271000", "112235.274000", "112235.277000", "112235.280000", "112235.283000", "112235.286000"],
      "InstanceCreationTime": ["112022.619000", "112022.622000", "112022.625000", "112022.628000", "112022.630000", "112022.633000", "112022.636000", "112022.639000", "112022.642000", "112022.645000", "112022.647000", "112022.650000", "112022.653000", "112022.656000", "112022.659000", "112022.671000", "112022.673000", "112022.676000", "112042.583000", "112042.586000", "112042.589000", "112042.591000", "112042.594000", "112042.597000", "112042.600000", "112042.603000", "112042.606000", "112042.609000", "112042.612000", "112042.614000", "112042.617000", "112042.620000", "112042.623000", "112042.626000", "112042.629000", "112042.632000", "112042.634000", "112042.637000", "112102.583000", "112102.586000", "112102.595000", "112102.597000", "112102.600000", "112102.603000", "112102.613000", "112102.616000", "112102.619000", "112102.622000", "112102.625000", "112102.628000", "112102.630000", "112102.633000", "112102.636000", "112102.639000", "112102.642000", "112102.645000", "112102.648000", "112102.650000", "112102.653000", "112122.583000", "112122.586000", "112122.589000", "112122.591000", "112122.594000", "112122.611000", "112122.613000", "112122.616000", "112122.619000", "112122.622000", "112122.625000", "112122.628000", "112122.630000", "112122.633000", "112122.636000", "112122.639000", "112122.642000", "112122.645000", "112122.648000", "112122.650000", "112142.583000", "112142.586000", "112142.589000", "112142.591000", "112142.594000", "112142.597000", "112142.600000", "112142.603000", "112142.606000", "112142.609000", "112142.612000", "112142.615000", "112142.617000", "112142.620000", "112142.623000", "112142.626000", "112142.629000", "112142.632000", "112142.635000", "112142.637000", "112222.583000", "112222.586000", "112222.589000", "112222.592000", "112222.595000", "112222.598000", "112222.600000", "112222.603000", "112222.606000", "112222.609000", "112222.612000", "112222.615000", "112222.618000", "112222.621000", "112222.623000", "112222.636000", "112222.638000", "112222.641000", "112222.644000", "112222.647000", "112222.650000", "112222.653000", "112222.656000", "112222.659000", "112222.662000", "112222.664000", "112222.667000", "112222.670000", "112222.673000", "112222.676000", "112222.679000", "112235.262000", "112235.265000", "112235.268000", "112235.271000", "112235.274000", "112235.277000", "112235.280000", "112235.283000", "112235.286000"],
      "InstanceNumber": [1, 2, 3, 4, 5, 6, 7, 8, 9, 10, 11, 12, 13, 14, 15, 16, 17, 18, 19, 20, 21, 22, 23, 24, 25, 26, 27, 28, 29, 30, 31, 32, 33, 34, 35, 36, 37, 38, 39, 40, 41, 42, 43, 44, 45, 46, 47, 48, 49, 50, 51, 52, 53, 54, 55, 56, 57, 58, 59, 60, 61, 62, 63, 64, 65, 66, 67, 68, 69, 70, 71, 72, 73, 74, 75, 76, 77, 78, 79, 80, 81, 82, 83, 84, 85, 86, 87, 88, 89, 90, 91, 92, 93, 94, 95, 96, 97, 98, 99, 100, 101, 102, 103, 104, 105, 106, 107, 108, 109, 110, 111, 112, 113, 114, 115, 116, 117, 118, 119, 120, 121, 122, 123, 124, 125, 126, 127, 128, 129, 130, 131, 132, 133, 134, 135, 136, 137, 138, 139],
      "LargestImagePixelValue": [47216, 46313, 45474, 44304, 44498, 44113, 43946, 42702, 42814, 42801, 42698, 42971, 43074, 43105, 43806, 43544, 43146, 43589, 43232, 43662, 44297, 43715, 44386, 44221, 43775, 44675, 43824, 44843, 44346, 44851, 44509, 44832, 45187, 44823, 44753, 43985, 43845, 44269, 43870, 44396, 44154, 43728, 44123, 44599, 43838, 43460, 43751, 43598, 43834, 44204, 43745, 44232, 44018, 44182, 44843, 44415, 44324, 43971, 44349, 43885, 43686, 44078, 43180, 44138, 43687, 44533, 43759, 44158, 43219, 43534, 43849, 43756, 44421, 43644, 43384, 43305, 42710, 42516, 43006, 43108, 42538, 41923, 43071, 43498, 43187, 43396, 43016, 43489, 43786, 43808, 44415, 43324, 43362, 43369, 43316, 43537, 43716, 44140, 44065, 44178, 43329, 43452, 43306, 43466, 42737, 43380, 43396, 43811, 43436, 43238, 42753, 43273, 43291, 43921, 43033, 43092, 43031, 43143, 43340, 43147, 42863, 43129, 42044, 42672, 42668, 42673, 42857, 42708, 43185, 43373, 42533, 42321, 42294, 43120, 43032, 42818, 42715, 42277, 42749],
      "WindowCenter": [10014.0, 9995.0, 9992.0, 9977.0, 9966.0, 9956.0, 9946.0, 9963.0, 9963.0, 9961.0, 9953.0, 9940.0, 9924.0, 9912.0, 9916.0, 9916.0, 9921.0, 9922.0, 9930.0, 9947.0, 9943.0, 9947.0, 9953.0, 9950.0, 9943.0, 9956.0, 9954.0, 9964.0, 9956.0, 9955.0, 9949.0, 9954.0, 9945.0, 9943.0, 9934.0, 9930.0, 9951.0, 9955.0, 9935.0, 9914.0, 9878.0, 9852.0, 9847.0, 9853.0, 9861.0, 9866.0, 9882.0, 9887.0, 9894.0, 9910.0, 9904.0, 9911.0, 9911.0, 9909.0, 9932.0, 9945.0, 9938.0, 9930.0, 9927.0, 9919.0, 9917.0, 9925.0, 9928.0, 9950.0, 9954.0, 9946.0, 9922.0, 9908.0, 9893.0, 9921.0, 9945.0, 9937.0, 9925.0, 9903.0, 9878.0, 9859.0, 9851.0, 9845.0, 9861.0, 9876.0, 9873.0, 9868.0, 9886.0, 9904.0, 9931.0, 9933.0, 9933.0, 9923.0, 9915.0, 9911.0, 9923.0, 9924.0, 9929.0, 9917.0, 9912.0, 9895.0, 9892.0, 9899.0, 9915.0, 9919.0, 9897.0, 9894.0, 9885.0, 9891.0, 9879.0, 9890.0, 9874.0, 9871.0, 9882.0, 9879.0, 9886.0, 9886.0, 9885.0, 9893.0, 9896.0, 9909.0, 9898.0, 9890.0, 9878.0, 9862.0, 9845.0, 9841.0, 9825.0, 9858.0, 9868.0, 9876.0, 9884.0, 9896.0, 9911.0, 9911.0, 9899.0, 9883.0, 9872.0, 9873.0, 9873.0, 9874.0, 9883.0, 9886.0, 9894.0],
      "WindowWidth": [21441.0, 21367.0, 21347.0, 21309.0, 21278.0, 21255.0, 21236.0, 21279.0, 21276.0, 21271.0, 21252.0, 21219.0, 21185.0, 21155.0, 21157.0, 21159.0, 21176.0, 21178.0, 21197.0, 21235.0, 21224.0, 21234.0, 21244.0, 21234.0, 21221.0, 21245.0, 21248.0, 21264.0, 21246.0, 21242.0, 21229.0, 21237.0, 21215.0, 21209.0, 21190.0, 21186.0, 21235.0, 21238.0, 21199.0, 21147.0, 21066.0, 21007.0, 20993.0, 21008.0, 21026.0, 21042.0, 21076.0, 21094.0, 21106.0, 21141.0, 21130.0, 21143.0, 21141.0, 21138.0, 21184.0, 21218.0, 21201.0, 21186.0, 21175.0, 21159.0, 21152.0, 21168.0, 21180.0, 21225.0, 21236.0, 21218.0, 21164.0, 21132.0, 21104.0, 21166.0, 21218.0, 21200.0, 21168.0, 21119.0, 21065.0, 21020.0, 21007.0, 20994.0, 21029.0, 21061.0, 21061.0, 21052.0, 21082.0, 21121.0, 21181.0, 21190.0, 21194.0, 21169.0, 21152.0, 21141.0, 21163.0, 21174.0, 21183.0, 21158.0, 21145.0, 21111.0, 21100.0, 21112.0, 21148.0, 21161.0, 21116.0, 21106.0, 21086.0, 21097.0, 21077.0, 21093.0, 21059.0, 21050.0, 21073.0, 21070.0, 21086.0, 21087.0, 21087.0, 21101.0, 21115.0, 21139.0, 21116.0, 21098.0, 21067.0, 21034.0, 20993.0, 20982.0, 20949.0, 21022.0, 21047.0, 21068.0, 21085.0, 21115.0, 21145.0, 21143.0, 21118.0, 21087.0, 21059.0, 21055.0, 21059.0, 21065.0, 21088.0, 21096.0, 21114.0]
    },
    "slices": {}
  }
}