{
  "AcquisitionMatrixPE": 104,
  "AcquisitionNumber": 1,
  "AcquisitionTime": "11:00:21.117500",
  "BandwidthPerPixelPhaseEncode": 17.17,
  "BaseResolution": 104,
  "BodyPartExamined": "BRAIN",
  "CoilString": "HC1-7;NC1_2",
  "ConsistencyInfo": "N4_VE11C_LATEST_20160120",
  "ConversionSoftware": "dcm2niix",
  "ConversionSoftwareVersion": "v1.0.20200427",
  "DerivedVendorReportedEchoSpacing": 0.000560011,
  "DeviceSerialNumber": "167006",
  "DwellTime": 2.1e-06,
  "EchoTime": 0.037,
  "EchoTrainLength": 104,
  "EffectiveEchoSpacing": 0.000560011,
  "FlipAngle": 52,
  "ImageComments": "Unaliased_MB4_PE3_LB",
  "ImageOrientationPatientDICOM": [0.998107, 0.00143542, -0.0614895, -0.015331, 0.973979, -0.226119],
  "ImageType": [
    "ORIGINAL",
    "PRIMARY",
    "M",
    "MB",
    "ND",
    "MOSAIC"
],
  "ImagingFrequency": 123.259,
  "InPlanePhaseEncodingDirectionDICOM": "COL",
  "InstitutionAddress": "Chemin_Queen-Mary_4565_Montreal_District_CA_H3W_1W5",
  "InstitutionName": "IUGM",
  "InstitutionalDepartmentName": "Department",
  "MRAcquisitionType": "2D",
  "MagneticFieldStrength": 3,
  "Manufacturer": "Siemens",
  "ManufacturersModelName": "Prisma_fit",
  "Modality": "MR",
  "MultibandAccelerationFactor": 4,
  "PartialFourier": 1,
  "PatientPosition": "HFS",
  "PercentPhaseFOV": 100,
  "PercentSampling": 100,
  "PhaseEncodingDirection": "j",
  "PhaseEncodingSteps": 104,
  "PhaseResolution": 1,
  "PixelBandwidth": 2290,
  "ProcedureStepDescription": "hcptrt_generic",
  "ProtocolName": "func_task-wm_run-2",
  "PulseSequenceDetails": "%CustomerSeq%_cmrr_mbep2d_bold",
  "ReceiveCoilActiveElements": "HC1-7;NC1,2",
  "ReceiveCoilName": "HeadNeck_64",
  "ReconMatrixPE": 104,
  "RepetitionTime": 1.49,
  "SAR": 0.0303541,
  "ScanOptions": "FS",
  "ScanningSequence": "EP",
  "SequenceName": "epfid2d1_104",
  "SequenceVariant": "SK_SS",
  "SeriesDescription": "func_task-wm_run-2",
  "SeriesNumber": 28,
  "ShimSetting": [596, -7255, -8854, 591, -53, -290, 17, 59],
  "SliceThickness": 2,
  "SliceTiming": [0, 0.785, 0.0975, 0.8825, 0.1975, 0.98, 0.295, 1.0775, 0.3925, 1.1775, 0.49, 1.275, 0.5875, 1.3725, 0.6875, 0, 0.785, 0.0975, 0.8825, 0.1975, 0.98, 0.295, 1.0775, 0.3925, 1.1775, 0.49, 1.275, 0.5875, 1.3725, 0.6875, 0, 0.785, 0.0975, 0.8825, 0.1975, 0.98, 0.295, 1.0775, 0.3925, 1.1775, 0.49, 1.275, 0.5875, 1.3725, 0.6875, 0, 0.785, 0.0975, 0.8825, 0.1975, 0.98, 0.295, 1.0775, 0.3925, 1.1775, 0.49, 1.275, 0.5875, 1.3725, 0.6875],
  "SoftwareVersions": "syngo_MR_E11",
  "SpacingBetweenSlices": 2,
  "StationName": "MRC35049",
  "TaskName": "wm",
  "TotalReadoutTime": 0.0576811,
  "TxRefAmp": 220.508,
  "WipMemBlock": "4877d344-3c5d-4127-8beb-7d7d1c950268||Sequence: R016 ve11c/master r/e634e98; Dec 19 2017 11:00:25 by eja",
  "dcmmeta_affine": [
    [-1.996213436126709, -0.030662043020129204, -0.1191297322511673, 107.77902221679688],
    [-0.0028708374593406916, 1.9479581117630005, -0.4532669484615326, -73.028076171875],
    [-0.12297891080379486, 0.4522377848625183, 1.9443140029907227, -51.27632141113281],
    [0.0, 0.0, 0.0, 1.0]
],
  "dcmmeta_reorient_transform": [
    [0.0, -1.0, 0.0, 103.0],
    [1.0, 0.0, 0.0, 0.0],
    [0.0, 0.0, 1.0, 0.0],
    [0.0, 0.0, 0.0, 1.0]
],
  "dcmmeta_shape": [104, 104, 60, 202],
  "dcmmeta_slice_dim": 2,
  "dcmmeta_version": 0.6,
  "global": {
    "const": {
      "AcquisitionMatrix": [104, 0, 0, 104],
      "AngioFlag": "N",
      "BitsAllocated": 16,
      "BitsStored": 16,
      "BodyPartExamined": "BRAIN",
      "Columns": 832,
      "EchoNumbers": 1,
      "EchoTime": 37.0,
      "EchoTrainLength": 104,
      "FlipAngle": 52.0,
      "HighBit": 15,
      "ImageOrientationPatient": [0.99810670094095, 0.00143541867419, -0.0614894552749, -0.0153310217349, 0.97397905738804, -0.226118896915],
      "ImagePositionPatient": [-820.08152597282, -837.71335070609, 204.68305139629],
      "ImageType": [
        "ORIGINAL",
        "PRIMARY",
        "M",
        "MB",
        "ND",
        "MOSAIC"
],
      "ImagedNucleus": "1H",
      "ImagingFrequency": 123.259102,
      "InPlanePhaseEncodingDirection": "COL",
      "MRAcquisitionType": "2D",
      "MagneticFieldStrength": 3.0,
      "Manufacturer": "SIEMENS",
      "ManufacturerModelName": "Prisma_fit",
      "Modality": "MR",
      "NumberOfAverages": 1.0,
      "NumberOfPhaseEncodingSteps": 104,
      "PercentPhaseFieldOfView": 100.0,
      "PercentSampling": 100.0,
      "PerformedProcedureStepStartTime": "100721.125000",
      "PhotometricInterpretation": "MONOCHROME2",
      "PixelBandwidth": 2290.0,
      "PixelRepresentation": 0,
      "PixelSpacing": [2.0, 2.0],
      "ProtocolName": "func_task-wm_run-2",
      "RepetitionTime": 1490.0,
      "Rows": 832,
      "SAR": 0.03035414452428,
      "SamplesPerPixel": 1,
      "ScanOptions": "FS",
      "ScanningSequence": "EP",
      "SequenceName": "epfid2d1_104",
      "SequenceVariant": [
        "SK",
        "SS"
],
      "SeriesDescription": "func_task-wm_run-2",
      "SeriesNumber": 28,
      "SeriesTime": "110125.554000",
      "SliceLocation": -39.717873076397,
      "SliceThickness": 2.0,
      "SmallestImagePixelValue": 0,
      "SoftwareVersions": "syngo MR E11",
      "SpacingBetweenSlices": 1.9999999630667,
      "SpecificCharacterSet": "ISO_IR 100",
      "StudyID": "1",
      "StudyTime": "100721.040000",
      "TransmitCoilName": "Body",
      "VariableFlipAngleFlag": "N",
      "WindowCenterWidthExplanation": "Algo1",
      "dBdt": 0.0},
    "slices": {}
  },
  "time": {
    "samples": {
      "AcquisitionNumber": [1, 2, 3, 4, 5, 6, 7, 8, 9, 10, 11, 12, 13, 14, 15, 16, 17, 18, 19, 20, 21, 22, 23, 24, 25, 26, 27, 28, 29, 30, 31, 32, 33, 34, 35, 36, 37, 38, 39, 40, 41, 42, 43, 44, 45, 46, 47, 48, 49, 50, 51, 52, 53, 54, 55, 56, 57, 58, 59, 60, 61, 62, 63, 64, 65, 66, 67, 68, 69, 70, 71, 72, 73, 74, 75, 76, 77, 78, 79, 80, 81, 82, 83, 84, 85, 86, 87, 88, 89, 90, 91, 92, 93, 94, 95, 96, 97, 98, 99, 100, 101, 102, 103, 104, 105, 106, 107, 108, 109, 110, 111, 112, 113, 114, 115, 116, 117, 118, 119, 120, 121, 122, 123, 124, 125, 126, 127, 128, 129, 130, 131, 132, 133, 134, 135, 136, 137, 138, 139, 140, 141, 142, 143, 144, 145, 146, 147, 148, 149, 150, 151, 152, 153, 154, 155, 156, 157, 158, 159, 160, 161, 162, 163, 164, 165, 166, 167, 168, 169, 170, 171, 172, 173, 174, 175, 176, 177, 178, 179, 180, 181, 182, 183, 184, 185, 186, 187, 188, 189, 190, 191, 192, 193, 194, 195, 196, 197, 198, 199, 200, 201, 202],
      "AcquisitionTime": ["110021.117500", "110022.607500", "110024.097500", "110025.587500", "110027.077500", "110028.567500", "110030.057500", "110031.547500", "110033.037500", "110034.527500", "110036.017500", "110037.507500", "110038.997500", "110040.487500", "110041.977500", "110043.467500", "110044.957500", "110046.447500", "110047.937500", "110049.427500", "110050.917500", "110052.407500", "110053.897500", "110055.387500", "110056.877500", "110058.367500", "110059.857500", "110101.347500", "110102.837500", "110104.327500", "110105.817500", "110107.307500", "110108.797500", "110110.287500", "110111.777500", "110113.267500", "110114.757500", "110116.247500", "110117.737500", "110119.227500", "110120.717500", "110122.207500", "110123.697500", "110125.187500", "110126.677500", "110128.167500", "110129.657500", "110131.147500", "110132.637500", "110134.127500", "110135.617500", "110137.107500", "110138.597500", "110140.087500", "110141.577500", "110143.067500", "110144.557500", "110146.047500", "110147.537500", "110149.027500", "110150.517500", "110152.007500", "110153.497500", "110154.987500", "110156.477500", "110157.967500", "110159.457500", "110200.947500", "110202.437500", "110203.927500", "110205.417500", "110206.907500", "110208.397500", "110209.887500", "110211.377500", "110212.867500", "110214.357500", "110215.847500", "110217.337500", "110218.827500", "110220.317500", "110221.807500", "110223.297500", "110224.787500", "110226.277500", "110227.767500", "110229.257500", "110230.747500", "110232.237500", "110233.727500", "110235.217500", "110236.707500", "110238.197500", "110239.687500", "110241.177500", "110242.667500", "110244.157500", "110245.647500", "110247.137500", "110248.627500", "110250.117500", "110251.607500", "110253.097500", "110254.587500", "110256.077500", "110257.567500", "110259.057500", "110300.547500", "110302.037500", "110303.527500", "110305.017500", "110306.507500", "110307.997500", "110309.487500", "110310.977500", "110312.467500", "110313.957500", "110315.447500", "110316.937500", "110318.427500", "110319.917500", "110321.407500", "110322.897500", "110324.387500", "110325.877500", "110327.367500", "110328.857500", "110330.347500", "110331.837500", "110333.327500", "110334.817500", "110336.307500", "110337.797500", "110339.287500", "110340.777500", "110342.267500", "110343.757500", "110345.247500", "110346.737500", "110348.227500", "110349.717500", "110351.207500", "110352.697500", "110354.187500", "110355.677500", "110357.167500", "110358.657500", "110400.147500", "110401.637500", "110403.127500", "110404.617500", "110406.107500", "110407.597500", "110409.087500", "110410.577500", "110412.067500", "110413.557500", "110415.047500", "110416.537500", "110418.027500", "110419.517500", "110421.007500", "110422.497500", "110423.987500", "110425.477500", "110426.967500", "110428.457500", "110429.947500", "110431.437500", "110432.927500", "110434.417500", "110435.907500", "110437.397500", "110438.887500", "110440.377500", "110441.867500", "110443.357500", "110444.847500", "110446.337500", "110447.827500", "110449.317500", "110450.807500", "110452.297500", "110453.787500", "110455.277500", "110456.767500", "110458.257500", "110459.747500", "110501.237500", "110502.727500", "110504.217500", "110505.707500", "110507.197500", "110508.687500", "110510.177500", "110511.667500", "110513.157500", "110514.647500", "110516.137500", "110517.627500", "110519.117500", "110520.607500"],
      "ContentTime": ["110125.556000", "110125.560000", "110125.562000", "110125.565000", "110125.571000", "110125.574000", "110125.577000", "110125.580000", "110125.583000", "110125.585000", "110125.588000", "110145.529000", "110145.532000", "110145.535000", "110145.537000", "110145.541000", "110145.543000", "110145.556000", "110145.558000", "110145.561000", "110145.564000", "110145.567000", "110145.570000", "110145.573000", "110145.579000", "110145.582000", "110145.585000", "110145.588000", "110145.591000", "110145.593000", "110145.596000", "110205.529000", "110205.532000", "110205.535000", "110205.537000", "110205.540000", "110205.543000", "110205.546000", "110205.549000", "110205.552000", "110205.555000", "110205.557000", "110205.560000", "110205.563000", "110205.566000", "110205.569000", "110205.572000", "110205.575000", "110205.578000", "110205.581000", "110205.584000", "110225.529000", "110225.532000", "110225.535000", "110225.538000", "110225.542000", "110225.545000", "110225.548000", "110225.551000", "110225.554000", "110225.556000", "110225.559000", "110225.562000", "110225.565000", "110225.568000", "110225.571000", "110225.574000", "110225.577000", "110225.579000", "110225.582000", "110225.585000", "110225.588000", "110245.529000", "110245.532000", "110245.535000", "110245.538000", "110245.541000", "110245.544000", "110245.546000", "110245.549000", "110245.552000", "110245.555000", "110245.561000", "110245.564000", "110245.566000", "110245.570000", "110245.573000", "110245.575000", "110245.578000", "110245.581000", "110245.584000", "110245.587000", "110325.528000", "110325.531000", "110325.534000", "110325.537000", "110325.540000", "110325.542000", "110325.545000", "110325.548000", "110325.551000", "110325.554000", "110325.557000", "110325.560000", "110325.562000", "110325.565000", "110325.568000", "110325.571000", "110325.574000", "110325.577000", "110325.580000", "110325.583000", "110325.586000", "110325.588000", "110325.591000", "110325.594000", "110325.597000", "110325.600000", "110325.603000", "110325.606000", "110325.608000", "110325.611000", "110325.614000", "110405.529000", "110405.532000", "110405.535000", "110405.538000", "110405.541000", "110405.543000", "110405.547000", "110405.549000", "110405.552000", "110405.555000", "110405.558000", "110405.561000", "110405.564000", "110405.566000", "110405.569000", "110405.572000", "110405.575000", "110405.578000", "110405.581000", "110405.584000", "110405.587000", "110405.589000", "110405.592000", "110405.595000", "110405.598000", "110405.601000", "110405.604000", "110445.529000", "110445.532000", "110445.535000", "110445.538000", "110445.541000", "110445.544000", "110445.559000", "110445.562000", "110445.565000", "110445.568000", "110445.570000", "110445.573000", "110445.576000", "110445.579000", "110445.582000", "110445.585000", "110445.588000", "110445.591000", "110445.593000", "110445.596000", "110445.599000", "110445.602000", "110445.605000", "110445.608000", "110445.611000", "110445.614000", "110445.616000", "110522.793000", "110522.796000", "110522.799000", "110522.802000", "110522.807000", "110522.810000", "110522.813000", "110522.816000", "110522.819000", "110522.822000", "110522.824000", "110522.827000", "110522.831000", "110522.834000", "110522.837000", "110522.840000", "110522.843000", "110522.845000", "110522.848000", "110522.851000", "110522.854000", "110522.857000", "110522.860000", "110522.863000", "110522.866000"],
      "InstanceCreationTime": ["110125.556000", "110125.560000", "110125.562000", "110125.565000", "110125.571000", "110125.574000", "110125.577000", "110125.580000", "110125.583000", "110125.585000", "110125.588000", "110145.529000", "110145.532000", "110145.535000", "110145.537000", "110145.541000", "110145.543000", "110145.556000", "110145.558000", "110145.561000", "110145.564000", "110145.567000", "110145.570000", "110145.573000", "110145.579000", "110145.582000", "110145.585000", "110145.588000", "110145.591000", "110145.593000", "110145.596000", "110205.529000", "110205.532000", "110205.535000", "110205.537000", "110205.540000", "110205.543000", "110205.546000", "110205.549000", "110205.552000", "110205.555000", "110205.557000", "110205.560000", "110205.563000", "110205.566000", "110205.569000", "110205.572000", "110205.575000", "110205.578000", "110205.581000", "110205.584000", "110225.529000", "110225.532000", "110225.535000", "110225.538000", "110225.542000", "110225.545000", "110225.548000", "110225.551000", "110225.554000", "110225.556000", "110225.559000", "110225.562000", "110225.565000", "110225.568000", "110225.571000", "110225.574000", "110225.577000", "110225.579000", "110225.582000", "110225.585000", "110225.588000", "110245.529000", "110245.532000", "110245.535000", "110245.538000", "110245.541000", "110245.544000", "110245.546000", "110245.549000", "110245.552000", "110245.555000", "110245.561000", "110245.564000", "110245.566000", "110245.570000", "110245.573000", "110245.575000", "110245.578000", "110245.581000", "110245.584000", "110245.587000", "110325.528000", "110325.531000", "110325.534000", "110325.537000", "110325.540000", "110325.542000", "110325.545000", "110325.548000", "110325.551000", "110325.554000", "110325.557000", "110325.560000", "110325.562000", "110325.565000", "110325.568000", "110325.571000", "110325.574000", "110325.577000", "110325.580000", "110325.583000", "110325.586000", "110325.588000", "110325.591000", "110325.594000", "110325.597000", "110325.600000", "110325.603000", "110325.606000", "110325.608000", "110325.611000", "110325.614000", "110405.529000", "110405.532000", "110405.535000", "110405.538000", "110405.541000", "110405.543000", "110405.547000", "110405.549000", "110405.552000", "110405.555000", "110405.558000", "110405.561000", "110405.564000", "110405.566000", "110405.569000", "110405.572000", "110405.575000", "110405.578000", "110405.581000", "110405.584000", "110405.587000", "110405.589000", "110405.592000", "110405.595000", "110405.598000", "110405.601000", "110405.604000", "110445.529000", "110445.532000", "110445.535000", "110445.538000", "110445.541000", "110445.544000", "110445.559000", "110445.562000", "110445.565000", "110445.568000", "110445.570000", "110445.573000", "110445.576000", "110445.579000", "110445.582000", "110445.585000", "110445.588000", "110445.591000", "110445.593000", "110445.596000", "110445.599000", "110445.602000", "110445.605000", "110445.608000", "110445.611000", "110445.614000", "110445.616000", "110522.793000", "110522.796000", "110522.799000", "110522.802000", "110522.807000", "110522.810000", "110522.813000", "110522.816000", "110522.819000", "110522.822000", "110522.824000", "110522.827000", "110522.831000", "110522.834000", "110522.837000", "110522.840000", "110522.843000", "110522.845000", "110522.848000", "110522.851000", "110522.854000", "110522.857000", "110522.860000", "110522.863000", "110522.866000"],
      "InstanceNumber": [1, 2, 3, 4, 5, 6, 7, 8, 9, 10, 11, 12, 13, 14, 15, 16, 17, 18, 19, 20, 21, 22, 23, 24, 25, 26, 27, 28, 29, 30, 31, 32, 33, 34, 35, 36, 37, 38, 39, 40, 41, 42, 43, 44, 45, 46, 47, 48, 49, 50, 51, 52, 53, 54, 55, 56, 57, 58, 59, 60, 61, 62, 63, 64, 65, 66, 67, 68, 69, 70, 71, 72, 73, 74, 75, 76, 77, 78, 79, 80, 81, 82, 83, 84, 85, 86, 87, 88, 89, 90, 91, 92, 93, 94, 95, 96, 97, 98, 99, 100, 101, 102, 103, 104, 105, 106, 107, 108, 109, 110, 111, 112, 113, 114, 115, 116, 117, 118, 119, 120, 121, 122, 123, 124, 125, 126, 127, 128, 129, 130, 131, 132, 133, 134, 135, 136, 137, 138, 139, 140, 141, 142, 143, 144, 145, 146, 147, 148, 149, 150, 151, 152, 153, 154, 155, 156, 157, 158, 159, 160, 161, 162, 163, 164, 165, 166, 167, 168, 169, 170, 171, 172, 173, 174, 175, 176, 177, 178, 179, 180, 181, 182, 183, 184, 185, 186, 187, 188, 189, 190, 191, 192, 193, 194, 195, 196, 197, 198, 199, 200, 201, 202],
      "LargestImagePixelValue": [47661, 46788, 46724, 45402, 45708, 44994, 44534, 44402, 44352, 44784, 44745, 44052, 44657, 44667, 44519, 44776, 44777, 44836, 44970, 44297, 44627, 44781, 44898, 44953, 44849, 44987, 45308, 45016, 44987, 45221, 45625, 45127, 44988, 45328, 45386, 45248, 44932, 45011, 45110, 45142, 45495, 44862, 45194, 44947, 44868, 45047, 45777, 45207, 45348, 45186, 44856, 44978, 44712, 44924, 45333, 45278, 45300, 45335, 45891, 45034, 45256, 45251, 45048, 44340, 44642, 44532, 44388, 45107, 44776, 44718, 44205, 43722, 43297, 43550, 43645, 43378, 42986, 43038, 43642, 43454, 43411, 43543, 42974, 43651, 43593, 43365, 43149, 43206, 43785, 43357, 43384, 43858, 43981, 44129, 42964, 43391, 43390, 43287, 42734, 42498, 42241, 42369, 42340, 42233, 42335, 42215, 42212, 42360, 42139, 41895, 42342, 42161, 42166, 42085, 42151, 42245, 42483, 41745, 42062, 41863, 41737, 41723, 41818, 41769, 42229, 41835, 41805, 41841, 42093, 41639, 41947, 42127, 41959, 41883, 41780, 41844, 42041, 41805, 41827, 41776, 41853, 41773, 42047, 41875, 41795, 41564, 41834, 42257, 42247, 42054, 41872, 42045, 41702, 41613, 41548, 41620, 41835, 42146, 42202, 42333, 42657, 42339, 42507, 41902, 41904, 41982, 41960, 42507, 42322, 42586, 42412, 42560, 41776, 42125, 42408, 42139, 42107, 42421, 42369, 42652, 43261, 43277, 43515, 44719, 44369, 43997, 44244, 44612, 44702, 44779, 43830, 43677, 44072, 44060, 43950, 43852, 43503, 43889, 43674, 43648, 43221, 43459],
      "WindowCenter": [10083.0, 10053.0, 10037.0, 10008.0, 10002.0, 9993.0, 9975.0, 9976.0, 9983.0, 9992.0, 9999.0, 9994.0, 9992.0, 9977.0, 9969.0, 9965.0, 9963.0, 9966.0, 9971.0, 9967.0, 9972.0, 9965.0, 9965.0, 9970.0, 9979.0, 9975.0, 9976.0, 9975.0, 9969.0, 9968.0, 9958.0, 9951.0, 9957.0, 9956.0, 9955.0, 9950.0, 9958.0, 9967.0, 9968.0, 9974.0, 9990.0, 9978.0, 9976.0, 9970.0, 9969.0, 9966.0, 9979.0, 9983.0, 9982.0, 9968.0, 9958.0, 9949.0, 9942.0, 9941.0, 9953.0, 9963.0, 9971.0, 9981.0, 9987.0, 9974.0, 9973.0, 9966.0, 9973.0, 9961.0, 9950.0, 9944.0, 9934.0, 9927.0, 9938.0, 9943.0, 9957.0, 9970.0, 9964.0, 9939.0, 9911.0, 9889.0, 9871.0, 9860.0, 9867.0, 9876.0, 9877.0, 9883.0, 9885.0, 9893.0, 9903.0, 9910.0, 9914.0, 9922.0, 9928.0, 9916.0, 9922.0, 9929.0, 9937.0, 9947.0, 9956.0, 9984.0, 9983.0, 9951.0, 9924.0, 9899.0, 9888.0, 9887.0, 9888.0, 9888.0, 9896.0, 9905.0, 9920.0, 9923.0, 9923.0, 9918.0, 9925.0, 9932.0, 9933.0, 9933.0, 9934.0, 9933.0, 9941.0, 9944.0, 9945.0, 9943.0, 9938.0, 9938.0, 9944.0, 9937.0, 9942.0, 9927.0, 9919.0, 9917.0, 9930.0, 9925.0, 9925.0, 9925.0, 9917.0, 9911.0, 9917.0, 9925.0, 9926.0, 9933.0, 9933.0, 9933.0, 9932.0, 9925.0, 9931.0, 9931.0, 9932.0, 9934.0, 9942.0, 9942.0, 9938.0, 9924.0, 9924.0, 9930.0, 9926.0, 9924.0, 9916.0, 9907.0, 9900.0, 9897.0, 9887.0, 9896.0, 9912.0, 9896.0, 9910.0, 9903.0, 9905.0, 9911.0, 9907.0, 9921.0, 9921.0, 9921.0, 9922.0, 9921.0, 9906.0, 9904.0, 9909.0, 9912.0, 9914.0, 9913.0, 9906.0, 9920.0, 9919.0, 9918.0, 9920.0, 9931.0, 9917.0, 9899.0, 9899.0, 9903.0, 9911.0, 9920.0, 9914.0, 9918.0, 9934.0, 9934.0, 9927.0, 9911.0, 9910.0, 9925.0, 9937.0, 9939.0, 9933.0, 9929.0],
      "WindowWidth": [21614.0, 21516.0, 21464.0, 21393.0, 21367.0, 21342.0, 21303.0, 21302.0, 21318.0, 21339.0, 21353.0, 21345.0, 21338.0, 21307.0, 21287.0, 21276.0, 21270.0, 21280.0, 21288.0, 21282.0, 21292.0, 21280.0, 21281.0, 21290.0, 21310.0, 21296.0, 21297.0, 21295.0, 21284.0, 21281.0, 21256.0, 21244.0, 21254.0, 21252.0, 21250.0, 21240.0, 21258.0, 21277.0, 21281.0, 21295.0, 21327.0, 21305.0, 21300.0, 21288.0, 21285.0, 21278.0, 21302.0, 21315.0, 21311.0, 21283.0, 21259.0, 21237.0, 21223.0, 21220.0, 21242.0, 21265.0, 21283.0, 21307.0, 21321.0, 21292.0, 21287.0, 21275.0, 21283.0, 21263.0, 21235.0, 21226.0, 21201.0, 21179.0, 21206.0, 21216.0, 21254.0, 21285.0, 21270.0, 21212.0, 21146.0, 21097.0, 21057.0, 21030.0, 21048.0, 21070.0, 21073.0, 21083.0, 21092.0, 21110.0, 21133.0, 21146.0, 21157.0, 21174.0, 21185.0, 21163.0, 21175.0, 21187.0, 21208.0, 21230.0, 21259.0, 21317.0, 21313.0, 21244.0, 21182.0, 21128.0, 21106.0, 21103.0, 21107.0, 21108.0, 21124.0, 21143.0, 21176.0, 21182.0, 21184.0, 21177.0, 21188.0, 21204.0, 21209.0, 21208.0, 21212.0, 21210.0, 21225.0, 21236.0, 21236.0, 21232.0, 21223.0, 21222.0, 21234.0, 21220.0, 21230.0, 21196.0, 21181.0, 21176.0, 21200.0, 21191.0, 21190.0, 21194.0, 21175.0, 21164.0, 21174.0, 21192.0, 21196.0, 21207.0, 21209.0, 21208.0, 21209.0, 21191.0, 21201.0, 21201.0, 21204.0, 21212.0, 21229.0, 21228.0, 21216.0, 21188.0, 21188.0, 21198.0, 21190.0, 21184.0, 21168.0, 21149.0, 21133.0, 21124.0, 21102.0, 21121.0, 21155.0, 21122.0, 21150.0, 21137.0, 21142.0, 21153.0, 21148.0, 21177.0, 21178.0, 21180.0, 21182.0, 21180.0, 21148.0, 21142.0, 21151.0, 21159.0, 21166.0, 21162.0, 21147.0, 21175.0, 21171.0, 21168.0, 21174.0, 21192.0, 21162.0, 21124.0, 21122.0, 21127.0, 21147.0, 21165.0, 21157.0, 21167.0, 21203.0, 21200.0, 21185.0, 21151.0, 21150.0, 21183.0, 21214.0, 21217.0, 21207.0, 21198.0]
    },
    "slices": {}
  }
}