{
  "AcquisitionMatrixPE": 104,
  "AcquisitionNumber": 1,
  "AcquisitionTime": "16:36:47.912500",
  "BandwidthPerPixelPhaseEncode": 17.17,
  "BaseResolution": 104,
  "BodyPartExamined": "BRAIN",
  "CoilString": "HC1-7;NC1_2",
  "ConsistencyInfo": "N4_VE11C_LATEST_20160120",
  "ConversionSoftware": "dcm2niix",
  "ConversionSoftwareVersion": "v1.0.20190720  (JP2:OpenJPEG) GCC7.3.0",
  "DerivedVendorReportedEchoSpacing": 0.000560011,
  "DeviceSerialNumber": "167006",
  "DwellTime": 2.1e-06,
  "EchoTime": 0.037,
  "EchoTrainLength": 104,
  "EffectiveEchoSpacing": 0.000560011,
  "FlipAngle": 52,
  "ImageComments": "Unaliased_MB4_PE3_LB",
  "ImageOrientationPatientDICOM": [0.997496, 0.06187, 0.0342622, -0.0493093, 0.955694, -0.290202],
  "ImageType": [
    "ORIGINAL",
    "PRIMARY",
    "M",
    "MB",
    "ND",
    "MOSAIC"
],
  "ImagingFrequency": 123.259,
  "InPlanePhaseEncodingDirectionDICOM": "COL",
  "InstitutionAddress": "Chemin_Queen-Mary_4565_Montreal_District_CA_H3W_1W5",
  "InstitutionName": "IUGM",
  "InstitutionalDepartmentName": "Department",
  "MRAcquisitionType": "2D",
  "MagneticFieldStrength": 3,
  "Manufacturer": "Siemens",
  "ManufacturersModelName": "Prisma_fit",
  "Modality": "MR",
  "MultibandAccelerationFactor": 4,
  "PartialFourier": 1,
  "PatientPosition": "HFS",
  "PercentPhaseFOV": 100,
  "PhaseEncodingDirection": "j",
  "PhaseEncodingSteps": 104,
  "PhaseResolution": 1,
  "PixelBandwidth": 2290,
  "ProcedureStepDescription": "hcptrt_generic",
  "ProtocolName": "func_task-wm_run-1",
  "PulseSequenceDetails": "%CustomerSeq%_cmrr_mbep2d_bold",
  "ReceiveCoilActiveElements": "HC1-7;NC1,2",
  "ReceiveCoilName": "HeadNeck_64",
  "ReconMatrixPE": 104,
  "RepetitionTime": 1.49,
  "SAR": 0.0393039,
  "ScanOptions": "FS",
  "ScanningSequence": "EP",
  "SequenceName": "epfid2d1_104",
  "SequenceVariant": "SK_SS",
  "SeriesDescription": "func_task-wm_run-1",
  "SeriesNumber": 15,
  "ShimSetting": [630, -7182, -8885, 495, 89, 18, -61, -25],
  "SliceThickness": 2,
  "SliceTiming": [0, 0.785, 0.1, 0.8825, 0.1975, 0.98, 0.295, 1.08, 0.3925, 1.1775, 0.49, 1.275, 0.59, 1.3725, 0.6875, 0, 0.785, 0.1, 0.8825, 0.1975, 0.98, 0.295, 1.08, 0.3925, 1.1775, 0.49, 1.275, 0.59, 1.3725, 0.6875, 0, 0.785, 0.1, 0.8825, 0.1975, 0.98, 0.295, 1.08, 0.3925, 1.1775, 0.49, 1.275, 0.59, 1.3725, 0.6875, 0, 0.785, 0.1, 0.8825, 0.1975, 0.98, 0.295, 1.08, 0.3925, 1.1775, 0.49, 1.275, 0.59, 1.3725, 0.6875],
  "SoftwareVersions": "syngo_MR_E11",
  "SpacingBetweenSlices": 2,
  "StationName": "MRC35049",
  "TaskName": "wm",
  "TotalReadoutTime": 0.0576811,
  "TxRefAmp": 251.431,
  "WipMemBlock": "35bb8c65-67f3-4d26-b852-83f37d6398a4||Sequence: R016 ve11c/master r/e634e98; Dec 19 2017 11:00:25 by eja",
  "dcmmeta_affine": [
    [-1.9949918985366821, -0.0986185073852539, 0.10139796137809753, 106.62024688720703],
    [-0.12373991310596466, 1.9113881587982178, -0.5755725502967834, -57.847599029541016],
    [0.06852438300848007, 0.5804047584533691, 1.912703514099121, -69.59989929199219],
    [0.0, 0.0, 0.0, 1.0]
],
  "dcmmeta_reorient_transform": [
    [0.0, -1.0, 0.0, 103.0],
    [1.0, 0.0, 0.0, 0.0],
    [0.0, 0.0, 1.0, 0.0],
    [0.0, 0.0, 0.0, 1.0]
],
  "dcmmeta_shape": [104, 104, 60, 202],
  "dcmmeta_slice_dim": 2,
  "dcmmeta_version": 0.6,
  "global": {
    "const": {
      "AcquisitionMatrix": [104, 0, 0, 104],
      "AngioFlag": "N",
      "BitsAllocated": 16,
      "BitsStored": 16,
      "BodyPartExamined": "BRAIN",
      "Columns": 832,
      "EchoNumbers": 1,
      "EchoTime": 37.0,
      "EchoTrainLength": 104,
      "FlipAngle": 52.0,
      "HighBit": 15,
      "ImageOrientationPatient": [0.99749597026368, 0.06186995725432, 0.03426219048863, -0.0493092546768, 0.95569408155284, -0.290202377468],
      "ImagePositionPatient": [-786.74247046284, -879.81200312691, 176.50624618699],
      "ImageType": [
        "ORIGINAL",
        "PRIMARY",
        "M",
        "MB",
        "ND",
        "MOSAIC"
],
      "ImagedNucleus": "1H",
      "ImagingFrequency": 123.259391,
      "InPlanePhaseEncodingDirection": "COL",
      "MRAcquisitionType": "2D",
      "MagneticFieldStrength": 3.0,
      "Manufacturer": "SIEMENS",
      "ManufacturerModelName": "Prisma_fit",
      "Modality": "MR",
      "NumberOfAverages": 1.0,
      "NumberOfPhaseEncodingSteps": 104,
      "PercentPhaseFieldOfView": 100.0,
      "PercentSampling": 100.0,
      "PerformedProcedureStepStartTime": "155657.977000",
      "PhotometricInterpretation": "MONOCHROME2",
      "PixelBandwidth": 2290.0,
      "PixelRepresentation": 0,
      "PixelSpacing": [2.0, 2.0],
      "ProtocolName": "func_task-wm_run-1",
      "RepetitionTime": 1490.0,
      "Rows": 832,
      "SAR": 0.03930389735889,
      "SamplesPerPixel": 1,
      "ScanOptions": "FS",
      "ScanningSequence": "EP",
      "SequenceName": "epfid2d1_104",
      "SequenceVariant": [
        "SK",
        "SS"
],
      "SeriesDescription": "func_task-wm_run-1",
      "SeriesNumber": 15,
      "SeriesTime": "163802.529000",
      "SliceLocation": -44.508704568088,
      "SliceThickness": 2.0,
      "SmallestImagePixelValue": 0,
      "SoftwareVersions": "syngo MR E11",
      "SpacingBetweenSlices": 2.0000000451319,
      "SpecificCharacterSet": "ISO_IR 100",
      "StudyID": "1",
      "StudyTime": "155657.900000",
      "TransmitCoilName": "Body",
      "VariableFlipAngleFlag": "N",
      "WindowCenterWidthExplanation": "Algo1",
      "dBdt": 0.0},
    "slices": {}
  },
  "time": {
    "samples": {
      "AcquisitionNumber": [1, 2, 3, 4, 5, 6, 7, 8, 9, 10, 11, 12, 13, 14, 15, 16, 17, 18, 19, 20, 21, 22, 23, 24, 25, 26, 27, 28, 29, 30, 31, 32, 33, 34, 35, 36, 37, 38, 39, 40, 41, 42, 43, 44, 45, 46, 47, 48, 49, 50, 51, 52, 53, 54, 55, 56, 57, 58, 59, 60, 61, 62, 63, 64, 65, 66, 67, 68, 69, 70, 71, 72, 73, 74, 75, 76, 77, 78, 79, 80, 81, 82, 83, 84, 85, 86, 87, 88, 89, 90, 91, 92, 93, 94, 95, 96, 97, 98, 99, 100, 101, 102, 103, 104, 105, 106, 107, 108, 109, 110, 111, 112, 113, 114, 115, 116, 117, 118, 119, 120, 121, 122, 123, 124, 125, 126, 127, 128, 129, 130, 131, 132, 133, 134, 135, 136, 137, 138, 139, 140, 141, 142, 143, 144, 145, 146, 147, 148, 149, 150, 151, 152, 153, 154, 155, 156, 157, 158, 159, 160, 161, 162, 163, 164, 165, 166, 167, 168, 169, 170, 171, 172, 173, 174, 175, 176, 177, 178, 179, 180, 181, 182, 183, 184, 185, 186, 187, 188, 189, 190, 191, 192, 193, 194, 195, 196, 197, 198, 199, 200, 201, 202],
      "AcquisitionTime": ["163647.912500", "163649.402500", "163650.892500", "163652.382500", "163653.872500", "163655.362500", "163656.852500", "163658.342500", "163659.832500", "163701.322500", "163702.812500", "163704.302500", "163705.792500", "163707.282500", "163708.772500", "163710.262500", "163711.752500", "163713.242500", "163714.732500", "163716.222500", "163717.712500", "163719.202500", "163720.692500", "163722.182500", "163723.672500", "163725.162500", "163726.652500", "163728.142500", "163729.632500", "163731.122500", "163732.612500", "163734.102500", "163735.592500", "163737.082500", "163738.572500", "163740.062500", "163741.552500", "163743.042500", "163744.532500", "163746.022500", "163747.512500", "163749.002500", "163750.492500", "163751.982500", "163753.472500", "163754.962500", "163756.452500", "163757.942500", "163759.432500", "163800.922500", "163802.412500", "163803.902500", "163805.392500", "163806.882500", "163808.372500", "163809.862500", "163811.352500", "163812.842500", "163814.332500", "163815.822500", "163817.312500", "163818.802500", "163820.292500", "163821.782500", "163823.272500", "163824.762500", "163826.252500", "163827.742500", "163829.232500", "163830.722500", "163832.212500", "163833.702500", "163835.192500", "163836.682500", "163838.172500", "163839.662500", "163841.152500", "163842.642500", "163844.132500", "163845.622500", "163847.112500", "163848.602500", "163850.092500", "163851.582500", "163853.072500", "163854.562500", "163856.052500", "163857.542500", "163859.032500", "163900.522500", "163902.012500", "163903.502500", "163904.992500", "163906.482500", "163907.972500", "163909.462500", "163910.952500", "163912.442500", "163913.932500", "163915.422500", "163916.912500", "163918.402500", "163919.892500", "163921.382500", "163922.872500", "163924.362500", "163925.852500", "163927.342500", "163928.832500", "163930.322500", "163931.812500", "163933.302500", "163934.792500", "163936.282500", "163937.772500", "163939.262500", "163940.752500", "163942.242500", "163943.732500", "163945.222500", "163946.712500", "163948.202500", "163949.692500", "163951.182500", "163952.672500", "163954.162500", "163955.652500", "163957.142500", "163958.632500", "164000.122500", "164001.612500", "164003.102500", "164004.592500", "164006.082500", "164007.572500", "164009.062500", "164010.552500", "164012.042500", "164013.532500", "164015.022500", "164016.512500", "164018.002500", "164019.492500", "164020.982500", "164022.472500", "164023.962500", "164025.452500", "164026.942500", "164028.432500", "164029.922500", "164031.412500", "164032.902500", "164034.392500", "164035.882500", "164037.372500", "164038.862500", "164040.352500", "164041.842500", "164043.332500", "164044.822500", "164046.312500", "164047.802500", "164049.292500", "164050.782500", "164052.272500", "164053.762500", "164055.252500", "164056.742500", "164058.232500", "164059.722500", "164101.212500", "164102.702500", "164104.192500", "164105.682500", "164107.172500", "164108.662500", "164110.152500", "164111.642500", "164113.132500", "164114.622500", "164116.112500", "164117.602500", "164119.092500", "164120.582500", "164122.072500", "164123.562500", "164125.052500", "164126.542500", "164128.032500", "164129.522500", "164131.012500", "164132.502500", "164133.992500", "164135.482500", "164136.972500", "164138.462500", "164139.952500", "164141.442500", "164142.932500", "164144.422500", "164145.912500", "164147.402500"],
      "ContentTime": ["163802.532000", "163802.535000", "163802.553000", "163802.556000", "163802.559000", "163802.562000", "163802.565000", "163802.568000", "163802.571000", "163802.574000", "163802.577000", "163802.580000", "163802.588000", "163802.591000", "163802.594000", "163802.597000", "163802.599000", "163802.602000", "163802.605000", "163802.608000", "163822.530000", "163822.533000", "163822.536000", "163822.539000", "163822.542000", "163822.552000", "163822.555000", "163822.558000", "163822.561000", "163822.564000", "163822.567000", "163822.570000", "163822.573000", "163822.576000", "163822.579000", "163822.582000", "163822.585000", "163822.588000", "163822.591000", "163822.594000", "163842.529000", "163842.532000", "163842.545000", "163842.548000", "163842.551000", "163842.554000", "163842.557000", "163842.560000", "163842.563000", "163842.566000", "163842.569000", "163842.572000", "163842.575000", "163842.577000", "163842.580000", "163842.583000", "163842.586000", "163842.589000", "163842.592000", "163842.595000", "163902.529000", "163902.532000", "163902.535000", "163902.538000", "163902.541000", "163902.544000", "163902.547000", "163902.550000", "163902.553000", "163902.556000", "163902.558000", "163902.561000", "163902.564000", "163902.567000", "163902.570000", "163902.573000", "163902.576000", "163902.590000", "163902.593000", "163902.596000", "163902.599000", "163922.529000", "163922.532000", "163922.535000", "163922.538000", "163922.541000", "163922.544000", "163922.546000", "163922.549000", "163922.552000", "163922.555000", "163922.558000", "163922.561000", "163922.564000", "163922.567000", "163922.570000", "163922.573000", "163922.576000", "163922.578000", "163922.581000", "163922.584000", "164002.530000", "164002.533000", "164002.536000", "164002.539000", "164002.542000", "164002.545000", "164002.548000", "164002.551000", "164002.554000", "164002.557000", "164002.559000", "164002.562000", "164002.565000", "164002.568000", "164002.571000", "164002.574000", "164002.577000", "164002.580000", "164002.583000", "164002.586000", "164002.589000", "164002.611000", "164002.613000", "164002.616000", "164002.619000", "164002.622000", "164002.625000", "164002.628000", "164002.631000", "164042.530000", "164042.533000", "164042.536000", "164042.539000", "164042.542000", "164042.545000", "164042.548000", "164042.551000", "164042.554000", "164042.557000", "164042.560000", "164042.562000", "164042.566000", "164042.569000", "164042.572000", "164042.575000", "164042.577000", "164042.580000", "164042.583000", "164042.586000", "164042.589000", "164042.592000", "164042.595000", "164042.598000", "164042.601000", "164042.604000", "164042.607000", "164122.529000", "164122.532000", "164122.535000", "164122.538000", "164122.541000", "164122.544000", "164122.547000", "164122.550000", "164122.553000", "164122.555000", "164122.558000", "164122.561000", "164122.564000", "164122.567000", "164122.571000", "164122.574000", "164122.576000", "164122.579000", "164122.582000", "164122.585000", "164122.588000", "164122.591000", "164122.594000", "164122.597000", "164122.600000", "164122.603000", "164122.606000", "164149.375000", "164149.378000", "164149.381000", "164149.384000", "164149.392000", "164149.395000", "164149.399000", "164149.402000", "164149.405000", "164149.408000", "164149.411000", "164149.414000", "164149.417000", "164149.420000", "164149.423000", "164149.426000", "164149.429000", "164149.432000"],
      "InstanceCreationTime": ["163802.532000", "163802.535000", "163802.553000", "163802.556000", "163802.559000", "163802.562000", "163802.565000", "163802.568000", "163802.571000", "163802.574000", "163802.577000", "163802.580000", "163802.588000", "163802.591000", "163802.594000", "163802.597000", "163802.599000", "163802.602000", "163802.605000", "163802.608000", "163822.530000", "163822.533000", "163822.536000", "163822.539000", "163822.542000", "163822.552000", "163822.555000", "163822.558000", "163822.561000", "163822.564000", "163822.567000", "163822.570000", "163822.573000", "163822.576000", "163822.579000", "163822.582000", "163822.585000", "163822.588000", "163822.591000", "163822.594000", "163842.529000", "163842.532000", "163842.545000", "163842.548000", "163842.551000", "163842.554000", "163842.557000", "163842.560000", "163842.563000", "163842.566000", "163842.569000", "163842.572000", "163842.575000", "163842.577000", "163842.580000", "163842.583000", "163842.586000", "163842.589000", "163842.592000", "163842.595000", "163902.529000", "163902.532000", "163902.535000", "163902.538000", "163902.541000", "163902.544000", "163902.547000", "163902.550000", "163902.553000", "163902.556000", "163902.558000", "163902.561000", "163902.564000", "163902.567000", "163902.570000", "163902.573000", "163902.576000", "163902.590000", "163902.593000", "163902.596000", "163902.599000", "163922.529000", "163922.532000", "163922.535000", "163922.538000", "163922.541000", "163922.544000", "163922.546000", "163922.549000", "163922.552000", "163922.555000", "163922.558000", "163922.561000", "163922.564000", "163922.567000", "163922.570000", "163922.573000", "163922.576000", "163922.578000", "163922.581000", "163922.584000", "164002.530000", "164002.533000", "164002.536000", "164002.539000", "164002.542000", "164002.545000", "164002.548000", "164002.551000", "164002.554000", "164002.557000", "164002.559000", "164002.562000", "164002.565000", "164002.568000", "164002.571000", "164002.574000", "164002.577000", "164002.580000", "164002.583000", "164002.586000", "164002.589000", "164002.611000", "164002.613000", "164002.616000", "164002.619000", "164002.622000", "164002.625000", "164002.628000", "164002.631000", "164042.530000", "164042.533000", "164042.536000", "164042.539000", "164042.542000", "164042.545000", "164042.548000", "164042.551000", "164042.554000", "164042.557000", "164042.560000", "164042.562000", "164042.566000", "164042.569000", "164042.572000", "164042.575000", "164042.577000", "164042.580000", "164042.583000", "164042.586000", "164042.589000", "164042.592000", "164042.595000", "164042.598000", "164042.601000", "164042.604000", "164042.607000", "164122.529000", "164122.532000", "164122.535000", "164122.538000", "164122.541000", "164122.544000", "164122.547000", "164122.550000", "164122.553000", "164122.555000", "164122.558000", "164122.561000", "164122.564000", "164122.567000", "164122.571000", "164122.574000", "164122.576000", "164122.579000", "164122.582000", "164122.585000", "164122.588000", "164122.591000", "164122.594000", "164122.597000", "164122.600000", "164122.603000", "164122.606000", "164149.375000", "164149.378000", "164149.381000", "164149.384000", "164149.392000", "164149.395000", "164149.399000", "164149.402000", "164149.405000", "164149.408000", "164149.411000", "164149.414000", "164149.417000", "164149.420000", "164149.423000", "164149.426000", "164149.429000", "164149.432000"],
      "InstanceNumber": [1, 2, 3, 4, 5, 6, 7, 8, 9, 10, 11, 12, 13, 14, 15, 16, 17, 18, 19, 20, 21, 22, 23, 24, 25, 26, 27, 28, 29, 30, 31, 32, 33, 34, 35, 36, 37, 38, 39, 40, 41, 42, 43, 44, 45, 46, 47, 48, 49, 50, 51, 52, 53, 54, 55, 56, 57, 58, 59, 60, 61, 62, 63, 64, 65, 66, 67, 68, 69, 70, 71, 72, 73, 74, 75, 76, 77, 78, 79, 80, 81, 82, 83, 84, 85, 86, 87, 88, 89, 90, 91, 92, 93, 94, 95, 96, 97, 98, 99, 100, 101, 102, 103, 104, 105, 106, 107, 108, 109, 110, 111, 112, 113, 114, 115, 116, 117, 118, 119, 120, 121, 122, 123, 124, 125, 126, 127, 128, 129, 130, 131, 132, 133, 134, 135, 136, 137, 138, 139, 140, 141, 142, 143, 144, 145, 146, 147, 148, 149, 150, 151, 152, 153, 154, 155, 156, 157, 158, 159, 160, 161, 162, 163, 164, 165, 166, 167, 168, 169, 170, 171, 172, 173, 174, 175, 176, 177, 178, 179, 180, 181, 182, 183, 184, 185, 186, 187, 188, 189, 190, 191, 192, 193, 194, 195, 196, 197, 198, 199, 200, 201, 202],
      "LargestImagePixelValue": [43110, 41731, 42029, 41475, 41914, 42190, 40046, 40719, 40614, 41480, 41343, 40297, 40920, 40813, 41401, 41628, 41579, 41965, 42088, 40777, 41648, 41758, 41853, 40350, 42407, 42874, 42006, 42545, 42230, 42337, 42335, 42307, 42781, 41540, 42373, 42308, 41951, 42240, 42331, 42010, 41787, 41829, 42407, 42116, 42184, 42221, 42054, 41954, 42194, 41924, 42230, 41633, 41398, 41837, 41768, 41760, 42018, 41681, 40954, 41529, 41453, 41605, 40824, 41203, 41057, 41055, 40235, 40843, 41371, 41118, 41070, 41009, 41008, 40769, 40586, 41447, 41156, 40496, 41089, 41159, 41147, 41857, 40058, 40984, 40837, 40662, 40840, 39972, 40695, 40140, 40479, 40645, 39891, 40681, 40951, 41104, 41084, 40355, 40297, 41355, 40780, 41234, 41501, 41345, 41238, 40772, 40231, 41069, 40761, 39942, 40593, 40591, 40275, 39983, 40366, 40805, 40342, 39914, 40199, 40183, 39988, 40128, 40079, 39683, 40301, 40009, 40195, 39643, 39270, 39821, 39319, 39914, 39748, 39522, 39558, 39686, 40356, 40007, 39193, 39123, 39617, 40048, 40189, 39292, 39839, 39797, 40696, 39721, 39823, 39737, 39650, 39309, 40373, 39321, 39968, 39717, 40375, 40704, 39273, 40073, 39952, 40057, 40354, 39524, 39670, 39759, 39386, 39595, 39981, 39330, 39446, 39493, 40238, 39873, 40118, 39403, 39392, 39906, 39597, 39995, 39427, 39749, 39809, 40506, 39463, 39779, 40581, 40274, 39423, 39388, 39389, 39984, 40027, 39047, 39740, 39297, 39567, 39796, 39228, 39741, 39394, 39419],
      "WindowCenter": [10167.0, 10147.0, 10143.0, 10133.0, 10116.0, 10093.0, 10061.0, 10086.0, 10101.0, 10114.0, 10114.0, 10113.0, 10122.0, 10100.0, 10095.0, 10092.0, 10112.0, 10120.0, 10121.0, 10093.0, 10113.0, 10106.0, 10098.0, 10083.0, 10115.0, 10141.0, 10147.0, 10166.0, 10144.0, 10123.0, 10112.0, 10119.0, 10168.0, 10183.0, 10162.0, 10126.0, 10102.0, 10092.0, 10097.0, 10102.0, 10130.0, 10123.0, 10101.0, 10090.0, 10090.0, 10100.0, 10119.0, 10124.0, 10105.0, 10085.0, 10088.0, 10102.0, 10130.0, 10134.0, 10106.0, 10085.0, 10082.0, 10103.0, 10137.0, 10135.0, 10108.0, 10084.0, 10069.0, 10082.0, 10094.0, 10101.0, 10096.0, 10111.0, 10117.0, 10091.0, 10104.0, 10125.0, 10143.0, 10151.0, 10141.0, 10135.0, 10125.0, 10146.0, 10166.0, 10151.0, 10145.0, 10148.0, 10137.0, 10132.0, 10110.0, 10093.0, 10099.0, 10099.0, 10123.0, 10090.0, 10077.0, 10082.0, 10096.0, 10120.0, 10111.0, 10102.0, 10091.0, 10079.0, 10077.0, 10069.0, 10055.0, 10077.0, 10102.0, 10135.0, 10150.0, 10119.0, 10090.0, 10074.0, 10080.0, 10113.0, 10125.0, 10109.0, 10078.0, 10059.0, 10064.0, 10086.0, 10104.0, 10117.0, 10098.0, 10078.0, 10069.0, 10085.0, 10112.0, 10122.0, 10117.0, 10098.0, 10087.0, 10080.0, 10110.0, 10121.0, 10104.0, 10093.0, 10072.0, 10096.0, 10109.0, 10100.0, 10104.0, 10096.0, 10095.0, 10114.0, 10095.0, 10092.0, 10089.0, 10103.0, 10115.0, 10096.0, 10088.0, 10072.0, 10091.0, 10102.0, 10099.0, 10084.0, 10087.0, 10083.0, 10114.0, 10101.0, 10090.0, 10086.0, 10094.0, 10128.0, 10113.0, 10093.0, 10086.0, 10089.0, 10120.0, 10113.0, 10079.0, 10080.0, 10085.0, 10092.0, 10132.0, 10134.0, 10121.0, 10100.0, 10078.0, 10090.0, 10112.0, 10119.0, 10100.0, 10082.0, 10073.0, 10098.0, 10108.0, 10113.0, 10094.0, 10110.0, 10124.0, 10123.0, 10121.0, 10139.0, 10128.0, 10105.0, 10076.0, 10078.0, 10105.0, 10100.0, 10087.0, 10082.0, 10087.0, 10122.0, 10102.0, 10073.0],
      "WindowWidth": [21499.0, 21452.0, 21428.0, 21399.0, 21356.0, 21299.0, 21238.0, 21295.0, 21325.0, 21350.0, 21349.0, 21356.0, 21372.0, 21320.0, 21301.0, 21297.0, 21344.0, 21360.0, 21359.0, 21305.0, 21350.0, 21336.0, 21313.0, 21287.0, 21349.0, 21405.0, 21421.0, 21465.0, 21418.0, 21367.0, 21343.0, 21358.0, 21467.0, 21512.0, 21461.0, 21376.0, 21318.0, 21295.0, 21305.0, 21320.0, 21386.0, 21370.0, 21311.0, 21284.0, 21289.0, 21313.0, 21359.0, 21373.0, 21327.0, 21280.0, 21284.0, 21320.0, 21392.0, 21392.0, 21328.0, 21278.0, 21272.0, 21321.0, 21407.0, 21396.0, 21332.0, 21277.0, 21245.0, 21273.0, 21302.0, 21323.0, 21314.0, 21347.0, 21355.0, 21300.0, 21329.0, 21379.0, 21419.0, 21442.0, 21417.0, 21395.0, 21373.0, 21429.0, 21473.0, 21438.0, 21418.0, 21423.0, 21414.0, 21398.0, 21343.0, 21306.0, 21314.0, 21326.0, 21374.0, 21301.0, 21268.0, 21277.0, 21317.0, 21370.0, 21345.0, 21322.0, 21296.0, 21279.0, 21273.0, 21247.0, 21220.0, 21267.0, 21321.0, 21395.0, 21432.0, 21364.0, 21300.0, 21259.0, 21268.0, 21352.0, 21380.0, 21339.0, 21268.0, 21226.0, 21237.0, 21283.0, 21334.0, 21363.0, 21318.0, 21273.0, 21254.0, 21288.0, 21352.0, 21383.0, 21365.0, 21320.0, 21294.0, 21282.0, 21354.0, 21379.0, 21337.0, 21307.0, 21262.0, 21317.0, 21349.0, 21330.0, 21332.0, 21314.0, 21324.0, 21365.0, 21320.0, 21309.0, 21303.0, 21341.0, 21368.0, 21322.0, 21296.0, 21264.0, 21308.0, 21334.0, 21322.0, 21288.0, 21290.0, 21286.0, 21353.0, 21328.0, 21299.0, 21290.0, 21318.0, 21395.0, 21358.0, 21309.0, 21290.0, 21300.0, 21375.0, 21358.0, 21282.0, 21277.0, 21288.0, 21312.0, 21404.0, 21405.0, 21368.0, 21320.0, 21270.0, 21301.0, 21358.0, 21367.0, 21324.0, 21281.0, 21264.0, 21321.0, 21344.0, 21348.0, 21315.0, 21349.0, 21375.0, 21373.0, 21376.0, 21425.0, 21394.0, 21335.0, 21269.0, 21280.0, 21342.0, 21330.0, 21296.0, 21284.0, 21298.0, 21376.0, 21336.0, 21264.0]
    },
    "slices": {}
  }
}