{
  "AcquisitionMatrixPE": 104,
  "AcquisitionNumber": 1,
  "AcquisitionTime": "16:08:24.940000",
  "BandwidthPerPixelPhaseEncode": 17.17,
  "BaseResolution": 104,
  "BodyPartExamined": "BRAIN",
  "CoilString": "HC1-7;NC1_2",
  "ConsistencyInfo": "N4_VE11C_LATEST_20160120",
  "ConversionSoftware": "dcm2niix",
  "ConversionSoftwareVersion": "v1.0.20190720  (JP2:OpenJPEG) GCC7.3.0",
  "DerivedVendorReportedEchoSpacing": 0.000560011,
  "DeviceSerialNumber": "167006",
  "DwellTime": 2.1e-06,
  "EchoTime": 0.037,
  "EchoTrainLength": 104,
  "EffectiveEchoSpacing": 0.000560011,
  "FlipAngle": 52,
  "ImageComments": "Unaliased_MB4_PE3_LB",
  "ImageOrientationPatientDICOM": [0.999007, 0.0359311, 0.0263265, -0.0237174, 0.929359, -0.368415],
  "ImageType": [
    "ORIGINAL",
    "PRIMARY",
    "M",
    "MB",
    "ND",
    "MOSAIC"
],
  "ImagingFrequency": 123.259,
  "InPlanePhaseEncodingDirectionDICOM": "COL",
  "InstitutionAddress": "Chemin_Queen-Mary_4565_Montreal_District_CA_H3W_1W5",
  "InstitutionName": "IUGM",
  "InstitutionalDepartmentName": "Department",
  "MRAcquisitionType": "2D",
  "MagneticFieldStrength": 3,
  "Manufacturer": "Siemens",
  "ManufacturersModelName": "Prisma_fit",
  "Modality": "MR",
  "MultibandAccelerationFactor": 4,
  "PartialFourier": 1,
  "PatientPosition": "HFS",
  "PercentPhaseFOV": 100,
  "PhaseEncodingDirection": "j",
  "PhaseEncodingSteps": 104,
  "PhaseResolution": 1,
  "PixelBandwidth": 2290,
  "ProcedureStepDescription": "hcptrt_generic",
  "ProtocolName": "func_task-restingstate_run-1",
  "PulseSequenceDetails": "%CustomerSeq%_cmrr_mbep2d_bold",
  "ReceiveCoilActiveElements": "HC1-7;NC1,2",
  "ReceiveCoilName": "HeadNeck_64",
  "ReconMatrixPE": 104,
  "RepetitionTime": 1.49,
  "SAR": 0.0395562,
  "ScanOptions": "FS",
  "ScanningSequence": "EP",
  "SequenceName": "epfid2d1_104",
  "SequenceVariant": "SK_SS",
  "SeriesDescription": "func_task-restingstate_run-1",
  "SeriesNumber": 11,
  "ShimSetting": [637, -7187, -8839, 672, 119, 19, -43, -13],
  "SliceThickness": 2,
  "SliceTiming": [0, 0.785, 0.1, 0.8825, 0.1975, 0.98, 0.295, 1.08, 0.3925, 1.1775, 0.49, 1.275, 0.59, 1.3725, 0.6875, 0, 0.785, 0.1, 0.8825, 0.1975, 0.98, 0.295, 1.08, 0.3925, 1.1775, 0.49, 1.275, 0.59, 1.3725, 0.6875, 0, 0.785, 0.1, 0.8825, 0.1975, 0.98, 0.295, 1.08, 0.3925, 1.1775, 0.49, 1.275, 0.59, 1.3725, 0.6875, 0, 0.785, 0.1, 0.8825, 0.1975, 0.98, 0.295, 1.08, 0.3925, 1.1775, 0.49, 1.275, 0.59, 1.3725, 0.6875],
  "SoftwareVersions": "syngo_MR_E11",
  "SpacingBetweenSlices": 2,
  "StationName": "MRC35049",
  "TaskName": "restingstate",
  "TotalReadoutTime": 0.0576811,
  "TxRefAmp": 251.431,
  "WipMemBlock": "d5b5437d-7596-423f-b768-f838292b01de||Sequence: R016 ve11c/master r/e634e98; Dec 19 2017 11:00:25 by eja",
  "dcmmeta_affine": [
    [-1.9980149269104004, -0.04743470624089241, 0.0754086971282959, 107.53617095947266],
    [-0.07186224311590195, 1.8587175607681274, -0.7348503470420837, -59.07670211791992],
    [0.05265302583575249, 0.736830472946167, 1.858577013015747, -72.49711608886719],
    [0.0, 0.0, 0.0, 1.0]
],
  "dcmmeta_reorient_transform": [
    [0.0, -1.0, 0.0, 103.0],
    [1.0, 0.0, 0.0, 0.0],
    [0.0, 0.0, 1.0, 0.0],
    [0.0, 0.0, 0.0, 1.0]
],
  "dcmmeta_shape": [104, 104, 60, 600],
  "dcmmeta_slice_dim": 2,
  "dcmmeta_version": 0.6,
  "global": {
    "const": {
      "AcquisitionMatrix": [104, 0, 0, 104],
      "AngioFlag": "N",
      "BitsAllocated": 16,
      "BitsStored": 16,
      "BodyPartExamined": "BRAIN",
      "Columns": 832,
      "EchoNumbers": 1,
      "EchoTime": 37.0,
      "EchoTrainLength": 104,
      "FlipAngle": 52.0,
      "HighBit": 15,
      "ImageOrientationPatient": [0.99900744207858, 0.03593112013398, 0.02632651282522, -0.0237173533646, 0.92935875575833, -0.3684152416021],
      "ImagePositionPatient": [-812.66158224361, -835.10223295578, 252.43702095072],
      "ImageType": [
        "ORIGINAL",
        "PRIMARY",
        "M",
        "MB",
        "ND",
        "MOSAIC"
],
      "ImagedNucleus": "1H",
      "ImagingFrequency": 123.259374,
      "InPlanePhaseEncodingDirection": "COL",
      "MRAcquisitionType": "2D",
      "MagneticFieldStrength": 3.0,
      "Manufacturer": "SIEMENS",
      "ManufacturerModelName": "Prisma_fit",
      "Modality": "MR",
      "NumberOfAverages": 1.0,
      "NumberOfPhaseEncodingSteps": 104,
      "PercentPhaseFieldOfView": 100.0,
      "PercentSampling": 100.0,
      "PerformedProcedureStepStartTime": "155657.977000",
      "PhotometricInterpretation": "MONOCHROME2",
      "PixelBandwidth": 2290.0,
      "PixelRepresentation": 0,
      "PixelSpacing": [2.0, 2.0],
      "ProtocolName": "func_task-restingstate_run-1",
      "RepetitionTime": 1490.0,
      "Rows": 832,
      "SAR": 0.03955618928293,
      "SamplesPerPixel": 1,
      "ScanOptions": "FS",
      "ScanningSequence": "EP",
      "SequenceName": "epfid2d1_104",
      "SequenceVariant": [
        "SK",
        "SS"
],
      "SeriesDescription": "func_task-restingstate_run-1",
      "SeriesNumber": 11,
      "SeriesTime": "160952.338000",
      "SliceLocation": -41.609885989492,
      "SliceThickness": 2.0,
      "SmallestImagePixelValue": 0,
      "SoftwareVersions": "syngo MR E11",
      "SpacingBetweenSlices": 2.0000000223311,
      "SpecificCharacterSet": "ISO_IR 100",
      "StudyID": "1",
      "StudyTime": "155657.900000",
      "TransmitCoilName": "Body",
      "VariableFlipAngleFlag": "N",
      "WindowCenterWidthExplanation": "Algo1",
      "dBdt": 0.0},
    "slices": {}
  },
  "time": {
    "samples": {
      "AcquisitionNumber": [1, 2, 3, 4, 5, 6, 7, 8, 9, 10, 11, 12, 13, 14, 15, 16, 17, 18, 19, 20, 21, 22, 23, 24, 25, 26, 27, 28, 29, 30, 31, 32, 33, 34, 35, 36, 37, 38, 39, 40, 41, 42, 43, 44, 45, 46, 47, 48, 49, 50, 51, 52, 53, 54, 55, 56, 57, 58, 59, 60, 61, 62, 63, 64, 65, 66, 67, 68, 69, 70, 71, 72, 73, 74, 75, 76, 77, 78, 79, 80, 81, 82, 83, 84, 85, 86, 87, 88, 89, 90, 91, 92, 93, 94, 95, 96, 97, 98, 99, 100, 101, 102, 103, 104, 105, 106, 107, 108, 109, 110, 111, 112, 113, 114, 115, 116, 117, 118, 119, 120, 121, 122, 123, 124, 125, 126, 127, 128, 129, 130, 131, 132, 133, 134, 135, 136, 137, 138, 139, 140, 141, 142, 143, 144, 145, 146, 147, 148, 149, 150, 151, 152, 153, 154, 155, 156, 157, 158, 159, 160, 161, 162, 163, 164, 165, 166, 167, 168, 169, 170, 171, 172, 173, 174, 175, 176, 177, 178, 179, 180, 181, 182, 183, 184, 185, 186, 187, 188, 189, 190, 191, 192, 193, 194, 195, 196, 197, 198, 199, 200, 201, 202, 203, 204, 205, 206, 207, 208, 209, 210, 211, 212, 213, 214, 215, 216, 217, 218, 219, 220, 221, 222, 223, 224, 225, 226, 227, 228, 229, 230, 231, 232, 233, 234, 235, 236, 237, 238, 239, 240, 241, 242, 243, 244, 245, 246, 247, 248, 249, 250, 251, 252, 253, 254, 255, 256, 257, 258, 259, 260, 261, 262, 263, 264, 265, 266, 267, 268, 269, 270, 271, 272, 273, 274, 275, 276, 277, 278, 279, 280, 281, 282, 283, 284, 285, 286, 287, 288, 289, 290, 291, 292, 293, 294, 295, 296, 297, 298, 299, 300, 301, 302, 303, 304, 305, 306, 307, 308, 309, 310, 311, 312, 313, 314, 315, 316, 317, 318, 319, 320, 321, 322, 323, 324, 325, 326, 327, 328, 329, 330, 331, 332, 333, 334, 335, 336, 337, 338, 339, 340, 341, 342, 343, 344, 345, 346, 347, 348, 349, 350, 351, 352, 353, 354, 355, 356, 357, 358, 359, 360, 361, 362, 363, 364, 365, 366, 367, 368, 369, 370, 371, 372, 373, 374, 375, 376, 377, 378, 379, 380, 381, 382, 383, 384, 385, 386, 387, 388, 389, 390, 391, 392, 393, 394, 395, 396, 397, 398, 399, 400, 401, 402, 403, 404, 405, 406, 407, 408, 409, 410, 411, 412, 413, 414, 415, 416, 417, 418, 419, 420, 421, 422, 423, 424, 425, 426, 427, 428, 429, 430, 431, 432, 433, 434, 435, 436, 437, 438, 439, 440, 441, 442, 443, 444, 445, 446, 447, 448, 449, 450, 451, 452, 453, 454, 455, 456, 457, 458, 459, 460, 461, 462, 463, 464, 465, 466, 467, 468, 469, 470, 471, 472, 473, 474, 475, 476, 477, 478, 479, 480, 481, 482, 483, 484, 485, 486, 487, 488, 489, 490, 491, 492, 493, 494, 495, 496, 497, 498, 499, 500, 501, 502, 503, 504, 505, 506, 507, 508, 509, 510, 511, 512, 513, 514, 515, 516, 517, 518, 519, 520, 521, 522, 523, 524, 525, 526, 527, 528, 529, 530, 531, 532, 533, 534, 535, 536, 537, 538, 539, 540, 541, 542, 543, 544, 545, 546, 547, 548, 549, 550, 551, 552, 553, 554, 555, 556, 557, 558, 559, 560, 561, 562, 563, 564, 565, 566, 567, 568, 569, 570, 571, 572, 573, 574, 575, 576, 577, 578, 579, 580, 581, 582, 583, 584, 585, 586, 587, 588, 589, 590, 591, 592, 593, 594, 595, 596, 597, 598, 599, 600],
      "AcquisitionTime": ["160824.940000", "160826.430000", "160827.920000", "160829.410000", "160830.900000", "160832.390000", "160833.880000", "160835.370000", "160836.860000", "160838.350000", "160839.840000", "160841.330000", "160842.820000", "160844.310000", "160845.800000", "160847.290000", "160848.780000", "160850.270000", "160851.760000", "160853.250000", "160854.740000", "160856.230000", "160857.720000", "160859.210000", "160900.700000", "160902.190000", "160903.680000", "160905.170000", "160906.660000", "160908.150000", "160909.640000", "160911.130000", "160912.620000", "160914.110000", "160915.600000", "160917.090000", "160918.580000", "160920.070000", "160921.560000", "160923.050000", "160924.540000", "160926.030000", "160927.520000", "160929.010000", "160930.500000", "160931.990000", "160933.480000", "160934.970000", "160936.460000", "160937.950000", "160939.440000", "160940.930000", "160942.420000", "160943.910000", "160945.400000", "160946.890000", "160948.380000", "160949.870000", "160951.360000", "160952.850000", "160954.340000", "160955.830000", "160957.320000", "160958.810000", "161000.300000", "161001.790000", "161003.280000", "161004.770000", "161006.260000", "161007.750000", "161009.240000", "161010.730000", "161012.220000", "161013.710000", "161015.200000", "161016.690000", "161018.180000", "161019.670000", "161021.160000", "161022.650000", "161024.140000", "161025.630000", "161027.120000", "161028.610000", "161030.100000", "161031.590000", "161033.080000", "161034.570000", "161036.060000", "161037.550000", "161039.040000", "161040.530000", "161042.020000", "161043.510000", "161045.000000", "161046.490000", "161047.980000", "161049.470000", "161050.960000", "161052.450000", "161053.940000", "161055.430000", "161056.920000", "161058.410000", "161059.900000", "161101.390000", "161102.880000", "161104.370000", "161105.860000", "161107.350000", "161108.840000", "161110.330000", "161111.820000", "161113.310000", "161114.800000", "161116.290000", "161117.780000", "161119.270000", "161120.760000", "161122.250000", "161123.740000", "161125.230000", "161126.720000", "161128.210000", "161129.700000", "161131.190000", "161132.680000", "161134.170000", "161135.660000", "161137.150000", "161138.640000", "161140.130000", "161141.620000", "161143.110000", "161144.600000", "161146.090000", "161147.580000", "161149.070000", "161150.560000", "161152.050000", "161153.540000", "161155.030000", "161156.520000", "161158.010000", "161159.500000", "161200.990000", "161202.480000", "161203.970000", "161205.460000", "161206.950000", "161208.440000", "161209.930000", "161211.420000", "161212.910000", "161214.400000", "161215.890000", "161217.380000", "161218.870000", "161220.360000", "161221.850000", "161223.340000", "161224.830000", "161226.320000", "161227.810000", "161229.300000", "161230.790000", "161232.280000", "161233.770000", "161235.260000", "161236.750000", "161238.240000", "161239.730000", "161241.220000", "161242.710000", "161244.200000", "161245.690000", "161247.180000", "161248.670000", "161250.160000", "161251.650000", "161253.140000", "161254.630000", "161256.120000", "161257.610000", "161259.100000", "161300.590000", "161302.080000", "161303.570000", "161305.060000", "161306.550000", "161308.040000", "161309.530000", "161311.020000", "161312.510000", "161314.000000", "161315.490000", "161316.980000", "161318.470000", "161319.960000", "161321.450000", "161322.940000", "161324.430000", "161325.920000", "161327.410000", "161328.900000", "161330.390000", "161331.880000", "161333.370000", "161334.860000", "161336.350000", "161337.840000", "161339.330000", "161340.820000", "161342.310000", "161343.800000", "161345.290000", "161346.780000", "161348.270000", "161349.760000", "161351.250000", "161352.740000", "161354.230000", "161355.720000", "161357.210000", "161358.700000", "161400.190000", "161401.680000", "161403.170000", "161404.660000", "161406.150000", "161407.640000", "161409.130000", "161410.620000", "161412.110000", "161413.600000", "161415.090000", "161416.580000", "161418.070000", "161419.560000", "161421.050000", "161422.540000", "161424.030000", "161425.520000", "161427.010000", "161428.500000", "161429.990000", "161431.480000", "161432.970000", "161434.460000", "161435.950000", "161437.440000", "161438.930000", "161440.420000", "161441.910000", "161443.400000", "161444.890000", "161446.380000", "161447.870000", "161449.360000", "161450.850000", "161452.340000", "161453.830000", "161455.320000", "161456.810000", "161458.300000", "161459.790000", "161501.280000", "161502.770000", "161504.260000", "161505.750000", "161507.240000", "161508.730000", "161510.220000", "161511.710000", "161513.200000", "161514.690000", "161516.180000", "161517.670000", "161519.160000", "161520.650000", "161522.140000", "161523.630000", "161525.120000", "161526.610000", "161528.100000", "161529.590000", "161531.080000", "161532.570000", "161534.060000", "161535.550000", "161537.040000", "161538.530000", "161540.020000", "161541.510000", "161543.000000", "161544.490000", "161545.980000", "161547.470000", "161548.960000", "161550.450000", "161551.940000", "161553.430000", "161554.920000", "161556.410000", "161557.900000", "161559.390000", "161600.880000", "161602.370000", "161603.860000", "161605.350000", "161606.840000", "161608.330000", "161609.820000", "161611.310000", "161612.800000", "161614.290000", "161615.780000", "161617.270000", "161618.760000", "161620.250000", "161621.740000", "161623.230000", "161624.720000", "161626.210000", "161627.700000", "161629.190000", "161630.680000", "161632.170000", "161633.660000", "161635.150000", "161636.640000", "161638.130000", "161639.620000", "161641.110000", "161642.600000", "161644.090000", "161645.580000", "161647.070000", "161648.560000", "161650.050000", "161651.540000", "161653.030000", "161654.520000", "161656.010000", "161657.500000", "161658.990000", "161700.480000", "161701.970000", "161703.460000", "161704.950000", "161706.440000", "161707.930000", "161709.420000", "161710.910000", "161712.400000", "161713.890000", "161715.380000", "161716.870000", "161718.360000", "161719.850000", "161721.340000", "161722.830000", "161724.320000", "161725.810000", "161727.300000", "161728.790000", "161730.280000", "161731.770000", "161733.260000", "161734.750000", "161736.240000", "161737.730000", "161739.220000", "161740.710000", "161742.200000", "161743.690000", "161745.180000", "161746.670000", "161748.160000", "161749.650000", "161751.140000", "161752.630000", "161754.120000", "161755.610000", "161757.100000", "161758.590000", "161800.080000", "161801.570000", "161803.060000", "161804.550000", "161806.040000", "161807.530000", "161809.020000", "161810.510000", "161812.000000", "161813.490000", "161814.980000", "161816.470000", "161817.960000", "161819.450000", "161820.940000", "161822.430000", "161823.920000", "161825.410000", "161826.900000", "161828.390000", "161829.880000", "161831.370000", "161832.860000", "161834.350000", "161835.840000", "161837.330000", "161838.820000", "161840.310000", "161841.800000", "161843.290000", "161844.780000", "161846.270000", "161847.760000", "161849.250000", "161850.740000", "161852.230000", "161853.720000", "161855.210000", "161856.700000", "161858.190000", "161859.680000", "161901.170000", "161902.660000", "161904.150000", "161905.640000", "161907.130000", "161908.620000", "161910.110000", "161911.600000", "161913.090000", "161914.580000", "161916.070000", "161917.560000", "161919.050000", "161920.540000", "161922.030000", "161923.520000", "161925.010000", "161926.500000", "161927.990000", "161929.480000", "161930.970000", "161932.460000", "161933.950000", "161935.440000", "161936.930000", "161938.420000", "161939.910000", "161941.400000", "161942.890000", "161944.380000", "161945.870000", "161947.360000", "161948.850000", "161950.340000", "161951.830000", "161953.320000", "161954.810000", "161956.300000", "161957.790000", "161959.280000", "162000.770000", "162002.260000", "162003.750000", "162005.240000", "162006.730000", "162008.220000", "162009.710000", "162011.200000", "162012.690000", "162014.180000", "162015.670000", "162017.160000", "162018.650000", "162020.140000", "162021.630000", "162023.120000", "162024.610000", "162026.100000", "162027.590000", "162029.080000", "162030.570000", "162032.060000", "162033.550000", "162035.040000", "162036.530000", "162038.020000", "162039.510000", "162041.000000", "162042.490000", "162043.980000", "162045.470000", "162046.960000", "162048.450000", "162049.940000", "162051.430000", "162052.920000", "162054.410000", "162055.900000", "162057.390000", "162058.880000", "162100.370000", "162101.860000", "162103.350000", "162104.840000", "162106.330000", "162107.820000", "162109.310000", "162110.800000", "162112.290000", "162113.780000", "162115.270000", "162116.760000", "162118.250000", "162119.740000", "162121.230000", "162122.720000", "162124.210000", "162125.700000", "162127.190000", "162128.680000", "162130.170000", "162131.660000", "162133.150000", "162134.640000", "162136.130000", "162137.620000", "162139.110000", "162140.600000", "162142.090000", "162143.580000", "162145.070000", "162146.560000", "162148.050000", "162149.540000", "162151.030000", "162152.520000", "162154.010000", "162155.500000", "162156.990000", "162158.480000", "162159.970000", "162201.460000", "162202.950000", "162204.440000", "162205.930000", "162207.420000", "162208.910000", "162210.400000", "162211.890000", "162213.380000", "162214.870000", "162216.360000", "162217.850000", "162219.340000", "162220.830000", "162222.320000", "162223.810000", "162225.300000", "162226.790000", "162228.280000", "162229.770000", "162231.260000", "162232.750000", "162234.240000", "162235.730000", "162237.220000", "162238.710000", "162240.200000", "162241.690000", "162243.180000", "162244.670000", "162246.160000", "162247.650000", "162249.140000", "162250.630000", "162252.120000", "162253.610000", "162255.100000", "162256.590000", "162258.080000", "162259.570000", "162301.060000", "162302.550000", "162304.040000", "162305.530000", "162307.020000", "162308.510000", "162310.000000", "162311.490000", "162312.980000", "162314.470000", "162315.960000", "162317.450000"],
      "ContentTime": ["160952.341000", "160952.344000", "160952.347000", "160952.350000", "160952.353000", "160952.356000", "160952.359000", "160952.362000", "160952.365000", "160952.368000", "160952.371000", "160952.374000", "160952.377000", "160952.380000", "160952.383000", "160952.386000", "160952.389000", "160952.392000", "160952.394000", "160952.397000", "160952.400000", "160952.403000", "160952.409000", "160952.412000", "160952.415000", "160952.418000", "160952.421000", "160952.424000", "160952.427000", "160952.430000", "160952.433000", "160952.436000", "161012.309000", "161012.312000", "161012.315000", "161012.318000", "161012.321000", "161012.324000", "161012.327000", "161012.330000", "161012.333000", "161012.335000", "161012.338000", "161012.341000", "161012.344000", "161012.347000", "161012.350000", "161012.353000", "161012.356000", "161012.359000", "161012.362000", "161012.365000", "161032.308000", "161032.311000", "161032.314000", "161032.317000", "161032.320000", "161032.323000", "161032.326000", "161032.329000", "161032.331000", "161032.334000", "161032.337000", "161032.340000", "161032.343000", "161032.346000", "161032.349000", "161032.352000", "161032.355000", "161032.358000", "161032.361000", "161032.364000", "161052.308000", "161052.311000", "161052.314000", "161052.317000", "161052.320000", "161052.338000", "161052.342000", "161052.344000", "161052.347000", "161052.350000", "161052.353000", "161052.356000", "161052.359000", "161052.362000", "161052.365000", "161052.368000", "161052.371000", "161052.374000", "161052.377000", "161052.380000", "161112.309000", "161112.312000", "161112.315000", "161112.318000", "161112.321000", "161112.330000", "161112.333000", "161112.336000", "161112.339000", "161112.342000", "161112.345000", "161112.348000", "161112.351000", "161112.354000", "161112.357000", "161112.360000", "161112.363000", "161112.365000", "161112.368000", "161112.371000", "161152.309000", "161152.312000", "161152.315000", "161152.318000", "161152.321000", "161152.324000", "161152.327000", "161152.330000", "161152.333000", "161152.347000", "161152.350000", "161152.353000", "161152.356000", "161152.359000", "161152.361000", "161152.364000", "161152.367000", "161152.372000", "161152.375000", "161152.378000", "161152.380000", "161152.383000", "161152.386000", "161152.389000", "161152.392000", "161152.395000", "161212.309000", "161212.312000", "161212.315000", "161212.318000", "161212.321000", "161212.324000", "161212.327000", "161212.330000", "161212.333000", "161212.336000", "161212.339000", "161212.341000", "161212.344000", "161212.347000", "161252.308000", "161252.311000", "161252.314000", "161252.317000", "161252.320000", "161252.323000", "161252.326000", "161252.329000", "161252.332000", "161252.335000", "161252.337000", "161252.340000", "161252.343000", "161252.346000", "161252.349000", "161252.352000", "161252.355000", "161252.358000", "161252.361000", "161252.364000", "161252.367000", "161252.370000", "161252.372000", "161252.375000", "161252.378000", "161252.381000", "161252.384000", "161332.309000", "161332.312000", "161332.315000", "161332.318000", "161332.321000", "161332.324000", "161332.327000", "161332.330000", "161332.334000", "161332.337000", "161332.340000", "161332.343000", "161332.346000", "161332.349000", "161332.352000", "161332.355000", "161332.358000", "161332.361000", "161332.364000", "161332.366000", "161332.369000", "161332.372000", "161332.375000", "161332.378000", "161332.381000", "161332.384000", "161412.309000", "161412.312000", "161412.315000", "161412.318000", "161412.321000", "161412.324000", "161412.327000", "161412.330000", "161412.333000", "161412.336000", "161412.339000", "161412.342000", "161412.345000", "161412.348000", "161412.351000", "161412.354000", "161412.357000", "161412.360000", "161412.363000", "161412.366000", "161412.369000", "161412.372000", "161412.375000", "161412.378000", "161412.381000", "161412.383000", "161412.386000", "161452.309000", "161452.312000", "161452.315000", "161452.318000", "161452.321000", "161452.324000", "161452.327000", "161452.330000", "161452.333000", "161452.336000", "161452.339000", "161452.342000", "161452.345000", "161452.348000", "161452.350000", "161452.353000", "161452.356000", "161452.359000", "161452.362000", "161452.365000", "161452.368000", "161452.371000", "161452.374000", "161452.377000", "161452.380000", "161452.383000", "161452.386000", "161532.308000", "161532.311000", "161532.314000", "161532.317000", "161532.320000", "161532.323000", "161532.326000", "161532.329000", "161532.332000", "161532.335000", "161532.338000", "161532.341000", "161532.344000", "161532.347000", "161532.350000", "161532.363000", "161532.366000", "161532.368000", "161532.371000", "161532.374000", "161532.377000", "161532.380000", "161532.383000", "161532.386000", "161532.389000", "161532.392000", "161532.395000", "161612.309000", "161612.312000", "161612.315000", "161612.318000", "161612.321000", "161612.324000", "161612.327000", "161612.330000", "161612.333000", "161612.336000", "161612.339000", "161612.342000", "161612.345000", "161612.348000", "161612.351000", "161612.354000", "161612.357000", "161612.359000", "161612.362000", "161612.365000", "161612.368000", "161612.371000", "161612.374000", "161612.377000", "161612.380000", "161612.383000", "161612.386000", "161652.309000", "161652.312000", "161652.315000", "161652.318000", "161652.321000", "161652.324000", "161652.327000", "161652.330000", "161652.333000", "161652.336000", "161652.338000", "161652.341000", "161652.344000", "161652.347000", "161652.350000", "161652.353000", "161652.356000", "161652.359000", "161652.362000", "161652.365000", "161652.368000", "161652.371000", "161652.374000", "161652.377000", "161652.380000", "161652.383000", "161652.386000", "161732.308000", "161732.311000", "161732.314000", "161732.317000", "161732.320000", "161732.323000", "161732.326000", "161732.329000", "161732.332000", "161732.335000", "161732.338000", "161732.341000", "161732.344000", "161732.347000", "161732.350000", "161732.353000", "161732.356000", "161732.359000", "161732.362000", "161732.365000", "161732.368000", "161732.371000", "161732.373000", "161732.376000", "161732.379000", "161732.382000", "161732.385000", "161812.309000", "161812.312000", "161812.316000", "161812.319000", "161812.322000", "161812.325000", "161812.328000", "161812.331000", "161812.334000", "161812.337000", "161812.340000", "161812.343000", "161812.346000", "161812.349000", "161812.351000", "161812.354000", "161812.357000", "161812.360000", "161812.363000", "161812.366000", "161812.369000", "161812.372000", "161812.375000", "161812.378000", "161812.381000", "161812.384000", "161852.309000", "161852.312000", "161852.315000", "161852.318000", "161852.321000", "161852.324000", "161852.327000", "161852.330000", "161852.333000", "161852.336000", "161852.339000", "161852.342000", "161852.345000", "161852.348000", "161852.350000", "161852.353000", "161852.356000", "161852.359000", "161852.362000", "161852.365000", "161852.368000", "161852.371000", "161852.374000", "161852.377000", "161852.380000", "161852.383000", "161852.386000", "161932.309000", "161932.312000", "161932.315000", "161932.318000", "161932.321000", "161932.324000", "161932.327000", "161932.330000", "161932.333000", "161932.336000", "161932.339000", "161932.342000", "161932.345000", "161932.348000", "161932.351000", "161932.354000", "161932.357000", "161932.360000", "161932.363000", "161932.366000", "161932.369000", "161932.372000", "161932.375000", "161932.378000", "161932.381000", "161932.384000", "161932.387000", "162012.308000", "162012.311000", "162012.314000", "162012.317000", "162012.320000", "162012.324000", "162012.327000", "162012.330000", "162012.333000", "162012.336000", "162012.367000", "162012.370000", "162012.373000", "162012.376000", "162012.379000", "162012.382000", "162012.385000", "162012.388000", "162012.391000", "162012.394000", "162012.397000", "162012.400000", "162012.403000", "162012.406000", "162012.409000", "162012.412000", "162012.415000", "162052.309000", "162052.312000", "162052.315000", "162052.318000", "162052.321000", "162052.324000", "162052.327000", "162052.337000", "162052.340000", "162052.343000", "162052.346000", "162052.349000", "162052.352000", "162052.355000", "162052.358000", "162052.361000", "162052.364000", "162052.367000", "162052.370000", "162052.373000", "162052.376000", "162052.379000", "162052.382000", "162052.385000", "162052.388000", "162052.391000", "162052.394000", "162132.309000", "162132.312000", "162132.315000", "162132.318000", "162132.321000", "162132.324000", "162132.327000", "162132.330000", "162132.333000", "162132.336000", "162132.339000", "162132.342000", "162132.345000", "162132.348000", "162132.351000", "162132.354000", "162132.357000", "162132.360000", "162132.363000", "162132.366000", "162132.369000", "162132.372000", "162132.374000", "162132.377000", "162132.380000", "162132.383000", "162132.386000", "162212.308000", "162212.311000", "162212.314000", "162212.317000", "162212.320000", "162212.323000", "162212.326000", "162212.329000", "162212.332000", "162212.336000", "162212.339000", "162212.342000", "162212.345000", "162212.348000", "162212.351000", "162212.354000", "162212.357000", "162212.360000", "162212.363000", "162212.366000", "162212.369000", "162212.372000", "162212.375000", "162212.378000", "162212.381000", "162212.384000", "162252.309000", "162252.312000", "162252.315000", "162252.318000", "162252.321000", "162252.324000", "162252.327000", "162252.330000", "162252.333000", "162252.336000", "162252.339000", "162252.342000", "162252.345000", "162252.348000", "162252.351000", "162252.354000", "162252.357000", "162252.360000", "162252.363000", "162252.366000", "162252.369000", "162252.372000", "162252.375000", "162252.378000", "162252.381000", "162252.383000", "162252.386000", "162319.449000", "162319.453000", "162319.456000", "162319.461000", "162319.464000", "162319.468000", "162319.471000", "162319.475000", "162319.478000", "162319.481000", "162319.484000", "162319.488000", "162319.493000", "162319.498000", "162319.501000", "162319.504000", "162319.508000", "162319.511000", "162319.514000"],
