{
  "AcquisitionMatrixPE": 104,
  "AcquisitionNumber": 1,
  "AcquisitionTime": "16:27:56.367500",
  "BandwidthPerPixelPhaseEncode": 17.17,
  "BaseResolution": 104,
  "BodyPartExamined": "BRAIN",
  "CoilString": "HC1-7;NC1_2",
  "ConsistencyInfo": "N4_VE11C_LATEST_20160120",
  "ConversionSoftware": "dcm2niix",
  "ConversionSoftwareVersion": "v1.0.20190720  (JP2:OpenJPEG) GCC7.3.0",
  "DerivedVendorReportedEchoSpacing": 0.000560011,
  "DeviceSerialNumber": "167006",
  "DwellTime": 2.1e-06,
  "EchoTime": 0.037,
  "EchoTrainLength": 104,
  "EffectiveEchoSpacing": 0.000560011,
  "FlipAngle": 52,
  "ImageComments": "Unaliased_MB4_PE3_LB",
  "ImageOrientationPatientDICOM": [0.999007, 0.0359311, 0.0263265, -0.0237174, 0.929359, -0.368415],
  "ImageType": [
    "ORIGINAL",
    "PRIMARY",
    "M",
    "MB",
    "ND",
    "MOSAIC"
],
  "ImagingFrequency": 123.259,
  "InPlanePhaseEncodingDirectionDICOM": "COL",
  "InstitutionAddress": "Chemin_Queen-Mary_4565_Montreal_District_CA_H3W_1W5",
  "InstitutionName": "IUGM",
  "InstitutionalDepartmentName": "Department",
  "MRAcquisitionType": "2D",
  "MagneticFieldStrength": 3,
  "Manufacturer": "Siemens",
  "ManufacturersModelName": "Prisma_fit",
  "Modality": "MR",
  "MultibandAccelerationFactor": 4,
  "PartialFourier": 1,
  "PatientPosition": "HFS",
  "PercentPhaseFOV": 100,
  "PhaseEncodingDirection": "j",
  "PhaseEncodingSteps": 104,
  "PhaseResolution": 1,
  "PixelBandwidth": 2290,
  "ProcedureStepDescription": "hcptrt_generic",
  "ProtocolName": "func_task-motor_run-1",
  "PulseSequenceDetails": "%CustomerSeq%_cmrr_mbep2d_bold",
  "ReceiveCoilActiveElements": "HC1-7;NC1,2",
  "ReceiveCoilName": "HeadNeck_64",
  "ReconMatrixPE": 104,
  "RepetitionTime": 1.49,
  "SAR": 0.0391561,
  "ScanOptions": "FS",
  "ScanningSequence": "EP",
  "SequenceName": "epfid2d1_104",
  "SequenceVariant": "SK_SS",
  "SeriesDescription": "func_task-motor_run-1",
  "SeriesNumber": 13,
  "ShimSetting": [637, -7187, -8839, 671, 119, 19, -43, -13],
  "SliceThickness": 2,
  "SliceTiming": [0, 0.7825, 0.0975, 0.88, 0.195, 0.98, 0.2925, 1.0775, 0.39, 1.175, 0.49, 1.2725, 0.5875, 1.37, 0.685, 0, 0.7825, 0.0975, 0.88, 0.195, 0.98, 0.2925, 1.0775, 0.39, 1.175, 0.49, 1.2725, 0.5875, 1.37, 0.685, 0, 0.7825, 0.0975, 0.88, 0.195, 0.98, 0.2925, 1.0775, 0.39, 1.175, 0.49, 1.2725, 0.5875, 1.37, 0.685, 0, 0.7825, 0.0975, 0.88, 0.195, 0.98, 0.2925, 1.0775, 0.39, 1.175, 0.49, 1.2725, 0.5875, 1.37, 0.685],
  "SoftwareVersions": "syngo_MR_E11",
  "SpacingBetweenSlices": 2,
  "StationName": "MRC35049",
  "TaskName": "motor",
  "TotalReadoutTime": 0.0576811,
  "TxRefAmp": 251.431,
  "WipMemBlock": "b02a4733-6a27-4f0d-b594-ed51c5e28d07||Sequence: R016 ve11c/master r/e634e98; Dec 19 2017 11:00:25 by eja",
  "dcmmeta_affine": [
    [-1.9980149269104004, -0.04743470624089241, 0.0754086896777153, 107.53617095947266],
    [-0.07186224311590195, 1.8587175607681274, -0.7348503470420837, -54.25742721557617],
    [0.05265302583575249, 0.736830472946167, 1.858577013015747, -66.47301483154297],
    [0.0, 0.0, 0.0, 1.0]
],
  "dcmmeta_reorient_transform": [
    [0.0, -1.0, 0.0, 103.0],
    [1.0, 0.0, 0.0, 0.0],
    [0.0, 0.0, 1.0, 0.0],
    [0.0, 0.0, 0.0, 1.0]
],
  "dcmmeta_shape": [104, 104, 60, 144],
  "dcmmeta_slice_dim": 2,
  "dcmmeta_version": 0.6,
  "global": {
    "const": {
      "AcquisitionMatrix": [104, 0, 0, 104],
      "AngioFlag": "N",
      "BitsAllocated": 16,
      "BitsStored": 16,
      "BodyPartExamined": "BRAIN",
      "Columns": 832,
      "EchoNumbers": 1,
      "EchoTime": 37.0,
      "EchoTrainLength": 104,
      "FlipAngle": 52.0,
      "HighBit": 15,
      "ImageOrientationPatient": [0.99900744207858, 0.03593112013398, 0.02632651282522, -0.0237173533646, 0.92935875575833, -0.3684152416021],
      "ImagePositionPatient": [-812.66158224361, -839.92150785812, 258.46111839335],
      "ImageType": [
        "ORIGINAL",
        "PRIMARY",
        "M",
        "MB",
        "ND",
        "MOSAIC"
],
      "ImagedNucleus": "1H",
      "ImagingFrequency": 123.259377,
      "InPlanePhaseEncodingDirection": "COL",
      "MRAcquisitionType": "2D",
      "MagneticFieldStrength": 3.0,
      "Manufacturer": "SIEMENS",
      "ManufacturerModelName": "Prisma_fit",
      "Modality": "MR",
      "NumberOfAverages": 1.0,
      "NumberOfPhaseEncodingSteps": 104,
      "PercentPhaseFieldOfView": 100.0,
      "PercentSampling": 100.0,
      "PerformedProcedureStepStartTime": "155657.977000",
      "PhotometricInterpretation": "MONOCHROME2",
      "PixelBandwidth": 2290.0,
      "PixelRepresentation": 0,
      "PixelSpacing": [2.0, 2.0],
      "ProtocolName": "func_task-motor_run-1",
      "RepetitionTime": 1490.0,
      "Rows": 832,
      "SAR": 0.03915610828791,
      "SamplesPerPixel": 1,
      "ScanOptions": "FS",
      "ScanningSequence": "EP",
      "SequenceName": "epfid2d1_104",
      "SequenceVariant": [
        "SK",
        "SS"
],
      "SeriesDescription": "func_task-motor_run-1",
      "SeriesNumber": 13,
      "SeriesTime": "162927.863000",
      "SliceLocation": -37.782484400836,
      "SliceThickness": 2.0,
      "SmallestImagePixelValue": 0,
      "SoftwareVersions": "syngo MR E11",
      "SpacingBetweenSlices": 1.9999999473995,
      "SpecificCharacterSet": "ISO_IR 100",
      "StudyID": "1",
      "StudyTime": "155657.900000",
      "TransmitCoilName": "Body",
      "VariableFlipAngleFlag": "N",
      "WindowCenterWidthExplanation": "Algo1",
      "dBdt": 0.0},
    "slices": {}
  },
  "time": {
    "samples": {
      "AcquisitionNumber": [1, 2, 3, 4, 5, 6, 7, 8, 9, 10, 11, 12, 13, 14, 15, 16, 17, 18, 19, 20, 21, 22, 23, 24, 25, 26, 27, 28, 29, 30, 31, 32, 33, 34, 35, 36, 37, 38, 39, 40, 41, 42, 43, 44, 45, 46, 47, 48, 49, 50, 51, 52, 53, 54, 55, 56, 57, 58, 59, 60, 61, 62, 63, 64, 65, 66, 67, 68, 69, 70, 71, 72, 73, 74, 75, 76, 77, 78, 79, 80, 81, 82, 83, 84, 85, 86, 87, 88, 89, 90, 91, 92, 93, 94, 95, 96, 97, 98, 99, 100, 101, 102, 103, 104, 105, 106, 107, 108, 109, 110, 111, 112, 113, 114, 115, 116, 117, 118, 119, 120, 121, 122, 123, 124, 125, 126, 127, 128, 129, 130, 131, 132, 133, 134, 135, 136, 137, 138, 139, 140, 141, 142, 143, 144],
      "AcquisitionTime": ["162756.367500", "162757.857500", "162759.347500", "162800.837500", "162802.327500", "162803.817500", "162805.307500", "162806.797500", "162808.287500", "162809.777500", "162811.267500", "162812.757500", "162814.247500", "162815.737500", "162817.227500", "162818.717500", "162820.207500", "162821.697500", "162823.187500", "162824.677500", "162826.167500", "162827.657500", "162829.147500", "162830.637500", "162832.127500", "162833.617500", "162835.107500", "162836.597500", "162838.087500", "162839.577500", "162841.067500", "162842.557500", "162844.047500", "162845.537500", "162847.027500", "162848.517500", "162850.007500", "162851.497500", "162852.987500", "162854.477500", "162855.967500", "162857.457500", "162858.947500", "162900.437500", "162901.927500", "162903.417500", "162904.907500", "162906.397500", "162907.887500", "162909.377500", "162910.867500", "162912.357500", "162913.847500", "162915.337500", "162916.827500", "162918.317500", "162919.807500", "162921.297500", "162922.787500", "162924.277500", "162925.767500", "162927.257500", "162928.747500", "162930.237500", "162931.727500", "162933.217500", "162934.707500", "162936.197500", "162937.687500", "162939.177500", "162940.667500", "162942.157500", "162943.647500", "162945.137500", "162946.627500", "162948.117500", "162949.607500", "162951.097500", "162952.587500", "162954.077500", "162955.567500", "162957.057500", "162958.547500", "163000.037500", "163001.527500", "163003.017500", "163004.507500", "163005.997500", "163007.487500", "163008.977500", "163010.467500", "163011.957500", "163013.447500", "163014.937500", "163016.427500", "163017.917500", "163019.407500", "163020.897500", "163022.387500", "163023.877500", "163025.367500", "163026.857500", "163028.347500", "163029.837500", "163031.327500", "163032.817500", "163034.307500", "163035.797500", "163037.287500", "163038.777500", "163040.267500", "163041.757500", "163043.247500", "163044.737500", "163046.227500", "163047.717500", "163049.207500", "163050.697500", "163052.187500", "163053.677500", "163055.167500", "163056.657500", "163058.147500", "163059.637500", "163101.127500", "163102.617500", "163104.107500", "163105.597500", "163107.087500", "163108.577500", "163110.067500", "163111.557500", "163113.047500", "163114.537500", "163116.027500", "163117.517500", "163119.007500", "163120.497500", "163121.987500", "163123.477500", "163124.967500", "163126.457500", "163127.947500", "163129.437500"],
      "ContentTime": ["162927.867000", "162927.871000", "162927.874000", "162927.877000", "162927.879000", "162927.895000", "162927.898000", "162927.901000", "162927.904000", "162927.907000", "162927.910000", "162927.913000", "162927.939000", "162927.942000", "162927.945000", "162927.948000", "162927.951000", "162927.954000", "162927.964000", "162927.966000", "162927.969000", "162927.972000", "162927.975000", "162927.978000", "162927.981000", "162927.984000", "162927.987000", "162927.990000", "162927.993000", "162927.996000", "162928.000000", "162928.003000", "162928.005000", "162928.008000", "162928.011000", "162947.835000", "162947.838000", "162947.841000", "162947.844000", "162947.847000", "162947.850000", "162947.853000", "162947.856000", "162947.858000", "162947.861000", "162947.871000", "162947.874000", "162947.877000", "162947.880000", "162947.883000", "162947.886000", "162947.889000", "162947.892000", "162947.895000", "162947.897000", "162947.900000", "163007.836000", "163007.839000", "163007.842000", "163007.845000", "163007.848000", "163007.851000", "163007.854000", "163007.857000", "163007.860000", "163007.863000", "163007.866000", "163007.868000", "163007.871000", "163007.874000", "163007.877000", "163007.880000", "163007.883000", "163007.886000", "163007.889000", "163007.891000", "163027.836000", "163027.839000", "163027.842000", "163027.845000", "163027.848000", "163027.851000", "163027.854000", "163027.857000", "163027.859000", "163027.862000", "163027.865000", "163027.868000", "163027.871000", "163027.874000", "163027.877000", "163027.880000", "163027.883000", "163027.886000", "163027.889000", "163027.892000", "163107.836000", "163107.839000", "163107.842000", "163107.845000", "163107.848000", "163107.852000", "163107.855000", "163107.858000", "163107.861000", "163107.864000", "163107.867000", "163107.870000", "163107.873000", "163107.876000", "163107.879000", "163107.882000", "163107.885000", "163107.888000", "163107.891000", "163107.894000", "163107.896000", "163107.899000", "163107.908000", "163107.911000", "163107.914000", "163107.917000", "163107.920000", "163107.922000", "163107.925000", "163107.928000", "163107.931000", "163131.761000", "163131.764000", "163131.768000", "163131.771000", "163131.773000", "163131.776000", "163131.780000", "163131.783000", "163131.785000", "163131.789000", "163131.792000", "163131.795000", "163131.798000", "163131.801000", "163131.804000", "163131.807000", "163131.810000"],
      "InstanceCreationTime": ["162927.867000", "162927.871000", "162927.874000", "162927.877000", "162927.879000", "162927.895000", "162927.898000", "162927.901000", "162927.904000", "162927.907000", "162927.910000", "162927.913000", "162927.939000", "162927.942000", "162927.945000", "162927.948000", "162927.951000", "162927.954000", "162927.964000", "162927.966000", "162927.969000", "162927.972000", "162927.975000", "162927.978000", "162927.981000", "162927.984000", "162927.987000", "162927.990000", "162927.993000", "162927.996000", "162928.000000", "162928.003000", "162928.005000", "162928.008000", "162928.011000", "162947.835000", "162947.838000", "162947.841000", "162947.844000", "162947.847000", "162947.850000", "162947.853000", "162947.856000", "162947.858000", "162947.861000", "162947.871000", "162947.874000", "162947.877000", "162947.880000", "162947.883000", "162947.886000", "162947.889000", "162947.892000", "162947.895000", "162947.897000", "162947.900000", "163007.836000", "163007.839000", "163007.842000", "163007.845000", "163007.848000", "163007.851000", "163007.854000", "163007.857000", "163007.860000", "163007.863000", "163007.866000", "163007.868000", "163007.871000", "163007.874000", "163007.877000", "163007.880000", "163007.883000", "163007.886000", "163007.889000", "163007.891000", "163027.836000", "163027.839000", "163027.842000", "163027.845000", "163027.848000", "163027.851000", "163027.854000", "163027.857000", "163027.859000", "163027.862000", "163027.865000", "163027.868000", "163027.871000", "163027.874000", "163027.877000", "163027.880000", "163027.883000", "163027.886000", "163027.889000", "163027.892000", "163107.836000", "163107.839000", "163107.842000", "163107.845000", "163107.848000", "163107.852000", "163107.855000", "163107.858000", "163107.861000", "163107.864000", "163107.867000", "163107.870000", "163107.873000", "163107.876000", "163107.879000", "163107.882000", "163107.885000", "163107.888000", "163107.891000", "163107.894000", "163107.896000", "163107.899000", "163107.908000", "163107.911000", "163107.914000", "163107.917000", "163107.920000", "163107.922000", "163107.925000", "163107.928000", "163107.931000", "163131.761000", "163131.764000", "163131.768000", "163131.771000", "163131.773000", "163131.776000", "163131.780000", "163131.783000", "163131.785000", "163131.789000", "163131.792000", "163131.795000", "163131.798000", "163131.801000", "163131.804000", "163131.807000", "163131.810000"],
      "InstanceNumber": [1, 2, 3, 4, 5, 6, 7, 8, 9, 10, 11, 12, 13, 14, 15, 16, 17, 18, 19, 20, 21, 22, 23, 24, 25, 26, 27, 28, 29, 30, 31, 32, 33, 34, 35, 36, 37, 38, 39, 40, 41, 42, 43, 44, 45, 46, 47, 48, 49, 50, 51, 52, 53, 54, 55, 56, 57, 58, 59, 60, 61, 62, 63, 64, 65, 66, 67, 68, 69, 70, 71, 72, 73, 74, 75, 76, 77, 78, 79, 80, 81, 82, 83, 84, 85, 86, 87, 88, 89, 90, 91, 92, 93, 94, 95, 96, 97, 98, 99, 100, 101, 102, 103, 104, 105, 106, 107, 108, 109, 110, 111, 112, 113, 114, 115, 116, 117, 118, 119, 120, 121, 122, 123, 124, 125, 126, 127, 128, 129, 130, 131, 132, 133, 134, 135, 136, 137, 138, 139, 140, 141, 142, 143, 144],
      "LargestImagePixelValue": [45407, 44418, 43819, 43546, 43067, 43132, 43242, 43338, 42958, 43351, 43175, 43009, 43439, 42672, 42659, 43517, 42875, 43167, 43313, 43513, 43097, 43192, 43284, 42878, 42767, 43361, 42959, 43273, 43409, 43212, 43414, 43807, 43082, 43322, 43448, 42952, 43596, 43321, 43332, 43485, 43063, 42925, 43273, 43425, 43306, 43656, 43591, 43542, 43480, 43050, 42992, 43437, 43000, 43347, 43273, 43338, 43491, 43252, 43069, 43748, 43121, 43102, 42721, 43644, 43370, 43681, 43696, 43437, 43559, 43295, 43167, 43202, 43178, 43397, 42863, 43409, 43103, 43493, 43524, 43461, 43328, 43429, 43220, 43488, 43531, 43268, 43305, 43692, 43240, 43319, 43445, 43349, 42820, 43255, 43668, 43525, 43166, 43176, 43621, 43117, 43170, 43462, 43431, 43178, 43427, 43255, 43281, 43442, 43397, 43541, 43219, 43705, 43164, 43377, 43175, 43486, 43381, 43229, 43496, 43428, 43587, 43177, 43262, 43138, 43341, 43303, 43660, 43316, 43312, 43335, 43148, 43450, 43335, 43365, 43404, 43223, 43379, 43139, 43224, 43167, 43313, 43250, 43308, 43460],
      "WindowCenter": [10302.0, 10241.0, 10237.0, 10248.0, 10219.0, 10199.0, 10201.0, 10226.0, 10227.0, 10221.0, 10212.0, 10206.0, 10234.0, 10253.0, 10245.0, 10222.0, 10202.0, 10194.0, 10228.0, 10272.0, 10270.0, 10255.0, 10233.0, 10216.0, 10214.0, 10203.0, 10187.0, 10203.0, 10229.0, 10257.0, 10250.0, 10230.0, 10206.0, 10239.0, 10268.0, 10246.0, 10224.0, 10212.0, 10221.0, 10215.0, 10214.0, 10217.0, 10232.0, 10256.0, 10246.0, 10232.0, 10215.0, 10229.0, 10274.0, 10264.0, 10238.0, 10231.0, 10218.0, 10214.0, 10212.0, 10230.0, 10251.0, 10244.0, 10217.0, 10231.0, 10231.0, 10224.0, 10241.0, 10241.0, 10224.0, 10229.0, 10247.0, 10232.0, 10229.0, 10231.0, 10208.0, 10190.0, 10201.0, 10220.0, 10217.0, 10231.0, 10236.0, 10253.0, 10228.0, 10206.0, 10210.0, 10220.0, 10230.0, 10250.0, 10242.0, 10222.0, 10203.0, 10226.0, 10241.0, 10233.0, 10239.0, 10236.0, 10226.0, 10224.0, 10245.0, 10248.0, 10228.0, 10218.0, 10229.0, 10243.0, 10242.0, 10242.0, 10241.0, 10225.0, 10231.0, 10243.0, 10236.0, 10236.0, 10241.0, 10241.0, 10226.0, 10236.0, 10243.0, 10243.0, 10224.0, 10221.0, 10239.0, 10233.0, 10223.0, 10230.0, 10230.0, 10223.0, 10240.0, 10243.0, 10242.0, 10242.0, 10242.0, 10234.0, 10225.0, 10232.0, 10233.0, 10213.0, 10214.0, 10250.0, 10268.0, 10237.0, 10216.0, 10224.0, 10226.0, 10225.0, 10226.0, 10234.0, 10238.0, 10225.0],
      "WindowWidth": [21822.0, 21669.0, 21652.0, 21682.0, 21609.0, 21560.0, 21560.0, 21617.0, 21625.0, 21605.0, 21586.0, 21574.0, 21636.0, 21687.0, 21667.0, 21608.0, 21579.0, 21549.0, 21629.0, 21729.0, 21721.0, 21687.0, 21634.0, 21597.0, 21593.0, 21566.0, 21533.0, 21569.0, 21628.0, 21693.0, 21674.0, 21631.0, 21574.0, 21656.0, 21722.0, 21672.0, 21616.0, 21587.0, 21609.0, 21598.0, 21593.0, 21601.0, 21633.0, 21687.0, 21667.0, 21632.0, 21597.0, 21628.0, 21734.0, 21713.0, 21649.0, 21631.0, 21603.0, 21591.0, 21588.0, 21629.0, 21680.0, 21665.0, 21599.0, 21631.0, 21630.0, 21614.0, 21655.0, 21654.0, 21612.0, 21623.0, 21666.0, 21632.0, 21623.0, 21631.0, 21580.0, 21536.0, 21562.0, 21608.0, 21605.0, 21640.0, 21652.0, 21686.0, 21627.0, 21572.0, 21582.0, 21607.0, 21630.0, 21677.0, 21658.0, 21606.0, 21562.0, 21618.0, 21656.0, 21636.0, 21648.0, 21646.0, 21622.0, 21618.0, 21671.0, 21676.0, 21629.0, 21606.0, 21627.0, 21663.0, 21657.0, 21657.0, 21655.0, 21620.0, 21631.0, 21662.0, 21647.0, 21652.0, 21659.0, 21657.0, 21626.0, 21643.0, 21666.0, 21664.0, 21616.0, 21608.0, 21653.0, 21641.0, 21614.0, 21633.0, 21630.0, 21614.0, 21654.0, 21661.0, 21656.0, 21660.0, 21659.0, 21639.0, 21617.0, 21636.0, 21643.0, 21587.0, 21592.0, 21679.0, 21717.0, 21647.0, 21597.0, 21617.0, 21624.0, 21619.0, 21625.0, 21642.0, 21652.0, 21617.0]
    },
    "slices": {}
  }
}