{
  "AcquisitionMatrixPE": 104,
  "AcquisitionNumber": 1,
  "AcquisitionTime": "16:48:21.112500",
  "BandwidthPerPixelPhaseEncode": 17.17,
  "BaseResolution": 104,
  "BodyPartExamined": "BRAIN",
  "CoilString": "HC1-7;NC1_2",
  "ConsistencyInfo": "N4_VE11C_LATEST_20160120",
  "ConversionSoftware": "dcm2niix",
  "ConversionSoftwareVersion": "v1.0.20190720  (JP2:OpenJPEG) GCC7.3.0",
  "DerivedVendorReportedEchoSpacing": 0.000560011,
  "DeviceSerialNumber": "167006",
  "DwellTime": 2.1e-06,
  "EchoTime": 0.037,
  "EchoTrainLength": 104,
  "EffectiveEchoSpacing": 0.000560011,
  "FlipAngle": 52,
  "ImageComments": "Unaliased_MB4_PE3_LB",
  "ImageOrientationPatientDICOM": [0.999962, -0.00567078, 0.00658346, 0.00767932, 0.931271, -0.364246],
  "ImageType": [
    "ORIGINAL",
    "PRIMARY",
    "M",
    "MB",
    "ND",
    "MOSAIC"
],
  "ImagingFrequency": 123.259,
  "InPlanePhaseEncodingDirectionDICOM": "COL",
  "InstitutionAddress": "Chemin_Queen-Mary_4565_Montreal_District_CA_H3W_1W5",
  "InstitutionName": "IUGM",
  "InstitutionalDepartmentName": "Department",
  "MRAcquisitionType": "2D",
  "MagneticFieldStrength": 3,
  "Manufacturer": "Siemens",
  "ManufacturersModelName": "Prisma_fit",
  "Modality": "MR",
  "MultibandAccelerationFactor": 4,
  "PartialFourier": 1,
  "PatientPosition": "HFS",
  "PercentPhaseFOV": 100,
  "PhaseEncodingDirection": "j",
  "PhaseEncodingSteps": 104,
  "PhaseResolution": 1,
  "PixelBandwidth": 2290,
  "ProcedureStepDescription": "hcptrt_generic",
  "ProtocolName": "func_task-gambling_run-2",
  "PulseSequenceDetails": "%CustomerSeq%_cmrr_mbep2d_bold",
  "ReceiveCoilActiveElements": "HC1-7;NC1,2",
  "ReceiveCoilName": "HeadNeck_64",
  "ReconMatrixPE": 104,
  "RepetitionTime": 1.49,
  "SAR": 0.0287283,
  "ScanOptions": "FS",
  "ScanningSequence": "EP",
  "SequenceName": "epfid2d1_104",
  "SequenceVariant": "SK_SS",
  "SeriesDescription": "func_task-gambling_run-2",
  "SeriesNumber": 29,
  "ShimSetting": [636, -7134, -8787, 640, 49, 186, 0, 3],
  "SliceThickness": 2,
  "SliceTiming": [0, 0.7825, 0.0975, 0.88, 0.195, 0.9775, 0.2925, 1.0775, 0.39, 1.175, 0.49, 1.2725, 0.5875, 1.37, 0.685, 0, 0.7825, 0.0975, 0.88, 0.195, 0.9775, 0.2925, 1.0775, 0.39, 1.175, 0.49, 1.2725, 0.5875, 1.37, 0.685, 0, 0.7825, 0.0975, 0.88, 0.195, 0.9775, 0.2925, 1.0775, 0.39, 1.175, 0.49, 1.2725, 0.5875, 1.37, 0.685, 0, 0.7825, 0.0975, 0.88, 0.195, 0.9775, 0.2925, 1.0775, 0.39, 1.175, 0.49, 1.2725, 0.5875, 1.37, 0.685],
  "SoftwareVersions": "syngo_MR_E11",
  "SpacingBetweenSlices": 2,
  "StationName": "MRC35049",
  "TaskName": "gambling",
  "TotalReadoutTime": 0.0576811,
  "TxRefAmp": 206.7,
  "WipMemBlock": "07dc72d7-6276-4479-a3f7-a20dd5e38163||Sequence: R016 ve11c/master r/e634e98; Dec 19 2017 11:00:25 by eja",
  "dcmmeta_affine": [
    [-1.9999245405197144, 0.015358634293079376, 0.008130858652293682, 107.99006652832031],
    [0.011341552250087261, 1.8625423908233643, -0.7285650968551636, -66.82151794433594],
    [0.013166917487978935, 0.728491485118866, 1.862559199333191, -62.40696716308594],
    [0.0, 0.0, 0.0, 1.0]
],
  "dcmmeta_reorient_transform": [
    [0.0, -1.0, 0.0, 103.0],
    [1.0, 0.0, 0.0, 0.0],
    [0.0, 0.0, 1.0, 0.0],
    [0.0, 0.0, 0.0, 1.0]
],
  "dcmmeta_shape": [104, 104, 60, 129],
  "dcmmeta_slice_dim": 2,
  "dcmmeta_version": 0.6,
  "global": {
    "const": {
      "AcquisitionMatrix": [104, 0, 0, 104],
      "AngioFlag": "N",
      "BitsAllocated": 16,
      "BitsStored": 16,
      "BodyPartExamined": "BRAIN",
      "Columns": 832,
      "EchoNumbers": 1,
      "EchoTime": 37.0,
      "EchoTrainLength": 104,
      "FlipAngle": 52.0,
      "HighBit": 15,
      "ImageOrientationPatient": [0.99996224947264, -0.0056707760384, 0.00658345872218, 0.00767931720468, 0.93127120751326, -0.3642457496582],
      "ImagePositionPatient": [-843.13506475987, -798.85746685453, 273.00580646954],
      "ImageType": [
        "ORIGINAL",
        "PRIMARY",
        "M",
        "MB",
        "ND",
        "MOSAIC"
],
      "ImagedNucleus": "1H",
      "ImagingFrequency": 123.259008,
      "InPlanePhaseEncodingDirection": "COL",
      "MRAcquisitionType": "2D",
      "MagneticFieldStrength": 3.0,
      "Manufacturer": "SIEMENS",
      "ManufacturerModelName": "Prisma_fit",
      "Modality": "MR",
      "NumberOfAverages": 1.0,
      "NumberOfPhaseEncodingSteps": 104,
      "PercentPhaseFieldOfView": 100.0,
      "PercentSampling": 100.0,
      "PerformedProcedureStepStartTime": "155450.213000",
      "PhotometricInterpretation": "MONOCHROME2",
      "PixelBandwidth": 2290.0,
      "PixelRepresentation": 0,
      "PixelSpacing": [2.0, 2.0],
      "ProtocolName": "func_task-gambling_run-2",
      "RepetitionTime": 1490.0,
      "Rows": 832,
      "SAR": 0.02872828466422,
      "SamplesPerPixel": 1,
      "ScanOptions": "FS",
      "ScanningSequence": "EP",
      "SequenceName": "epfid2d1_104",
      "SequenceVariant": [
        "SK",
        "SS"
],
      "SeriesDescription": "func_task-gambling_run-2",
      "SeriesNumber": 29,
      "SeriesTime": "164937.054000",
      "SliceLocation": -33.337395445364,
      "SliceThickness": 2.0,
      "SmallestImagePixelValue": 0,
      "SoftwareVersions": "syngo MR E11",
      "SpacingBetweenSlices": 1.9999999491493,
      "SpecificCharacterSet": "ISO_IR 100",
      "StudyID": "1",
      "StudyTime": "155450.091000",
      "TransmitCoilName": "Body",
      "VariableFlipAngleFlag": "N",
      "WindowCenterWidthExplanation": "Algo1",
      "dBdt": 0.0},
    "slices": {}
  },
  "time": {
    "samples": {
      "AcquisitionNumber": [1, 2, 3, 4, 5, 6, 7, 8, 9, 10, 11, 12, 13, 14, 15, 16, 17, 18, 19, 20, 21, 22, 23, 24, 25, 26, 27, 28, 29, 30, 31, 32, 33, 34, 35, 36, 37, 38, 39, 40, 41, 42, 43, 44, 45, 46, 47, 48, 49, 50, 51, 52, 53, 54, 55, 56, 57, 58, 59, 60, 61, 62, 63, 64, 65, 66, 67, 68, 69, 70, 71, 72, 73, 74, 75, 76, 77, 78, 79, 80, 81, 82, 83, 84, 85, 86, 87, 88, 89, 90, 91, 92, 93, 94, 95, 96, 97, 98, 99, 100, 101, 102, 103, 104, 105, 106, 107, 108, 109, 110, 111, 112, 113, 114, 115, 116, 117, 118, 119, 120, 121, 122, 123, 124, 125, 126, 127, 128, 129],
      "AcquisitionTime": ["164821.112500", "164822.602500", "164824.092500", "164825.582500", "164827.072500", "164828.562500", "164830.052500", "164831.542500", "164833.032500", "164834.522500", "164836.012500", "164837.502500", "164838.992500", "164840.482500", "164841.972500", "164843.462500", "164844.952500", "164846.442500", "164847.932500", "164849.422500", "164850.912500", "164852.402500", "164853.892500", "164855.382500", "164856.872500", "164858.362500", "164859.852500", "164901.342500", "164902.832500", "164904.322500", "164905.812500", "164907.302500", "164908.792500", "164910.282500", "164911.772500", "164913.262500", "164914.752500", "164916.242500", "164917.732500", "164919.222500", "164920.712500", "164922.202500", "164923.692500", "164925.182500", "164926.672500", "164928.162500", "164929.652500", "164931.142500", "164932.632500", "164934.122500", "164935.612500", "164937.102500", "164938.592500", "164940.082500", "164941.572500", "164943.062500", "164944.552500", "164946.042500", "164947.532500", "164949.022500", "164950.512500", "164952.002500", "164953.492500", "164954.982500", "164956.472500", "164957.962500", "164959.452500", "165000.942500", "165002.432500", "165003.922500", "165005.412500", "165006.902500", "165008.392500", "165009.882500", "165011.372500", "165012.862500", "165014.352500", "165015.842500", "165017.332500", "165018.822500", "165020.312500", "165021.802500", "165023.292500", "165024.782500", "165026.272500", "165027.762500", "165029.252500", "165030.742500", "165032.232500", "165033.722500", "165035.212500", "165036.702500", "165038.192500", "165039.682500", "165041.172500", "165042.662500", "165044.152500", "165045.642500", "165047.132500", "165048.622500", "165050.112500", "165051.602500", "165053.092500", "165054.582500", "165056.072500", "165057.562500", "165059.052500", "165100.542500", "165102.032500", "165103.522500", "165105.012500", "165106.502500", "165107.992500", "165109.482500", "165110.972500", "165112.462500", "165113.952500", "165115.442500", "165116.932500", "165118.422500", "165119.912500", "165121.402500", "165122.892500", "165124.382500", "165125.872500", "165127.362500", "165128.852500", "165130.342500", "165131.832500"],
      "ContentTime": ["164937.058000", "164937.061000", "164937.064000", "164937.067000", "164937.070000", "164937.073000", "164937.076000", "164937.085000", "164937.088000", "164937.091000", "164937.093000", "164937.096000", "164937.099000", "164937.102000", "164937.105000", "164937.108000", "164937.111000", "164937.114000", "164937.117000", "164937.120000", "164957.025000", "164957.028000", "164957.031000", "164957.034000", "164957.037000", "164957.040000", "164957.043000", "164957.046000", "164957.048000", "164957.051000", "164957.054000", "164957.057000", "164957.060000", "164957.063000", "164957.066000", "164957.069000", "164957.072000", "164957.075000", "164957.078000", "164957.081000", "165017.025000", "165017.028000", "165017.031000", "165017.034000", "165017.037000", "165017.040000", "165017.043000", "165017.046000", "165017.049000", "165017.064000", "165017.067000", "165017.070000", "165017.072000", "165017.075000", "165017.078000", "165017.081000", "165017.084000", "165017.087000", "165017.090000", "165017.093000", "165037.024000", "165037.027000", "165037.030000", "165037.033000", "165037.044000", "165037.047000", "165037.049000", "165037.052000", "165037.055000", "165037.059000", "165037.061000", "165037.064000", "165037.067000", "165037.070000", "165037.073000", "165037.076000", "165037.080000", "165037.083000", "165037.086000", "165037.089000", "165057.024000", "165057.027000", "165057.030000", "165057.033000", "165057.036000", "165057.039000", "165057.042000", "165057.045000", "165057.048000", "165057.051000", "165057.054000", "165057.057000", "165057.060000", "165057.063000", "165057.066000", "165057.069000", "165057.072000", "165057.075000", "165057.078000", "165057.081000", "165134.334000", "165134.337000", "165134.340000", "165134.343000", "165134.346000", "165134.349000", "165134.352000", "165134.356000", "165134.359000", "165134.362000", "165134.365000", "165134.368000", "165134.371000", "165134.374000", "165134.377000", "165134.380000", "165134.384000", "165134.387000", "165134.389000", "165134.392000", "165134.395000", "165134.398000", "165134.401000", "165134.404000", "165134.407000", "165134.410000", "165134.413000", "165134.416000", "165134.419000"],
      "InstanceCreationTime": ["164937.058000", "164937.061000", "164937.064000", "164937.067000", "164937.070000", "164937.073000", "164937.076000", "164937.085000", "164937.088000", "164937.091000", "164937.093000", "164937.096000", "164937.099000", "164937.102000", "164937.105000", "164937.108000", "164937.111000", "164937.114000", "164937.117000", "164937.120000", "164957.025000", "164957.028000", "164957.031000", "164957.034000", "164957.037000", "164957.040000", "164957.043000", "164957.046000", "164957.048000", "164957.051000", "164957.054000", "164957.057000", "164957.060000", "164957.063000", "164957.066000", "164957.069000", "164957.072000", "164957.075000", "164957.078000", "164957.081000", "165017.025000", "165017.028000", "165017.031000", "165017.034000", "165017.037000", "165017.040000", "165017.043000", "165017.046000", "165017.049000", "165017.064000", "165017.067000", "165017.070000", "165017.072000", "165017.075000", "165017.078000", "165017.081000", "165017.084000", "165017.087000", "165017.090000", "165017.093000", "165037.024000", "165037.027000", "165037.030000", "165037.033000", "165037.044000", "165037.047000", "165037.049000", "165037.052000", "165037.055000", "165037.059000", "165037.061000", "165037.064000", "165037.067000", "165037.070000", "165037.073000", "165037.076000", "165037.080000", "165037.083000", "165037.086000", "165037.089000", "165057.024000", "165057.027000", "165057.030000", "165057.033000", "165057.036000", "165057.039000", "165057.042000", "165057.045000", "165057.048000", "165057.051000", "165057.054000", "165057.057000", "165057.060000", "165057.063000", "165057.066000", "165057.069000", "165057.072000", "165057.075000", "165057.078000", "165057.081000", "165134.334000", "165134.337000", "165134.340000", "165134.343000", "165134.346000", "165134.349000", "165134.352000", "165134.356000", "165134.359000", "165134.362000", "165134.365000", "165134.368000", "165134.371000", "165134.374000", "165134.377000", "165134.380000", "165134.384000", "165134.387000", "165134.389000", "165134.392000", "165134.395000", "165134.398000", "165134.401000", "165134.404000", "165134.407000", "165134.410000", "165134.413000", "165134.416000", "165134.419000"],
      "InstanceNumber": [1, 2, 3, 4, 5, 6, 7, 8, 9, 10, 11, 12, 13, 14, 15, 16, 17, 18, 19, 20, 21, 22, 23, 24, 25, 26, 27, 28, 29, 30, 31, 32, 33, 34, 35, 36, 37, 38, 39, 40, 41, 42, 43, 44, 45, 46, 47, 48, 49, 50, 51, 52, 53, 54, 55, 56, 57, 58, 59, 60, 61, 62, 63, 64, 65, 66, 67, 68, 69, 70, 71, 72, 73, 74, 75, 76, 77, 78, 79, 80, 81, 82, 83, 84, 85, 86, 87, 88, 89, 90, 91, 92, 93, 94, 95, 96, 97, 98, 99, 100, 101, 102, 103, 104, 105, 106, 107, 108, 109, 110, 111, 112, 113, 114, 115, 116, 117, 118, 119, 120, 121, 122, 123, 124, 125, 126, 127, 128, 129],
      "LargestImagePixelValue": [39972, 39060, 38119, 37509, 38173, 38088, 37825, 37722, 37233, 37963, 37289, 37470, 36993, 37227, 37090, 37480, 37698, 37849, 37489, 37659, 37414, 37610, 37573, 37428, 36932, 36922, 37576, 37192, 37435, 36762, 37263, 36563, 37412, 36887, 37005, 37683, 37285, 37415, 37164, 37312, 36822, 37415, 36930, 37257, 36833, 37458, 36658, 37339, 36521, 37322, 36433, 37239, 36776, 36971, 36545, 36860, 36662, 36645, 36414, 36834, 36458, 36742, 36932, 36825, 37036, 36670, 37060, 36770, 36922, 37370, 36879, 36821, 36697, 37015, 36395, 37030, 37032, 37223, 36854, 36829, 36149, 36606, 36468, 36666, 36679, 36567, 37333, 36580, 36989, 36534, 36695, 36742, 36519, 36726, 36287, 36199, 35818, 36306, 36515, 37092, 36209, 36838, 36406, 36936, 36921, 36451, 37071, 36315, 37005, 36862, 36811, 36335, 36580, 36879, 37287, 36676, 36966, 36357, 36173, 36441, 36012, 36306, 36282, 36729, 36843, 36452, 36776, 36411, 36761],
      "WindowCenter": [9852.0, 9823.0, 9807.0, 9799.0, 9796.0, 9795.0, 9795.0, 9796.0, 9796.0, 9802.0, 9795.0, 9787.0, 9781.0, 9787.0, 9796.0, 9796.0, 9795.0, 9794.0, 9804.0, 9812.0, 9805.0, 9793.0, 9786.0, 9784.0, 9773.0, 9777.0, 9785.0, 9785.0, 9784.0, 9772.0, 9769.0, 9772.0, 9776.0, 9764.0, 9762.0, 9775.0, 9783.0, 9800.0, 9799.0, 9789.0, 9773.0, 9767.0, 9754.0, 9759.0, 9768.0, 9777.0, 9788.0, 9780.0, 9764.0, 9757.0, 9744.0, 9759.0, 9769.0, 9769.0, 9755.0, 9760.0, 9762.0, 9761.0, 9755.0, 9755.0, 9763.0, 9770.0, 9771.0, 9768.0, 9768.0, 9772.0, 9789.0, 9793.0, 9775.0, 9771.0, 9762.0, 9772.0, 9781.0, 9782.0, 9775.0, 9779.0, 9786.0, 9797.0, 9790.0, 9782.0, 9766.0, 9758.0, 9765.0, 9772.0, 9775.0, 9775.0, 9778.0, 9765.0, 9777.0, 9773.0, 9781.0, 9782.0, 9765.0, 9755.0, 9747.0, 9754.0, 9748.0, 9756.0, 9772.0, 9778.0, 9769.0, 9772.0, 9782.0, 9800.0, 9809.0, 9795.0, 9798.0, 9786.0, 9798.0, 9786.0, 9783.0, 9774.0, 9789.0, 9791.0, 9789.0, 9774.0, 9764.0, 9762.0, 9766.0, 9780.0, 9768.0, 9751.0, 9741.0, 9743.0, 9752.0, 9762.0, 9773.0, 9767.0, 9763.0],
      "WindowWidth": [20864.0, 20786.0, 20745.0, 20723.0, 20709.0, 20706.0, 20704.0, 20706.0, 20706.0, 20714.0, 20703.0, 20685.0, 20676.0, 20689.0, 20708.0, 20708.0, 20701.0, 20699.0, 20722.0, 20740.0, 20726.0, 20696.0, 20680.0, 20676.0, 20660.0, 20663.0, 20681.0, 20679.0, 20675.0, 20654.0, 20647.0, 20655.0, 20660.0, 20637.0, 20632.0, 20655.0, 20673.0, 20710.0, 20714.0, 20690.0, 20655.0, 20637.0, 20615.0, 20623.0, 20641.0, 20665.0, 20691.0, 20670.0, 20636.0, 20616.0, 20593.0, 20622.0, 20644.0, 20644.0, 20616.0, 20624.0, 20630.0, 20626.0, 20615.0, 20617.0, 20635.0, 20648.0, 20650.0, 20641.0, 20640.0, 20655.0, 20691.0, 20700.0, 20661.0, 20648.0, 20630.0, 20653.0, 20675.0, 20676.0, 20663.0, 20667.0, 20681.0, 20706.0, 20691.0, 20675.0, 20642.0, 20624.0, 20640.0, 20654.0, 20664.0, 20664.0, 20663.0, 20640.0, 20660.0, 20654.0, 20672.0, 20673.0, 20637.0, 20612.0, 20597.0, 20611.0, 20600.0, 20619.0, 20653.0, 20664.0, 20650.0, 20654.0, 20677.0, 20721.0, 20739.0, 20709.0, 20709.0, 20688.0, 20708.0, 20688.0, 20678.0, 20661.0, 20692.0, 20697.0, 20687.0, 20657.0, 20635.0, 20631.0, 20641.0, 20671.0, 20648.0, 20606.0, 20585.0, 20585.0, 20606.0, 20628.0, 20658.0, 20645.0, 20635.0]
    },
    "slices": {}
  }
}