{
  "AcquisitionMatrixPE": 104,
  "AcquisitionNumber": 1,
  "AcquisitionTime": "16:56:8.925000",
  "BandwidthPerPixelPhaseEncode": 17.17,
  "BaseResolution": 104,
  "BodyPartExamined": "BRAIN",
  "CoilString": "HC1-7;NC1_2",
  "ConsistencyInfo": "N4_VE11C_LATEST_20160120",
  "ConversionSoftware": "dcm2niix",
  "ConversionSoftwareVersion": "v1.0.20190720  (JP2:OpenJPEG) GCC7.3.0",
  "DerivedVendorReportedEchoSpacing": 0.000560011,
  "DeviceSerialNumber": "167006",
  "DwellTime": 2.1e-06,
  "EchoTime": 0.037,
  "EchoTrainLength": 104,
  "EffectiveEchoSpacing": 0.000560011,
  "FlipAngle": 52,
  "ImageComments": "Unaliased_MB4_PE3_LB",
  "ImageOrientationPatientDICOM": [0.999962, -0.00567078, 0.00658346, 0.00767932, 0.931271, -0.364246],
  "ImageType": [
    "ORIGINAL",
    "PRIMARY",
    "M",
    "MB",
    "ND",
    "MOSAIC"
],
  "ImagingFrequency": 123.259,
  "InPlanePhaseEncodingDirectionDICOM": "COL",
  "InstitutionAddress": "Chemin_Queen-Mary_4565_Montreal_District_CA_H3W_1W5",
  "InstitutionName": "IUGM",
  "InstitutionalDepartmentName": "Department",
  "MRAcquisitionType": "2D",
  "MagneticFieldStrength": 3,
  "Manufacturer": "Siemens",
  "ManufacturersModelName": "Prisma_fit",
  "Modality": "MR",
  "MultibandAccelerationFactor": 4,
  "PartialFourier": 1,
  "PatientPosition": "HFS",
  "PercentPhaseFOV": 100,
  "PhaseEncodingDirection": "j",
  "PhaseEncodingSteps": 104,
  "PhaseResolution": 1,
  "PixelBandwidth": 2290,
  "ProcedureStepDescription": "hcptrt_generic",
  "ProtocolName": "func_task-language_run-2",
  "PulseSequenceDetails": "%CustomerSeq%_cmrr_mbep2d_bold",
  "ReceiveCoilActiveElements": "HC1-7;NC1,2",
  "ReceiveCoilName": "HeadNeck_64",
  "ReconMatrixPE": 104,
  "RepetitionTime": 1.49,
  "SAR": 0.0288068,
  "ScanOptions": "FS",
  "ScanningSequence": "EP",
  "SequenceName": "epfid2d1_104",
  "SequenceVariant": "SK_SS",
  "SeriesDescription": "func_task-language_run-2",
  "SeriesNumber": 33,
  "ShimSetting": [636, -7134, -8787, 640, 49, 186, 0, 3],
  "SliceThickness": 2,
  "SliceTiming": [0, 0.785, 0.1, 0.8825, 0.1975, 0.98, 0.295, 1.08, 0.3925, 1.1775, 0.49, 1.275, 0.59, 1.3725, 0.6875, 0, 0.785, 0.1, 0.8825, 0.1975, 0.98, 0.295, 1.08, 0.3925, 1.1775, 0.49, 1.275, 0.59, 1.3725, 0.6875, 0, 0.785, 0.1, 0.8825, 0.1975, 0.98, 0.295, 1.08, 0.3925, 1.1775, 0.49, 1.275, 0.59, 1.3725, 0.6875, 0, 0.785, 0.1, 0.8825, 0.1975, 0.98, 0.295, 1.08, 0.3925, 1.1775, 0.49, 1.275, 0.59, 1.3725, 0.6875],
  "SoftwareVersions": "syngo_MR_E11",
  "SpacingBetweenSlices": 2,
  "StationName": "MRC35049",
  "TaskName": "language",
  "TotalReadoutTime": 0.0576811,
  "TxRefAmp": 206.7,
  "WipMemBlock": "e6af576a-6c5a-4eff-afd2-b50a41a5a72c||Sequence: R016 ve11c/master r/e634e98; Dec 19 2017 11:00:25 by eja",
  "dcmmeta_affine": [
    [-1.9999245405197144, 0.015358634293079376, 0.008130858652293682, 107.99006652832031],
    [0.011341552250087261, 1.8625423908233643, -0.7285650968551636, -66.82151794433594],
    [0.013166917487978935, 0.728491485118866, 1.862559199333191, -62.40696716308594],
    [0.0, 0.0, 0.0, 1.0]
],
  "dcmmeta_reorient_transform": [
    [0.0, -1.0, 0.0, 103.0],
    [1.0, 0.0, 0.0, 0.0],
    [0.0, 0.0, 1.0, 0.0],
    [0.0, 0.0, 0.0, 1.0]
],
  "dcmmeta_shape": [104, 104, 60, 159],
  "dcmmeta_slice_dim": 2,
  "dcmmeta_version": 0.6,
  "global": {
    "const": {
      "AcquisitionMatrix": [104, 0, 0, 104],
      "AngioFlag": "N",
      "BitsAllocated": 16,
      "BitsStored": 16,
      "BodyPartExamined": "BRAIN",
      "Columns": 832,
      "EchoNumbers": 1,
      "EchoTime": 37.0,
      "EchoTrainLength": 104,
      "FlipAngle": 52.0,
      "HighBit": 15,
      "ImageOrientationPatient": [0.99996224947264, -0.0056707760384, 0.00658345872218, 0.00767931720468, 0.93127120751326, -0.3642457496582],
      "ImagePositionPatient": [-843.13506475987, -798.85746685453, 273.00580646954],
      "ImageType": [
        "ORIGINAL",
        "PRIMARY",
        "M",
        "MB",
        "ND",
        "MOSAIC"
],
      "ImagedNucleus": "1H",
      "ImagingFrequency": 123.259009,
      "InPlanePhaseEncodingDirection": "COL",
      "MRAcquisitionType": "2D",
      "MagneticFieldStrength": 3.0,
      "Manufacturer": "SIEMENS",
      "ManufacturerModelName": "Prisma_fit",
      "Modality": "MR",
      "NumberOfAverages": 1.0,
      "NumberOfPhaseEncodingSteps": 104,
      "PercentPhaseFieldOfView": 100.0,
      "PercentSampling": 100.0,
      "PerformedProcedureStepStartTime": "155450.213000",
      "PhotometricInterpretation": "MONOCHROME2",
      "PixelBandwidth": 2290.0,
      "PixelRepresentation": 0,
      "PixelSpacing": [2.0, 2.0],
      "ProtocolName": "func_task-language_run-2",
      "RepetitionTime": 1490.0,
      "Rows": 832,
      "SAR": 0.02880680491044,
      "SamplesPerPixel": 1,
      "ScanOptions": "FS",
      "ScanningSequence": "EP",
      "SequenceName": "epfid2d1_104",
      "SequenceVariant": [
        "SK",
        "SS"
],
      "SeriesDescription": "func_task-language_run-2",
      "SeriesNumber": 33,
      "SeriesTime": "165727.096000",
      "SliceLocation": -33.337395445364,
      "SliceThickness": 2.0,
      "SmallestImagePixelValue": 0,
      "SoftwareVersions": "syngo MR E11",
      "SpacingBetweenSlices": 1.9999999491493,
      "SpecificCharacterSet": "ISO_IR 100",
      "StudyID": "1",
      "StudyTime": "155450.091000",
      "TransmitCoilName": "Body",
      "VariableFlipAngleFlag": "N",
      "WindowCenterWidthExplanation": "Algo1",
      "dBdt": 0.0},
    "slices": {}
  },
  "time": {
    "samples": {
      "AcquisitionNumber": [1, 2, 3, 4, 5, 6, 7, 8, 9, 10, 11, 12, 13, 14, 15, 16, 17, 18, 19, 20, 21, 22, 23, 24, 25, 26, 27, 28, 29, 30, 31, 32, 33, 34, 35, 36, 37, 38, 39, 40, 41, 42, 43, 44, 45, 46, 47, 48, 49, 50, 51, 52, 53, 54, 55, 56, 57, 58, 59, 60, 61, 62, 63, 64, 65, 66, 67, 68, 69, 70, 71, 72, 73, 74, 75, 76, 77, 78, 79, 80, 81, 82, 83, 84, 85, 86, 87, 88, 89, 90, 91, 92, 93, 94, 95, 96, 97, 98, 99, 100, 101, 102, 103, 104, 105, 106, 107, 108, 109, 110, 111, 112, 113, 114, 115, 116, 117, 118, 119, 120, 121, 122, 123, 124, 125, 126, 127, 128, 129, 130, 131, 132, 133, 134, 135, 136, 137, 138, 139, 140, 141, 142, 143, 144, 145, 146, 147, 148, 149, 150, 151, 152, 153, 154, 155, 156, 157, 158, 159],
      "AcquisitionTime": ["165608.925000", "165610.415000", "165611.905000", "165613.395000", "165614.885000", "165616.375000", "165617.865000", "165619.355000", "165620.845000", "165622.335000", "165623.825000", "165625.315000", "165626.805000", "165628.295000", "165629.785000", "165631.275000", "165632.765000", "165634.255000", "165635.745000", "165637.235000", "165638.725000", "165640.215000", "165641.705000", "165643.195000", "165644.685000", "165646.175000", "165647.665000", "165649.155000", "165650.645000", "165652.135000", "165653.625000", "165655.115000", "165656.605000", "165658.095000", "165659.585000", "165701.075000", "165702.565000", "165704.055000", "165705.545000", "165707.035000", "165708.525000", "165710.015000", "165711.505000", "165712.995000", "165714.485000", "165715.975000", "165717.465000", "165718.955000", "165720.445000", "165721.935000", "165723.425000", "165724.915000", "165726.405000", "165727.895000", "165729.385000", "165730.875000", "165732.365000", "165733.855000", "165735.345000", "165736.835000", "165738.325000", "165739.815000", "165741.305000", "165742.795000", "165744.285000", "165745.775000", "165747.265000", "165748.755000", "165750.245000", "165751.735000", "165753.225000", "165754.715000", "165756.205000", "165757.695000", "165759.185000", "165800.675000", "165802.165000", "165803.655000", "165805.145000", "165806.635000", "165808.125000", "165809.615000", "165811.105000", "165812.595000", "165814.085000", "165815.575000", "165817.065000", "165818.555000", "165820.045000", "165821.535000", "165823.025000", "165824.515000", "165826.005000", "165827.495000", "165828.985000", "165830.475000", "165831.965000", "165833.455000", "165834.945000", "165836.435000", "165837.925000", "165839.415000", "165840.905000", "165842.395000", "165843.885000", "165845.375000", "165846.865000", "165848.355000", "165849.845000", "165851.335000", "165852.825000", "165854.315000", "165855.805000", "165857.295000", "165858.785000", "165900.275000", "165901.765000", "165903.255000", "165904.745000", "165906.235000", "165907.725000", "165909.215000", "165910.705000", "165912.195000", "165913.685000", "165915.175000", "165916.665000", "165918.155000", "165919.645000", "165921.135000", "165922.625000", "165924.115000", "165925.605000", "165927.095000", "165928.585000", "165930.075000", "165931.565000", "165933.055000", "165934.545000", "165936.035000", "165937.525000", "165939.015000", "165940.505000", "165941.995000", "165943.485000", "165944.975000", "165946.465000", "165947.955000", "165949.445000", "165950.935000", "165952.425000", "165953.915000", "165955.405000", "165956.895000", "165958.385000", "165959.875000", "170001.365000", "170002.855000", "170004.345000"],
      "ContentTime": ["165727.099000", "165727.108000", "165727.115000", "165727.118000", "165727.121000", "165727.124000", "165727.127000", "165727.129000", "165727.132000", "165727.135000", "165727.138000", "165727.141000", "165727.144000", "165727.147000", "165727.150000", "165727.153000", "165727.156000", "165727.159000", "165727.170000", "165727.173000", "165727.175000", "165727.178000", "165727.182000", "165727.184000", "165747.079000", "165747.082000", "165747.085000", "165747.088000", "165747.091000", "165747.094000", "165747.097000", "165747.100000", "165747.103000", "165747.106000", "165747.109000", "165747.112000", "165747.114000", "165747.118000", "165747.121000", "165747.130000", "165747.133000", "165747.136000", "165747.139000", "165747.142000", "165807.065000", "165807.068000", "165807.071000", "165807.074000", "165807.077000", "165807.080000", "165807.083000", "165807.086000", "165807.089000", "165807.092000", "165807.095000", "165807.098000", "165807.101000", "165807.104000", "165807.107000", "165807.110000", "165807.113000", "165807.116000", "165807.119000", "165807.122000", "165827.065000", "165827.068000", "165827.071000", "165827.074000", "165827.078000", "165827.081000", "165827.084000", "165827.087000", "165827.089000", "165827.093000", "165827.095000", "165827.098000", "165827.101000", "165827.109000", "165827.112000", "165827.115000", "165827.118000", "165827.121000", "165827.124000", "165827.127000", "165847.065000", "165847.068000", "165847.071000", "165847.074000", "165847.077000", "165847.080000", "165847.083000", "165847.086000", "165847.089000", "165847.092000", "165847.095000", "165847.098000", "165847.101000", "165847.104000", "165847.107000", "165847.110000", "165847.113000", "165847.116000", "165847.119000", "165847.122000", "165847.125000", "165927.065000", "165927.068000", "165927.071000", "165927.074000", "165927.077000", "165927.080000", "165927.083000", "165927.086000", "165927.089000", "165927.099000", "165927.102000", "165927.105000", "165927.108000", "165927.111000", "165927.114000", "165927.117000", "165927.120000", "165927.123000", "165927.126000", "165927.129000", "165927.132000", "165927.135000", "165927.138000", "165927.141000", "165927.144000", "165927.147000", "165927.150000", "170006.035000", "170006.039000", "170006.042000", "170006.045000", "170006.048000", "170006.051000", "170006.054000", "170006.057000", "170006.060000", "170006.063000", "170006.066000", "170006.069000", "170006.072000", "170006.075000", "170006.078000", "170006.081000", "170006.085000", "170006.088000", "170006.091000", "170006.094000", "170006.097000", "170006.100000", "170006.103000", "170006.106000", "170006.109000", "170006.112000", "170006.115000"],
      "InstanceCreationTime": ["165727.099000", "165727.108000", "165727.115000", "165727.118000", "165727.121000", "165727.124000", "165727.127000", "165727.129000", "165727.132000", "165727.135000", "165727.138000", "165727.141000", "165727.144000", "165727.147000", "165727.150000", "165727.153000", "165727.156000", "165727.159000", "165727.170000", "165727.173000", "165727.175000", "165727.178000", "165727.182000", "165727.184000", "165747.079000", "165747.082000", "165747.085000", "165747.088000", "165747.091000", "165747.094000", "165747.097000", "165747.100000", "165747.103000", "165747.106000", "165747.109000", "165747.112000", "165747.114000", "165747.118000", "165747.121000", "165747.130000", "165747.133000", "165747.136000", "165747.139000", "165747.142000", "165807.065000", "165807.068000", "165807.071000", "165807.074000", "165807.077000", "165807.080000", "165807.083000", "165807.086000", "165807.089000", "165807.092000", "165807.095000", "165807.098000", "165807.101000", "165807.104000", "165807.107000", "165807.110000", "165807.113000", "165807.116000", "165807.119000", "165807.122000", "165827.065000", "165827.068000", "165827.071000", "165827.074000", "165827.078000", "165827.081000", "165827.084000", "165827.087000", "165827.089000", "165827.093000", "165827.095000", "165827.098000", "165827.101000", "165827.109000", "165827.112000", "165827.115000", "165827.118000", "165827.121000", "165827.124000", "165827.127000", "165847.065000", "165847.068000", "165847.071000", "165847.074000", "165847.077000", "165847.080000", "165847.083000", "165847.086000", "165847.089000", "165847.092000", "165847.095000", "165847.098000", "165847.101000", "165847.104000", "165847.107000", "165847.110000", "165847.113000", "165847.116000", "165847.119000", "165847.122000", "165847.125000", "165927.065000", "165927.068000", "165927.071000", "165927.074000", "165927.077000", "165927.080000", "165927.083000", "165927.086000", "165927.089000", "165927.099000", "165927.102000", "165927.105000", "165927.108000", "165927.111000", "165927.114000", "165927.117000", "165927.120000", "165927.123000", "165927.126000", "165927.129000", "165927.132000", "165927.135000", "165927.138000", "165927.141000", "165927.144000", "165927.147000", "165927.150000", "170006.035000", "170006.039000", "170006.042000", "170006.045000", "170006.048000", "170006.051000", "170006.054000", "170006.057000", "170006.060000", "170006.063000", "170006.066000", "170006.069000", "170006.072000", "170006.075000", "170006.078000", "170006.081000", "170006.085000", "170006.088000", "170006.091000", "170006.094000", "170006.097000", "170006.100000", "170006.103000", "170006.106000", "170006.109000", "170006.112000", "170006.115000"],
      "InstanceNumber": [1, 2, 3, 4, 5, 6, 7, 8, 9, 10, 11, 12, 13, 14, 15, 16, 17, 18, 19, 20, 21, 22, 23, 24, 25, 26, 27, 28, 29, 30, 31, 32, 33, 34, 35, 36, 37, 38, 39, 40, 41, 42, 43, 44, 45, 46, 47, 48, 49, 50, 51, 52, 53, 54, 55, 56, 57, 58, 59, 60, 61, 62, 63, 64, 65, 66, 67, 68, 69, 70, 71, 72, 73, 74, 75, 76, 77, 78, 79, 80, 81, 82, 83, 84, 85, 86, 87, 88, 89, 90, 91, 92, 93, 94, 95, 96, 97, 98, 99, 100, 101, 102, 103, 104, 105, 106, 107, 108, 109, 110, 111, 112, 113, 114, 115, 116, 117, 118, 119, 120, 121, 122, 123, 124, 125, 126, 127, 128, 129, 130, 131, 132, 133, 134, 135, 136, 137, 138, 139, 140, 141, 142, 143, 144, 145, 146, 147, 148, 149, 150, 151, 152, 153, 154, 155, 156, 157, 158, 159],
      "LargestImagePixelValue": [38489, 37556, 36512, 36726, 36294, 35927, 35641, 36219, 36113, 36641, 36211, 36409, 35914, 35685, 36408, 35906, 37271, 35742, 36474, 36853, 35610, 36524, 36345, 36444, 36695, 36261, 36856, 36518, 36843, 36332, 36145, 36650, 36534, 37463, 36751, 37387, 36972, 36911, 37052, 36850, 36633, 36453, 36701, 36341, 36660, 36673, 36173, 36067, 36518, 36378, 36987, 36157, 36379, 35837, 36723, 36435, 36631, 36638, 36166, 35650, 36458, 36169, 35622, 36459, 35931, 36232, 36126, 36040, 35801, 36269, 35919, 35829, 35742, 35809, 35874, 36019, 36132, 35765, 36151, 35928, 36217, 35675, 36474, 36294, 36409, 36089, 36160, 36443, 35877, 36187, 35746, 36162, 36132, 36525, 36067, 35887, 36002, 36141, 35923, 35760, 36153, 36122, 37409, 36058, 36262, 36528, 36006, 35871, 36067, 36002, 36140, 36246, 36342, 35795, 36977, 36188, 36599, 36587, 35812, 36651, 35878, 36251, 35847, 36294, 36057, 36361, 36330, 35900, 36189, 36312, 36117, 36518, 36573, 36483, 36387, 36338, 36800, 36237, 36519, 35630, 35788, 36248, 36465, 36603, 35957, 36246, 36995, 36565, 36127, 36595, 35509, 36801, 36353, 36007, 36189, 36048, 35835, 36196, 36265],
      "WindowCenter": [9847.0, 9816.0, 9792.0, 9795.0, 9796.0, 9788.0, 9780.0, 9787.0, 9796.0, 9810.0, 9804.0, 9794.0, 9778.0, 9767.0, 9781.0, 9770.0, 9789.0, 9780.0, 9778.0, 9766.0, 9752.0, 9767.0, 9784.0, 9794.0, 9802.0, 9790.0, 9791.0, 9777.0, 9773.0, 9773.0, 9775.0, 9782.0, 9793.0, 9806.0, 9802.0, 9798.0, 9790.0, 9776.0, 9788.0, 9785.0, 9792.0, 9784.0, 9782.0, 9766.0, 9762.0, 9761.0, 9767.0, 9784.0, 9803.0, 9796.0, 9783.0, 9743.0, 9732.0, 9731.0, 9750.0, 9763.0, 9767.0, 9768.0, 9760.0, 9758.0, 9757.0, 9748.0, 9736.0, 9745.0, 9750.0, 9765.0, 9767.0, 9759.0, 9751.0, 9741.0, 9741.0, 9750.0, 9750.0, 9743.0, 9740.0, 9746.0, 9746.0, 9742.0, 9757.0, 9758.0, 9757.0, 9745.0, 9747.0, 9756.0, 9757.0, 9773.0, 9778.0, 9777.0, 9762.0, 9757.0, 9748.0, 9739.0, 9757.0, 9772.0, 9776.0, 9760.0, 9747.0, 9738.0, 9737.0, 9739.0, 9754.0, 9756.0, 9778.0, 9768.0, 9761.0, 9756.0, 9757.0, 9758.0, 9766.0, 9759.0, 9757.0, 9749.0, 9747.0, 9740.0, 9752.0, 9752.0, 9765.0, 9782.0, 9771.0, 9765.0, 9752.0, 9757.0, 9744.0, 9738.0, 9736.0, 9746.0, 9764.0, 9761.0, 9767.0, 9749.0, 9745.0, 9750.0, 9755.0, 9754.0, 9756.0, 9753.0, 9751.0, 9747.0, 9748.0, 9742.0, 9740.0, 9738.0, 9734.0, 9743.0, 9740.0, 9755.0, 9769.0, 9755.0, 9740.0, 9752.0, 9751.0, 9773.0, 9767.0, 9740.0, 9728.0, 9729.0, 9729.0, 9727.0, 9728.0],
      "WindowWidth": [20863.0, 20774.0, 20715.0, 20712.0, 20710.0, 20691.0, 20672.0, 20687.0, 20709.0, 20734.0, 20724.0, 20702.0, 20669.0, 20644.0, 20670.0, 20653.0, 20691.0, 20676.0, 20669.0, 20640.0, 20614.0, 20642.0, 20681.0, 20702.0, 20718.0, 20696.0, 20694.0, 20669.0, 20654.0, 20654.0, 20661.0, 20675.0, 20702.0, 20724.0, 20720.0, 20707.0, 20690.0, 20664.0, 20685.0, 20686.0, 20698.0, 20682.0, 20672.0, 20641.0, 20628.0, 20627.0, 20645.0, 20683.0, 20721.0, 20704.0, 20671.0, 20590.0, 20564.0, 20564.0, 20598.0, 20633.0, 20642.0, 20643.0, 20626.0, 20621.0, 20617.0, 20597.0, 20577.0, 20589.0, 20607.0, 20639.0, 20644.0, 20625.0, 20606.0, 20579.0, 20585.0, 20604.0, 20604.0, 20592.0, 20583.0, 20592.0, 20597.0, 20591.0, 20620.0, 20621.0, 20618.0, 20597.0, 20599.0, 20616.0, 20619.0, 20653.0, 20668.0, 20663.0, 20632.0, 20618.0, 20596.0, 20581.0, 20621.0, 20653.0, 20662.0, 20625.0, 20593.0, 20575.0, 20572.0, 20580.0, 20612.0, 20617.0, 20664.0, 20647.0, 20632.0, 20615.0, 20616.0, 20622.0, 20639.0, 20624.0, 20618.0, 20602.0, 20598.0, 20584.0, 20605.0, 20612.0, 20639.0, 20673.0, 20653.0, 20634.0, 20610.0, 20616.0, 20592.0, 20575.0, 20570.0, 20595.0, 20634.0, 20633.0, 20639.0, 20599.0, 20587.0, 20598.0, 20611.0, 20610.0, 20615.0, 20606.0, 20603.0, 20596.0, 20599.0, 20588.0, 20579.0, 20575.0, 20563.0, 20582.0, 20581.0, 20612.0, 20640.0, 20611.0, 20582.0, 20606.0, 20611.0, 20655.0, 20643.0, 20582.0, 20553.0, 20556.0, 20558.0, 20551.0, 20558.0]
    },
    "slices": {}
  }
}