{
  "AcquisitionMatrixPE": 104,
  "AcquisitionNumber": 1,
  "AcquisitionTime": "16:06:43.927500",
  "BandwidthPerPixelPhaseEncode": 17.17,
  "BaseResolution": 104,
  "BodyPartExamined": "BRAIN",
  "CoilString": "HC1-7;NC1_2",
  "ConsistencyInfo": "N4_VE11C_LATEST_20160120",
  "ConversionSoftware": "dcm2niix",
  "ConversionSoftwareVersion": "v1.0.20190720  (JP2:OpenJPEG) GCC7.3.0",
  "DerivedVendorReportedEchoSpacing": 0.000560011,
  "DeviceSerialNumber": "167006",
  "DwellTime": 2.1e-06,
  "EchoTime": 0.037,
  "EchoTrainLength": 104,
  "EffectiveEchoSpacing": 0.000560011,
  "FlipAngle": 52,
  "ImageComments": "Unaliased_MB4_PE3_LB",
  "ImageOrientationPatientDICOM": [0.999962, -0.00567078, 0.00658346, 0.00767932, 0.931271, -0.364246],
  "ImageType": [
    "ORIGINAL",
    "PRIMARY",
    "M",
    "MB",
    "ND",
    "MOSAIC"
],
  "ImagingFrequency": 123.259,
  "InPlanePhaseEncodingDirectionDICOM": "COL",
  "InstitutionAddress": "Chemin_Queen-Mary_4565_Montreal_District_CA_H3W_1W5",
  "InstitutionName": "IUGM",
  "InstitutionalDepartmentName": "Department",
  "MRAcquisitionType": "2D",
  "MagneticFieldStrength": 3,
  "Manufacturer": "Siemens",
  "ManufacturersModelName": "Prisma_fit",
  "Modality": "MR",
  "MultibandAccelerationFactor": 4,
  "PartialFourier": 1,
  "PatientPosition": "HFS",
  "PercentPhaseFOV": 100,
  "PhaseEncodingDirection": "j",
  "PhaseEncodingSteps": 104,
  "PhaseResolution": 1,
  "PixelBandwidth": 2290,
  "ProcedureStepDescription": "hcptrt_generic",
  "ProtocolName": "func_task-language_run-1",
  "PulseSequenceDetails": "%CustomerSeq%_cmrr_mbep2d_bold",
  "ReceiveCoilActiveElements": "HC1-7;NC1,2",
  "ReceiveCoilName": "HeadNeck_64",
  "ReconMatrixPE": 104,
  "RepetitionTime": 1.49,
  "SAR": 0.0288068,
  "ScanOptions": "FS",
  "ScanningSequence": "EP",
  "SequenceName": "epfid2d1_104",
  "SequenceVariant": "SK_SS",
  "SeriesDescription": "func_task-language_run-1",
  "SeriesNumber": 9,
  "ShimSetting": [636, -7134, -8787, 640, 49, 186, 0, 3],
  "SliceThickness": 2,
  "SliceTiming": [0, 0.7825, 0.0975, 0.8825, 0.195, 0.98, 0.2925, 1.0775, 0.3925, 1.175, 0.49, 1.2725, 0.5875, 1.3725, 0.685, 0, 0.7825, 0.0975, 0.8825, 0.195, 0.98, 0.2925, 1.0775, 0.3925, 1.175, 0.49, 1.2725, 0.5875, 1.3725, 0.685, 0, 0.7825, 0.0975, 0.8825, 0.195, 0.98, 0.2925, 1.0775, 0.3925, 1.175, 0.49, 1.2725, 0.5875, 1.3725, 0.685, 0, 0.7825, 0.0975, 0.8825, 0.195, 0.98, 0.2925, 1.0775, 0.3925, 1.175, 0.49, 1.2725, 0.5875, 1.3725, 0.685],
  "SoftwareVersions": "syngo_MR_E11",
  "SpacingBetweenSlices": 2,
  "StationName": "MRC35049",
  "TaskName": "language",
  "TotalReadoutTime": 0.0576811,
  "TxRefAmp": 206.7,
  "WipMemBlock": "94b1c212-5a61-4ee6-85c8-3a68ccc83fa0||Sequence: R016 ve11c/master r/e634e98; Dec 19 2017 11:00:25 by eja",
  "dcmmeta_affine": [
    [-1.9999245405197144, 0.015358634293079376, 0.008130858652293682, 107.99006652832031],
    [0.011341552250087261, 1.8625423908233643, -0.7285650968551636, -66.82151794433594],
    [0.013166917487978935, 0.728491485118866, 1.862559199333191, -62.40696716308594],
    [0.0, 0.0, 0.0, 1.0]
],
  "dcmmeta_reorient_transform": [
    [0.0, -1.0, 0.0, 103.0],
    [1.0, 0.0, 0.0, 0.0],
    [0.0, 0.0, 1.0, 0.0],
    [0.0, 0.0, 0.0, 1.0]
],
  "dcmmeta_shape": [104, 104, 60, 159],
  "dcmmeta_slice_dim": 2,
  "dcmmeta_version": 0.6,
  "global": {
    "const": {
      "AcquisitionMatrix": [104, 0, 0, 104],
      "AngioFlag": "N",
      "BitsAllocated": 16,
      "BitsStored": 16,
      "BodyPartExamined": "BRAIN",
      "Columns": 832,
      "EchoNumbers": 1,
      "EchoTime": 37.0,
      "EchoTrainLength": 104,
      "FlipAngle": 52.0,
      "HighBit": 15,
      "ImageOrientationPatient": [0.99996224947264, -0.0056707760384, 0.00658345872218, 0.00767931720468, 0.93127120751326, -0.3642457496582],
      "ImagePositionPatient": [-843.13506475987, -798.85746685453, 273.00580646954],
      "ImageType": [
        "ORIGINAL",
        "PRIMARY",
        "M",
        "MB",
        "ND",
        "MOSAIC"
],
      "ImagedNucleus": "1H",
      "ImagingFrequency": 123.258993,
      "InPlanePhaseEncodingDirection": "COL",
      "MRAcquisitionType": "2D",
      "MagneticFieldStrength": 3.0,
      "Manufacturer": "SIEMENS",
      "ManufacturerModelName": "Prisma_fit",
      "Modality": "MR",
      "NumberOfAverages": 1.0,
      "NumberOfPhaseEncodingSteps": 104,
      "PercentPhaseFieldOfView": 100.0,
      "PercentSampling": 100.0,
      "PerformedProcedureStepStartTime": "155450.213000",
      "PhotometricInterpretation": "MONOCHROME2",
      "PixelBandwidth": 2290.0,
      "PixelRepresentation": 0,
      "PixelSpacing": [2.0, 2.0],
      "ProtocolName": "func_task-language_run-1",
      "RepetitionTime": 1490.0,
      "Rows": 832,
      "SAR": 0.02880680491044,
      "SamplesPerPixel": 1,
      "ScanOptions": "FS",
      "ScanningSequence": "EP",
      "SequenceName": "epfid2d1_104",
      "SequenceVariant": [
        "SK",
        "SS"
],
      "SeriesDescription": "func_task-language_run-1",
      "SeriesNumber": 9,
      "SeriesTime": "160807.093000",
      "SliceLocation": -33.337395445364,
      "SliceThickness": 2.0,
      "SmallestImagePixelValue": 0,
      "SoftwareVersions": "syngo MR E11",
      "SpacingBetweenSlices": 1.9999999491493,
      "SpecificCharacterSet": "ISO_IR 100",
      "StudyID": "1",
      "StudyTime": "155450.091000",
      "TransmitCoilName": "Body",
      "VariableFlipAngleFlag": "N",
      "WindowCenterWidthExplanation": "Algo1",
      "dBdt": 0.0},
    "slices": {}
  },
  "time": {
    "samples": {
      "AcquisitionNumber": [1, 2, 3, 4, 5, 6, 7, 8, 9, 10, 11, 12, 13, 14, 15, 16, 17, 18, 19, 20, 21, 22, 23, 24, 25, 26, 27, 28, 29, 30, 31, 32, 33, 34, 35, 36, 37, 38, 39, 40, 41, 42, 43, 44, 45, 46, 47, 48, 49, 50, 51, 52, 53, 54, 55, 56, 57, 58, 59, 60, 61, 62, 63, 64, 65, 66, 67, 68, 69, 70, 71, 72, 73, 74, 75, 76, 77, 78, 79, 80, 81, 82, 83, 84, 85, 86, 87, 88, 89, 90, 91, 92, 93, 94, 95, 96, 97, 98, 99, 100, 101, 102, 103, 104, 105, 106, 107, 108, 109, 110, 111, 112, 113, 114, 115, 116, 117, 118, 119, 120, 121, 122, 123, 124, 125, 126, 127, 128, 129, 130, 131, 132, 133, 134, 135, 136, 137, 138, 139, 140, 141, 142, 143, 144, 145, 146, 147, 148, 149, 150, 151, 152, 153, 154, 155, 156, 157, 158, 159],
      "AcquisitionTime": ["160643.927500", "160645.417500", "160646.907500", "160648.397500", "160649.887500", "160651.377500", "160652.867500", "160654.357500", "160655.847500", "160657.337500", "160658.827500", "160700.317500", "160701.807500", "160703.297500", "160704.787500", "160706.277500", "160707.767500", "160709.257500", "160710.747500", "160712.237500", "160713.727500", "160715.217500", "160716.707500", "160718.197500", "160719.687500", "160721.177500", "160722.667500", "160724.157500", "160725.647500", "160727.137500", "160728.627500", "160730.117500", "160731.607500", "160733.097500", "160734.587500", "160736.077500", "160737.567500", "160739.057500", "160740.547500", "160742.037500", "160743.527500", "160745.017500", "160746.507500", "160747.997500", "160749.487500", "160750.977500", "160752.467500", "160753.957500", "160755.447500", "160756.937500", "160758.427500", "160759.917500", "160801.407500", "160802.897500", "160804.387500", "160805.877500", "160807.367500", "160808.857500", "160810.347500", "160811.837500", "160813.327500", "160814.817500", "160816.307500", "160817.797500", "160819.287500", "160820.777500", "160822.267500", "160823.757500", "160825.247500", "160826.737500", "160828.227500", "160829.717500", "160831.207500", "160832.697500", "160834.187500", "160835.677500", "160837.167500", "160838.657500", "160840.147500", "160841.637500", "160843.127500", "160844.617500", "160846.107500", "160847.597500", "160849.087500", "160850.577500", "160852.067500", "160853.557500", "160855.047500", "160856.537500", "160858.027500", "160859.517500", "160901.007500", "160902.497500", "160903.987500", "160905.477500", "160906.967500", "160908.457500", "160909.947500", "160911.437500", "160912.927500", "160914.417500", "160915.907500", "160917.397500", "160918.887500", "160920.377500", "160921.867500", "160923.357500", "160924.847500", "160926.337500", "160927.827500", "160929.317500", "160930.807500", "160932.297500", "160933.787500", "160935.277500", "160936.767500", "160938.257500", "160939.747500", "160941.237500", "160942.727500", "160944.217500", "160945.707500", "160947.197500", "160948.687500", "160950.177500", "160951.667500", "160953.157500", "160954.647500", "160956.137500", "160957.627500", "160959.117500", "161000.607500", "161002.097500", "161003.587500", "161005.077500", "161006.567500", "161008.057500", "161009.547500", "161011.037500", "161012.527500", "161014.017500", "161015.507500", "161016.997500", "161018.487500", "161019.977500", "161021.467500", "161022.957500", "161024.447500", "161025.937500", "161027.427500", "161028.917500", "161030.407500", "161031.897500", "161033.387500", "161034.877500", "161036.367500", "161037.857500", "161039.347500"],
      "ContentTime": ["160807.095000", "160807.101000", "160807.104000", "160807.107000", "160807.110000", "160807.113000", "160807.116000", "160807.119000", "160807.122000", "160807.125000", "160807.127000", "160807.130000", "160807.133000", "160807.136000", "160807.139000", "160807.142000", "160807.153000", "160807.156000", "160807.159000", "160807.162000", "160807.165000", "160807.168000", "160807.171000", "160807.181000", "160807.184000", "160807.187000", "160807.190000", "160807.193000", "160807.196000", "160827.065000", "160827.069000", "160827.072000", "160827.075000", "160827.079000", "160827.083000", "160827.087000", "160827.091000", "160827.094000", "160827.097000", "160827.100000", "160827.103000", "160827.106000", "160827.109000", "160827.112000", "160827.115000", "160827.118000", "160827.121000", "160827.123000", "160827.126000", "160847.065000", "160847.068000", "160847.071000", "160847.074000", "160847.077000", "160847.080000", "160847.088000", "160847.091000", "160847.094000", "160847.097000", "160847.100000", "160847.103000", "160847.106000", "160847.109000", "160847.112000", "160847.115000", "160847.118000", "160847.121000", "160847.124000", "160847.127000", "160847.130000", "160907.065000", "160907.068000", "160907.071000", "160907.074000", "160907.077000", "160907.080000", "160907.083000", "160907.086000", "160907.089000", "160907.092000", "160907.095000", "160907.098000", "160907.101000", "160907.104000", "160907.107000", "160907.110000", "160907.113000", "160907.117000", "160907.120000", "160907.123000", "160947.065000", "160947.068000", "160947.071000", "160947.074000", "160947.077000", "160947.080000", "160947.083000", "160947.086000", "160947.089000", "160947.092000", "160947.095000", "160947.098000", "160947.101000", "160947.104000", "160947.107000", "160947.110000", "160947.113000", "160947.116000", "160947.119000", "160947.122000", "160947.125000", "160947.128000", "160947.131000", "160947.134000", "160947.136000", "160947.139000", "160947.142000", "160947.145000", "160947.148000", "160947.151000", "160947.154000", "160947.157000", "161007.065000", "161007.068000", "161007.071000", "161007.074000", "161007.077000", "161007.080000", "161007.083000", "161007.097000", "161007.100000", "161007.103000", "161007.106000", "161007.109000", "161007.112000", "161007.115000", "161041.185000", "161041.188000", "161041.191000", "161041.194000", "161041.197000", "161041.200000", "161041.204000", "161041.207000", "161041.210000", "161041.214000", "161041.217000", "161041.221000", "161041.224000", "161041.227000", "161041.230000", "161041.233000", "161041.236000", "161041.239000", "161041.242000", "161041.245000", "161041.248000", "161041.251000", "161041.254000"],
      "InstanceCreationTime": ["160807.095000", "160807.101000", "160807.104000", "160807.107000", "160807.110000", "160807.113000", "160807.116000", "160807.119000", "160807.122000", "160807.125000", "160807.127000", "160807.130000", "160807.133000", "160807.136000", "160807.139000", "160807.142000", "160807.153000", "160807.156000", "160807.159000", "160807.162000", "160807.165000", "160807.168000", "160807.171000", "160807.181000", "160807.184000", "160807.187000", "160807.190000", "160807.193000", "160807.196000", "160827.065000", "160827.069000", "160827.072000", "160827.075000", "160827.079000", "160827.083000", "160827.087000", "160827.091000", "160827.094000", "160827.097000", "160827.100000", "160827.103000", "160827.106000", "160827.109000", "160827.112000", "160827.115000", "160827.118000", "160827.121000", "160827.123000", "160827.126000", "160847.065000", "160847.068000", "160847.071000", "160847.074000", "160847.077000", "160847.080000", "160847.088000", "160847.091000", "160847.094000", "160847.097000", "160847.100000", "160847.103000", "160847.106000", "160847.109000", "160847.112000", "160847.115000", "160847.118000", "160847.121000", "160847.124000", "160847.127000", "160847.130000", "160907.065000", "160907.068000", "160907.071000", "160907.074000", "160907.077000", "160907.080000", "160907.083000", "160907.086000", "160907.089000", "160907.092000", "160907.095000", "160907.098000", "160907.101000", "160907.104000", "160907.107000", "160907.110000", "160907.113000", "160907.117000", "160907.120000", "160907.123000", "160947.065000", "160947.068000", "160947.071000", "160947.074000", "160947.077000", "160947.080000", "160947.083000", "160947.086000", "160947.089000", "160947.092000", "160947.095000", "160947.098000", "160947.101000", "160947.104000", "160947.107000", "160947.110000", "160947.113000", "160947.116000", "160947.119000", "160947.122000", "160947.125000", "160947.128000", "160947.131000", "160947.134000", "160947.136000", "160947.139000", "160947.142000", "160947.145000", "160947.148000", "160947.151000", "160947.154000", "160947.157000", "161007.065000", "161007.068000", "161007.071000", "161007.074000", "161007.077000", "161007.080000", "161007.083000", "161007.097000", "161007.100000", "161007.103000", "161007.106000", "161007.109000", "161007.112000", "161007.115000", "161041.185000", "161041.188000", "161041.191000", "161041.194000", "161041.197000", "161041.200000", "161041.204000", "161041.207000", "161041.210000", "161041.214000", "161041.217000", "161041.221000", "161041.224000", "161041.227000", "161041.230000", "161041.233000", "161041.236000", "161041.239000", "161041.242000", "161041.245000", "161041.248000", "161041.251000", "161041.254000"],
      "InstanceNumber": [1, 2, 3, 4, 5, 6, 7, 8, 9, 10, 11, 12, 13, 14, 15, 16, 17, 18, 19, 20, 21, 22, 23, 24, 25, 26, 27, 28, 29, 30, 31, 32, 33, 34, 35, 36, 37, 38, 39, 40, 41, 42, 43, 44, 45, 46, 47, 48, 49, 50, 51, 52, 53, 54, 55, 56, 57, 58, 59, 60, 61, 62, 63, 64, 65, 66, 67, 68, 69, 70, 71, 72, 73, 74, 75, 76, 77, 78, 79, 80, 81, 82, 83, 84, 85, 86, 87, 88, 89, 90, 91, 92, 93, 94, 95, 96, 97, 98, 99, 100, 101, 102, 103, 104, 105, 106, 107, 108, 109, 110, 111, 112, 113, 114, 115, 116, 117, 118, 119, 120, 121, 122, 123, 124, 125, 126, 127, 128, 129, 130, 131, 132, 133, 134, 135, 136, 137, 138, 139, 140, 141, 142, 143, 144, 145, 146, 147, 148, 149, 150, 151, 152, 153, 154, 155, 156, 157, 158, 159],
      "LargestImagePixelValue": [43365, 41538, 40951, 40043, 40108, 40034, 40450, 39387, 39799, 39274, 40142, 39422, 40187, 39582, 39818, 39745, 40356, 39622, 40048, 39767, 39595, 39724, 39770, 39628, 39752, 39610, 39677, 39113, 39086, 38850, 39065, 39222, 39050, 39579, 38758, 39488, 38752, 38983, 38322, 37958, 38056, 38429, 37679, 37893, 37810, 38631, 38223, 38542, 38066, 38599, 38325, 38278, 38218, 38479, 38088, 38421, 38006, 38695, 38092, 39080, 38024, 38795, 38210, 38833, 37647, 38265, 38099, 37797, 37573, 37744, 37355, 37480, 37861, 37440, 37348, 37594, 37439, 38482, 38114, 38229, 37996, 38074, 37488, 38141, 37572, 37784, 37751, 38480, 38016, 38630, 37886, 38277, 38012, 38319, 38144, 38231, 37994, 38545, 37668, 38170, 37572, 37481, 37655, 37484, 37781, 37157, 37634, 37489, 37631, 37463, 37466, 37164, 37525, 37446, 37170, 37451, 36868, 36897, 37141, 36707, 36801, 36955, 37625, 37292, 37519, 36843, 37355, 36802, 37366, 37579, 37301, 37488, 37429, 37058, 37522, 37544, 37236, 38026, 36825, 37373, 37107, 37782, 36915, 37254, 36840, 37209, 36722, 36718, 36805, 37126, 36909, 37251, 36932, 37176, 37054, 37739, 37191, 37204, 36960],
      "WindowCenter": [9966.0, 9929.0, 9908.0, 9902.0, 9899.0, 9893.0, 9890.0, 9895.0, 9900.0, 9895.0, 9893.0, 9884.0, 9880.0, 9873.0, 9865.0, 9865.0, 9871.0, 9875.0, 9886.0, 9881.0, 9873.0, 9874.0, 9881.0, 9893.0, 9889.0, 9883.0, 9872.0, 9865.0, 9865.0, 9867.0, 9867.0, 9865.0, 9864.0, 9866.0, 9853.0, 9848.0, 9841.0, 9854.0, 9861.0, 9872.0, 9866.0, 9855.0, 9840.0, 9835.0, 9839.0, 9850.0, 9854.0, 9864.0, 9875.0, 9874.0, 9875.0, 9857.0, 9848.0, 9837.0, 9845.0, 9861.0, 9865.0, 9871.0, 9866.0, 9871.0, 9865.0, 9854.0, 9854.0, 9851.0, 9856.0, 9865.0, 9865.0, 9849.0, 9840.0, 9839.0, 9850.0, 9859.0, 9865.0, 9858.0, 9846.0, 9837.0, 9829.0, 9832.0, 9836.0, 9847.0, 9848.0, 9847.0, 9841.0, 9845.0, 9835.0, 9848.0, 9850.0, 9854.0, 9846.0, 9845.0, 9850.0, 9862.0, 9858.0, 9864.0, 9865.0, 9875.0, 9867.0, 9856.0, 9849.0, 9845.0, 9848.0, 9851.0, 9855.0, 9848.0, 9841.0, 9832.0, 9828.0, 9823.0, 9828.0, 9831.0, 9834.0, 9835.0, 9834.0, 9832.0, 9833.0, 9847.0, 9843.0, 9827.0, 9814.0, 9809.0, 9815.0, 9833.0, 9848.0, 9845.0, 9841.0, 9836.0, 9842.0, 9844.0, 9844.0, 9843.0, 9844.0, 9851.0, 9851.0, 9845.0, 9844.0, 9859.0, 9863.0, 9856.0, 9838.0, 9841.0, 9843.0, 9857.0, 9855.0, 9847.0, 9838.0, 9826.0, 9824.0, 9826.0, 9828.0, 9832.0, 9827.0, 9833.0, 9820.0, 9824.0, 9835.0, 9849.0, 9838.0, 9827.0, 9817.0],
      "WindowWidth": [21139.0, 21034.0, 20975.0, 20956.0, 20943.0, 20929.0, 20921.0, 20936.0, 20947.0, 20937.0, 20931.0, 20908.0, 20897.0, 20884.0, 20869.0, 20869.0, 20878.0, 20892.0, 20911.0, 20899.0, 20882.0, 20887.0, 20903.0, 20933.0, 20921.0, 20906.0, 20878.0, 20866.0, 20868.0, 20873.0, 20870.0, 20866.0, 20863.0, 20870.0, 20845.0, 20830.0, 20817.0, 20839.0, 20860.0, 20886.0, 20877.0, 20846.0, 20817.0, 20806.0, 20816.0, 20838.0, 20849.0, 20871.0, 20901.0, 20894.0, 20897.0, 20855.0, 20835.0, 20811.0, 20828.0, 20863.0, 20874.0, 20886.0, 20878.0, 20884.0, 20872.0, 20846.0, 20847.0, 20837.0, 20853.0, 20875.0, 20873.0, 20836.0, 20815.0, 20813.0, 20842.0, 20863.0, 20873.0, 20856.0, 20827.0, 20807.0, 20791.0, 20797.0, 20810.0, 20835.0, 20839.0, 20834.0, 20822.0, 20824.0, 20808.0, 20834.0, 20841.0, 20848.0, 20831.0, 20828.0, 20842.0, 20862.0, 20861.0, 20869.0, 20871.0, 20896.0, 20878.0, 20852.0, 20835.0, 20822.0, 20834.0, 20842.0, 20849.0, 20834.0, 20820.0, 20800.0, 20788.0, 20780.0, 20789.0, 20799.0, 20810.0, 20812.0, 20804.0, 20799.0, 20803.0, 20831.0, 20827.0, 20793.0, 20760.0, 20752.0, 20764.0, 20804.0, 20837.0, 20833.0, 20821.0, 20811.0, 20825.0, 20834.0, 20832.0, 20828.0, 20833.0, 20846.0, 20844.0, 20834.0, 20831.0, 20860.0, 20872.0, 20851.0, 20819.0, 20821.0, 20827.0, 20854.0, 20853.0, 20836.0, 20815.0, 20787.0, 20782.0, 20787.0, 20796.0, 20799.0, 20793.0, 20802.0, 20774.0, 20783.0, 20812.0, 20841.0, 20821.0, 20795.0, 20770.0]
    },
    "slices": {}
  }
}