{
  "AcquisitionMatrixPE": 104,
  "AcquisitionNumber": 1,
  "AcquisitionTime": "16:11:36.092500",
  "BandwidthPerPixelPhaseEncode": 17.17,
  "BaseResolution": 104,
  "BodyPartExamined": "BRAIN",
  "CoilString": "HC1-7;NC1_2",
  "ConsistencyInfo": "N4_VE11C_LATEST_20160120",
  "ConversionSoftware": "dcm2niix",
  "ConversionSoftwareVersion": "v1.0.20190720  (JP2:OpenJPEG) GCC7.3.0",
  "DerivedVendorReportedEchoSpacing": 0.000560011,
  "DeviceSerialNumber": "167006",
  "DwellTime": 2.1e-06,
  "EchoTime": 0.037,
  "EchoTrainLength": 104,
  "EffectiveEchoSpacing": 0.000560011,
  "FlipAngle": 52,
  "ImageComments": "Unaliased_MB4_PE3_LB",
  "ImageOrientationPatientDICOM": [0.999962, -0.00567078, 0.00658346, 0.00767932, 0.931271, -0.364246],
  "ImageType": [
    "ORIGINAL",
    "PRIMARY",
    "M",
    "MB",
    "ND",
    "MOSAIC"
],
  "ImagingFrequency": 123.259,
  "InPlanePhaseEncodingDirectionDICOM": "COL",
  "InstitutionAddress": "Chemin_Queen-Mary_4565_Montreal_District_CA_H3W_1W5",
  "InstitutionName": "IUGM",
  "InstitutionalDepartmentName": "Department",
  "MRAcquisitionType": "2D",
  "MagneticFieldStrength": 3,
  "Manufacturer": "Siemens",
  "ManufacturersModelName": "Prisma_fit",
  "Modality": "MR",
  "MultibandAccelerationFactor": 4,
  "PartialFourier": 1,
  "PatientPosition": "HFS",
  "PercentPhaseFOV": 100,
  "PhaseEncodingDirection": "j",
  "PhaseEncodingSteps": 104,
  "PhaseResolution": 1,
  "PixelBandwidth": 2290,
  "ProcedureStepDescription": "hcptrt_generic",
  "ProtocolName": "func_task-motor_run-1",
  "PulseSequenceDetails": "%CustomerSeq%_cmrr_mbep2d_bold",
  "ReceiveCoilActiveElements": "HC1-7;NC1,2",
  "ReceiveCoilName": "HeadNeck_64",
  "ReconMatrixPE": 104,
  "RepetitionTime": 1.49,
  "SAR": 0.0287714,
  "ScanOptions": "FS",
  "ScanningSequence": "EP",
  "SequenceName": "epfid2d1_104",
  "SequenceVariant": "SK_SS",
  "SeriesDescription": "func_task-motor_run-1",
  "SeriesNumber": 11,
  "ShimSetting": [636, -7134, -8787, 640, 49, 186, 0, 3],
  "SliceThickness": 2,
  "SliceTiming": [0, 0.785, 0.0975, 0.8825, 0.195, 0.98, 0.295, 1.0775, 0.3925, 1.175, 0.49, 1.2725, 0.5875, 1.3725, 0.685, 0, 0.785, 0.0975, 0.8825, 0.195, 0.98, 0.295, 1.0775, 0.3925, 1.175, 0.49, 1.2725, 0.5875, 1.3725, 0.685, 0, 0.785, 0.0975, 0.8825, 0.195, 0.98, 0.295, 1.0775, 0.3925, 1.175, 0.49, 1.2725, 0.5875, 1.3725, 0.685, 0, 0.785, 0.0975, 0.8825, 0.195, 0.98, 0.295, 1.0775, 0.3925, 1.175, 0.49, 1.2725, 0.5875, 1.3725, 0.685],
  "SoftwareVersions": "syngo_MR_E11",
  "SpacingBetweenSlices": 2,
  "StationName": "MRC35049",
  "TaskName": "motor",
  "TotalReadoutTime": 0.0576811,
  "TxRefAmp": 206.7,
  "WipMemBlock": "f3dc8d82-595c-4a07-9708-307e5df149b3||Sequence: R016 ve11c/master r/e634e98; Dec 19 2017 11:00:25 by eja",
  "dcmmeta_affine": [
    [-1.9999245405197144, 0.015358634293079376, 0.008130858652293682, 107.99006652832031],
    [0.011341552250087261, 1.8625423908233643, -0.7285650968551636, -66.82151794433594],
    [0.013166917487978935, 0.728491485118866, 1.862559199333191, -62.40696716308594],
    [0.0, 0.0, 0.0, 1.0]
],
  "dcmmeta_reorient_transform": [
    [0.0, -1.0, 0.0, 103.0],
    [1.0, 0.0, 0.0, 0.0],
    [0.0, 0.0, 1.0, 0.0],
    [0.0, 0.0, 0.0, 1.0]
],
  "dcmmeta_shape": [104, 104, 60, 144],
  "dcmmeta_slice_dim": 2,
  "dcmmeta_version": 0.6,
  "global": {
    "const": {
      "AcquisitionMatrix": [104, 0, 0, 104],
      "AngioFlag": "N",
      "BitsAllocated": 16,
      "BitsStored": 16,
      "BodyPartExamined": "BRAIN",
      "Columns": 832,
      "EchoNumbers": 1,
      "EchoTime": 37.0,
      "EchoTrainLength": 104,
      "FlipAngle": 52.0,
      "HighBit": 15,
      "ImageOrientationPatient": [0.99996224947264, -0.0056707760384, 0.00658345872218, 0.00767931720468, 0.93127120751326, -0.3642457496582],
      "ImagePositionPatient": [-843.13506475987, -798.85746685453, 273.00580646954],
      "ImageType": [
        "ORIGINAL",
        "PRIMARY",
        "M",
        "MB",
        "ND",
        "MOSAIC"
],
      "ImagedNucleus": "1H",
      "ImagingFrequency": 123.258996,
      "InPlanePhaseEncodingDirection": "COL",
      "MRAcquisitionType": "2D",
      "MagneticFieldStrength": 3.0,
      "Manufacturer": "SIEMENS",
      "ManufacturerModelName": "Prisma_fit",
      "Modality": "MR",
      "NumberOfAverages": 1.0,
      "NumberOfPhaseEncodingSteps": 104,
      "PercentPhaseFieldOfView": 100.0,
      "PercentSampling": 100.0,
      "PerformedProcedureStepStartTime": "155450.213000",
      "PhotometricInterpretation": "MONOCHROME2",
      "PixelBandwidth": 2290.0,
      "PixelRepresentation": 0,
      "PixelSpacing": [2.0, 2.0],
      "ProtocolName": "func_task-motor_run-1",
      "RepetitionTime": 1490.0,
      "Rows": 832,
      "SAR": 0.02877144633232,
      "SamplesPerPixel": 1,
      "ScanOptions": "FS",
      "ScanningSequence": "EP",
      "SequenceName": "epfid2d1_104",
      "SequenceVariant": [
        "SK",
        "SS"
],
      "SeriesDescription": "func_task-motor_run-1",
      "SeriesNumber": 11,
      "SeriesTime": "161257.052000",
      "SliceLocation": -33.337395445364,
      "SliceThickness": 2.0,
      "SmallestImagePixelValue": 0,
      "SoftwareVersions": "syngo MR E11",
      "SpacingBetweenSlices": 1.9999999491493,
      "SpecificCharacterSet": "ISO_IR 100",
      "StudyID": "1",
      "StudyTime": "155450.091000",
      "TransmitCoilName": "Body",
      "VariableFlipAngleFlag": "N",
      "WindowCenterWidthExplanation": "Algo1",
      "dBdt": 0.0},
    "slices": {}
  },
  "time": {
    "samples": {
      "AcquisitionNumber": [1, 2, 3, 4, 5, 6, 7, 8, 9, 10, 11, 12, 13, 14, 15, 16, 17, 18, 19, 20, 21, 22, 23, 24, 25, 26, 27, 28, 29, 30, 31, 32, 33, 34, 35, 36, 37, 38, 39, 40, 41, 42, 43, 44, 45, 46, 47, 48, 49, 50, 51, 52, 53, 54, 55, 56, 57, 58, 59, 60, 61, 62, 63, 64, 65, 66, 67, 68, 69, 70, 71, 72, 73, 74, 75, 76, 77, 78, 79, 80, 81, 82, 83, 84, 85, 86, 87, 88, 89, 90, 91, 92, 93, 94, 95, 96, 97, 98, 99, 100, 101, 102, 103, 104, 105, 106, 107, 108, 109, 110, 111, 112, 113, 114, 115, 116, 117, 118, 119, 120, 121, 122, 123, 124, 125, 126, 127, 128, 129, 130, 131, 132, 133, 134, 135, 136, 137, 138, 139, 140, 141, 142, 143, 144],
      "AcquisitionTime": ["161136.092500", "161137.582500", "161139.072500", "161140.562500", "161142.052500", "161143.542500", "161145.032500", "161146.522500", "161148.012500", "161149.502500", "161150.992500", "161152.482500", "161153.972500", "161155.462500", "161156.952500", "161158.442500", "161159.932500", "161201.422500", "161202.912500", "161204.402500", "161205.892500", "161207.382500", "161208.872500", "161210.362500", "161211.852500", "161213.342500", "161214.832500", "161216.322500", "161217.812500", "161219.302500", "161220.792500", "161222.282500", "161223.772500", "161225.262500", "161226.752500", "161228.242500", "161229.732500", "161231.222500", "161232.712500", "161234.202500", "161235.692500", "161237.182500", "161238.672500", "161240.162500", "161241.652500", "161243.142500", "161244.632500", "161246.122500", "161247.612500", "161249.102500", "161250.592500", "161252.082500", "161253.572500", "161255.062500", "161256.552500", "161258.042500", "161259.532500", "161301.022500", "161302.512500", "161304.002500", "161305.492500", "161306.982500", "161308.472500", "161309.962500", "161311.452500", "161312.942500", "161314.432500", "161315.922500", "161317.412500", "161318.902500", "161320.392500", "161321.882500", "161323.372500", "161324.862500", "161326.352500", "161327.842500", "161329.332500", "161330.822500", "161332.312500", "161333.802500", "161335.292500", "161336.782500", "161338.272500", "161339.762500", "161341.252500", "161342.742500", "161344.232500", "161345.722500", "161347.212500", "161348.702500", "161350.192500", "161351.682500", "161353.172500", "161354.662500", "161356.152500", "161357.642500", "161359.132500", "161400.622500", "161402.112500", "161403.602500", "161405.092500", "161406.582500", "161408.072500", "161409.562500", "161411.052500", "161412.542500", "161414.032500", "161415.522500", "161417.012500", "161418.502500", "161419.992500", "161421.482500", "161422.972500", "161424.462500", "161425.952500", "161427.442500", "161428.932500", "161430.422500", "161431.912500", "161433.402500", "161434.892500", "161436.382500", "161437.872500", "161439.362500", "161440.852500", "161442.342500", "161443.832500", "161445.322500", "161446.812500", "161448.302500", "161449.792500", "161451.282500", "161452.772500", "161454.262500", "161455.752500", "161457.242500", "161458.732500", "161500.222500", "161501.712500", "161503.202500", "161504.692500", "161506.182500", "161507.672500", "161509.162500"],
      "ContentTime": ["161257.056000", "161257.059000", "161257.062000", "161257.065000", "161257.068000", "161257.071000", "161257.074000", "161257.077000", "161257.089000", "161257.092000", "161257.095000", "161257.098000", "161257.105000", "161257.108000", "161257.111000", "161257.114000", "161257.117000", "161257.120000", "161257.123000", "161257.125000", "161257.128000", "161257.131000", "161257.134000", "161257.145000", "161257.148000", "161257.151000", "161317.025000", "161317.028000", "161317.031000", "161317.034000", "161317.037000", "161317.040000", "161317.043000", "161317.046000", "161317.049000", "161317.052000", "161317.055000", "161317.058000", "161317.061000", "161317.071000", "161317.074000", "161317.076000", "161317.079000", "161317.082000", "161317.085000", "161317.088000", "161337.024000", "161337.027000", "161337.030000", "161337.033000", "161337.036000", "161337.039000", "161337.042000", "161337.045000", "161337.048000", "161337.051000", "161337.054000", "161337.057000", "161337.060000", "161337.063000", "161337.066000", "161337.069000", "161337.072000", "161337.081000", "161337.084000", "161337.087000", "161357.024000", "161357.027000", "161357.030000", "161357.033000", "161357.036000", "161357.039000", "161357.042000", "161357.045000", "161357.048000", "161357.051000", "161357.054000", "161357.056000", "161357.060000", "161357.063000", "161357.065000", "161357.068000", "161357.071000", "161357.074000", "161357.077000", "161357.080000", "161417.024000", "161417.027000", "161417.030000", "161417.033000", "161417.036000", "161417.039000", "161417.042000", "161417.045000", "161417.048000", "161417.051000", "161417.054000", "161417.057000", "161417.060000", "161417.063000", "161417.066000", "161417.069000", "161417.072000", "161417.075000", "161417.078000", "161417.081000", "161417.084000", "161457.024000", "161457.027000", "161457.030000", "161457.037000", "161457.040000", "161457.042000", "161457.045000", "161457.048000", "161457.051000", "161457.054000", "161457.057000", "161457.060000", "161457.063000", "161457.066000", "161457.069000", "161457.072000", "161457.075000", "161457.078000", "161457.081000", "161457.084000", "161457.087000", "161457.090000", "161457.093000", "161457.096000", "161457.099000", "161457.102000", "161457.105000", "161511.798000", "161511.801000", "161511.804000", "161511.807000", "161511.811000", "161511.813000", "161511.816000", "161511.819000", "161511.823000", "161511.826000"],
      "InstanceCreationTime": ["161257.056000", "161257.059000", "161257.062000", "161257.065000", "161257.068000", "161257.071000", "161257.074000", "161257.077000", "161257.089000", "161257.092000", "161257.095000", "161257.098000", "161257.105000", "161257.108000", "161257.111000", "161257.114000", "161257.117000", "161257.120000", "161257.123000", "161257.125000", "161257.128000", "161257.131000", "161257.134000", "161257.145000", "161257.148000", "161257.151000", "161317.025000", "161317.028000", "161317.031000", "161317.034000", "161317.037000", "161317.040000", "161317.043000", "161317.046000", "161317.049000", "161317.052000", "161317.055000", "161317.058000", "161317.061000", "161317.071000", "161317.074000", "161317.076000", "161317.079000", "161317.082000", "161317.085000", "161317.088000", "161337.024000", "161337.027000", "161337.030000", "161337.033000", "161337.036000", "161337.039000", "161337.042000", "161337.045000", "161337.048000", "161337.051000", "161337.054000", "161337.057000", "161337.060000", "161337.063000", "161337.066000", "161337.069000", "161337.072000", "161337.081000", "161337.084000", "161337.087000", "161357.024000", "161357.027000", "161357.030000", "161357.033000", "161357.036000", "161357.039000", "161357.042000", "161357.045000", "161357.048000", "161357.051000", "161357.054000", "161357.056000", "161357.060000", "161357.063000", "161357.065000", "161357.068000", "161357.071000", "161357.074000", "161357.077000", "161357.080000", "161417.024000", "161417.027000", "161417.030000", "161417.033000", "161417.036000", "161417.039000", "161417.042000", "161417.045000", "161417.048000", "161417.051000", "161417.054000", "161417.057000", "161417.060000", "161417.063000", "161417.066000", "161417.069000", "161417.072000", "161417.075000", "161417.078000", "161417.081000", "161417.084000", "161457.024000", "161457.027000", "161457.030000", "161457.037000", "161457.040000", "161457.042000", "161457.045000", "161457.048000", "161457.051000", "161457.054000", "161457.057000", "161457.060000", "161457.063000", "161457.066000", "161457.069000", "161457.072000", "161457.075000", "161457.078000", "161457.081000", "161457.084000", "161457.087000", "161457.090000", "161457.093000", "161457.096000", "161457.099000", "161457.102000", "161457.105000", "161511.798000", "161511.801000", "161511.804000", "161511.807000", "161511.811000", "161511.813000", "161511.816000", "161511.819000", "161511.823000", "161511.826000"],
      "InstanceNumber": [1, 2, 3, 4, 5, 6, 7, 8, 9, 10, 11, 12, 13, 14, 15, 16, 17, 18, 19, 20, 21, 22, 23, 24, 25, 26, 27, 28, 29, 30, 31, 32, 33, 34, 35, 36, 37, 38, 39, 40, 41, 42, 43, 44, 45, 46, 47, 48, 49, 50, 51, 52, 53, 54, 55, 56, 57, 58, 59, 60, 61, 62, 63, 64, 65, 66, 67, 68, 69, 70, 71, 72, 73, 74, 75, 76, 77, 78, 79, 80, 81, 82, 83, 84, 85, 86, 87, 88, 89, 90, 91, 92, 93, 94, 95, 96, 97, 98, 99, 100, 101, 102, 103, 104, 105, 106, 107, 108, 109, 110, 111, 112, 113, 114, 115, 116, 117, 118, 119, 120, 121, 122, 123, 124, 125, 126, 127, 128, 129, 130, 131, 132, 133, 134, 135, 136, 137, 138, 139, 140, 141, 142, 143, 144],
      "LargestImagePixelValue": [43085, 41554, 40446, 40329, 40265, 40155, 40036, 39945, 39821, 40097, 39872, 39966, 39871, 39988, 39719, 40066, 39688, 39751, 39967, 39896, 39415, 39661, 39957, 39825, 39853, 39772, 39753, 39333, 39660, 39299, 39932, 40051, 40119, 39454, 39544, 40322, 39370, 39300, 39830, 40227, 39811, 39430, 38513, 37904, 38483, 38480, 38228, 38290, 37583, 38109, 37817, 38095, 37900, 37767, 38360, 37851, 38066, 38129, 37800, 38102, 37692, 38360, 37564, 38323, 37883, 38199, 38285, 38328, 38049, 37454, 38481, 39266, 38152, 36987, 37984, 36892, 37305, 37942, 37311, 38831, 38644, 38243, 38378, 37668, 38054, 37774, 37582, 37414, 36990, 37666, 37448, 37330, 38150, 37139, 37770, 36818, 37576, 37622, 37656, 37534, 37381, 37743, 37100, 37566, 37487, 37954, 38023, 37976, 37681, 37170, 37892, 37527, 37759, 37415, 37766, 37432, 37552, 37648, 37690, 38001, 37237, 38034, 37690, 37569, 37441, 37955, 37829, 37337, 38083, 37654, 37965, 37052, 37877, 37233, 37984, 37666, 37548, 37868, 37500, 38160, 37418, 38099, 38210, 37934],
      "WindowCenter": [9926.0, 9894.0, 9883.0, 9888.0, 9884.0, 9876.0, 9867.0, 9866.0, 9881.0, 9891.0, 9891.0, 9881.0, 9874.0, 9873.0, 9875.0, 9879.0, 9876.0, 9875.0, 9873.0, 9864.0, 9864.0, 9881.0, 9897.0, 9893.0, 9885.0, 9878.0, 9869.0, 9851.0, 9854.0, 9856.0, 9863.0, 9863.0, 9853.0, 9856.0, 9865.0, 9878.0, 9879.0, 9878.0, 9852.0, 9868.0, 9850.0, 9852.0, 9840.0, 9828.0, 9831.0, 9840.0, 9843.0, 9849.0, 9837.0, 9841.0, 9837.0, 9853.0, 9863.0, 9858.0, 9860.0, 9855.0, 9853.0, 9861.0, 9864.0, 9863.0, 9858.0, 9868.0, 9866.0, 9871.0, 9864.0, 9855.0, 9857.0, 9852.0, 9843.0, 9862.0, 9871.0, 9882.0, 9863.0, 9849.0, 9842.0, 9822.0, 9828.0, 9840.0, 9844.0, 9857.0, 9875.0, 9869.0, 9861.0, 9839.0, 9833.0, 9834.0, 9843.0, 9845.0, 9848.0, 9844.0, 9835.0, 9821.0, 9833.0, 9836.0, 9842.0, 9840.0, 9853.0, 9861.0, 9853.0, 9847.0, 9853.0, 9861.0, 9873.0, 9877.0, 9874.0, 9855.0, 9845.0, 9838.0, 9836.0, 9836.0, 9841.0, 9836.0, 9835.0, 9836.0, 9846.0, 9846.0, 9855.0, 9871.0, 9865.0, 9853.0, 9840.0, 9850.0, 9850.0, 9847.0, 9847.0, 9854.0, 9854.0, 9863.0, 9870.0, 9864.0, 9844.0, 9829.0, 9826.0, 9828.0, 9847.0, 9853.0, 9861.0, 9862.0, 9854.0, 9859.0, 9871.0, 9880.0, 9864.0, 9853.0],
      "WindowWidth": [21043.0, 20957.0, 20923.0, 20924.0, 20916.0, 20897.0, 20875.0, 20874.0, 20905.0, 20926.0, 20927.0, 20902.0, 20888.0, 20886.0, 20889.0, 20896.0, 20891.0, 20890.0, 20882.0, 20863.0, 20865.0, 20904.0, 20937.0, 20929.0, 20914.0, 20897.0, 20876.0, 20837.0, 20840.0, 20849.0, 20860.0, 20862.0, 20839.0, 20847.0, 20867.0, 20892.0, 20900.0, 20896.0, 20837.0, 20870.0, 20830.0, 20833.0, 20813.0, 20791.0, 20793.0, 20817.0, 20825.0, 20835.0, 20815.0, 20817.0, 20814.0, 20848.0, 20869.0, 20861.0, 20859.0, 20852.0, 20845.0, 20864.0, 20873.0, 20869.0, 20862.0, 20878.0, 20877.0, 20885.0, 20871.0, 20851.0, 20849.0, 20843.0, 20822.0, 20866.0, 20888.0, 20909.0, 20870.0, 20838.0, 20816.0, 20780.0, 20791.0, 20815.0, 20827.0, 20853.0, 20889.0, 20877.0, 20862.0, 20816.0, 20796.0, 20802.0, 20821.0, 20830.0, 20838.0, 20824.0, 20807.0, 20778.0, 20800.0, 20808.0, 20820.0, 20823.0, 20849.0, 20864.0, 20846.0, 20835.0, 20845.0, 20864.0, 20893.0, 20904.0, 20893.0, 20851.0, 20828.0, 20813.0, 20808.0, 20808.0, 20818.0, 20808.0, 20803.0, 20811.0, 20833.0, 20832.0, 20853.0, 20887.0, 20876.0, 20846.0, 20821.0, 20833.0, 20832.0, 20832.0, 20836.0, 20850.0, 20848.0, 20870.0, 20882.0, 20870.0, 20824.0, 20790.0, 20782.0, 20790.0, 20828.0, 20844.0, 20862.0, 20863.0, 20848.0, 20859.0, 20889.0, 20907.0, 20873.0, 20845.0]
    },
    "slices": {}
  }
}