{
  "AcquisitionMatrixPE": 104,
  "AcquisitionNumber": 1,
  "AcquisitionTime": "16:39:32.665000",
  "BandwidthPerPixelPhaseEncode": 17.17,
  "BaseResolution": 104,
  "BodyPartExamined": "BRAIN",
  "CoilString": "HC1-7;NC1_2",
  "ConsistencyInfo": "N4_VE11C_LATEST_20160120",
  "ConversionSoftware": "dcm2niix",
  "ConversionSoftwareVersion": "v1.0.20190720  (JP2:OpenJPEG) GCC7.3.0",
  "DerivedVendorReportedEchoSpacing": 0.000560011,
  "DeviceSerialNumber": "167006",
  "DwellTime": 2.1e-06,
  "EchoTime": 0.037,
  "EchoTrainLength": 104,
  "EffectiveEchoSpacing": 0.000560011,
  "FlipAngle": 52,
  "ImageComments": "Unaliased_MB4_PE3_LB",
  "ImageOrientationPatientDICOM": [0.999962, -0.00567078, 0.00658346, 0.00767932, 0.931271, -0.364246],
  "ImageType": [
    "ORIGINAL",
    "PRIMARY",
    "M",
    "MB",
    "ND",
    "MOSAIC"
],
  "ImagingFrequency": 123.259,
  "InPlanePhaseEncodingDirectionDICOM": "COL",
  "InstitutionAddress": "Chemin_Queen-Mary_4565_Montreal_District_CA_H3W_1W5",
  "InstitutionName": "IUGM",
  "InstitutionalDepartmentName": "Department",
  "MRAcquisitionType": "2D",
  "MagneticFieldStrength": 3,
  "Manufacturer": "Siemens",
  "ManufacturersModelName": "Prisma_fit",
  "Modality": "MR",
  "MultibandAccelerationFactor": 4,
  "PartialFourier": 1,
  "PatientPosition": "HFS",
  "PercentPhaseFOV": 100,
  "PhaseEncodingDirection": "j",
  "PhaseEncodingSteps": 104,
  "PhaseResolution": 1,
  "PixelBandwidth": 2290,
  "ProcedureStepDescription": "hcptrt_generic",
  "ProtocolName": "func_task-motor_run-2",
  "PulseSequenceDetails": "%CustomerSeq%_cmrr_mbep2d_bold",
  "ReceiveCoilActiveElements": "HC1-7;NC1,2",
  "ReceiveCoilName": "HeadNeck_64",
  "ReconMatrixPE": 104,
  "RepetitionTime": 1.49,
  "SAR": 0.0287714,
  "ScanOptions": "FS",
  "ScanningSequence": "EP",
  "SequenceName": "epfid2d1_104",
  "SequenceVariant": "SK_SS",
  "SeriesDescription": "func_task-motor_run-2",
  "SeriesNumber": 25,
  "ShimSetting": [636, -7134, -8787, 640, 49, 186, 0, 3],
  "SliceThickness": 2,
  "SliceTiming": [0, 0.785, 0.0975, 0.8825, 0.195, 0.98, 0.295, 1.0775, 0.3925, 1.175, 0.49, 1.275, 0.5875, 1.3725, 0.685, 0, 0.785, 0.0975, 0.8825, 0.195, 0.98, 0.295, 1.0775, 0.3925, 1.175, 0.49, 1.275, 0.5875, 1.3725, 0.685, 0, 0.785, 0.0975, 0.8825, 0.195, 0.98, 0.295, 1.0775, 0.3925, 1.175, 0.49, 1.275, 0.5875, 1.3725, 0.685, 0, 0.785, 0.0975, 0.8825, 0.195, 0.98, 0.295, 1.0775, 0.3925, 1.175, 0.49, 1.275, 0.5875, 1.3725, 0.685],
  "SoftwareVersions": "syngo_MR_E11",
  "SpacingBetweenSlices": 2,
  "StationName": "MRC35049",
  "TaskName": "motor",
  "TotalReadoutTime": 0.0576811,
  "TxRefAmp": 206.7,
  "WipMemBlock": "84c3b180-c7dc-41e6-a7b9-dafe1ba96d69||Sequence: R016 ve11c/master r/e634e98; Dec 19 2017 11:00:25 by eja",
  "dcmmeta_affine": [
    [-1.9999245405197144, 0.015358634293079376, 0.008130858652293682, 107.99006652832031],
    [0.011341552250087261, 1.8625423908233643, -0.7285650968551636, -66.82151794433594],
    [0.013166917487978935, 0.728491485118866, 1.862559199333191, -62.40696716308594],
    [0.0, 0.0, 0.0, 1.0]
],
  "dcmmeta_reorient_transform": [
    [0.0, -1.0, 0.0, 103.0],
    [1.0, 0.0, 0.0, 0.0],
    [0.0, 0.0, 1.0, 0.0],
    [0.0, 0.0, 0.0, 1.0]
],
  "dcmmeta_shape": [104, 104, 60, 144],
  "dcmmeta_slice_dim": 2,
  "dcmmeta_version": 0.6,
  "global": {
    "const": {
      "AcquisitionMatrix": [104, 0, 0, 104],
      "AngioFlag": "N",
      "BitsAllocated": 16,
      "BitsStored": 16,
      "BodyPartExamined": "BRAIN",
      "Columns": 832,
      "EchoNumbers": 1,
      "EchoTime": 37.0,
      "EchoTrainLength": 104,
      "FlipAngle": 52.0,
      "HighBit": 15,
      "ImageOrientationPatient": [0.99996224947264, -0.0056707760384, 0.00658345872218, 0.00767931720468, 0.93127120751326, -0.3642457496582],
      "ImagePositionPatient": [-843.13506475987, -798.85746685453, 273.00580646954],
      "ImageType": [
        "ORIGINAL",
        "PRIMARY",
        "M",
        "MB",
        "ND",
        "MOSAIC"
],
      "ImagedNucleus": "1H",
      "ImagingFrequency": 123.259006,
      "InPlanePhaseEncodingDirection": "COL",
      "MRAcquisitionType": "2D",
      "MagneticFieldStrength": 3.0,
      "Manufacturer": "SIEMENS",
      "ManufacturerModelName": "Prisma_fit",
      "Modality": "MR",
      "NumberOfAverages": 1.0,
      "NumberOfPhaseEncodingSteps": 104,
      "PercentPhaseFieldOfView": 100.0,
      "PercentSampling": 100.0,
      "PerformedProcedureStepStartTime": "155450.213000",
      "PhotometricInterpretation": "MONOCHROME2",
      "PixelBandwidth": 2290.0,
      "PixelRepresentation": 0,
      "PixelSpacing": [2.0, 2.0],
      "ProtocolName": "func_task-motor_run-2",
      "RepetitionTime": 1490.0,
      "Rows": 832,
      "SAR": 0.02877144633232,
      "SamplesPerPixel": 1,
      "ScanOptions": "FS",
      "ScanningSequence": "EP",
      "SequenceName": "epfid2d1_104",
      "SequenceVariant": [
        "SK",
        "SS"
],
      "SeriesDescription": "func_task-motor_run-2",
      "SeriesNumber": 25,
      "SeriesTime": "164041.841000",
      "SliceLocation": -33.337395445364,
      "SliceThickness": 2.0,
      "SmallestImagePixelValue": 0,
      "SoftwareVersions": "syngo MR E11",
      "SpacingBetweenSlices": 1.9999999491493,
      "SpecificCharacterSet": "ISO_IR 100",
      "StudyID": "1",
      "StudyTime": "155450.091000",
      "TransmitCoilName": "Body",
      "VariableFlipAngleFlag": "N",
      "WindowCenterWidthExplanation": "Algo1",
      "dBdt": 0.0},
    "slices": {}
  },
  "time": {
    "samples": {
      "AcquisitionNumber": [1, 2, 3, 4, 5, 6, 7, 8, 9, 10, 11, 12, 13, 14, 15, 16, 17, 18, 19, 20, 21, 22, 23, 24, 25, 26, 27, 28, 29, 30, 31, 32, 33, 34, 35, 36, 37, 38, 39, 40, 41, 42, 43, 44, 45, 46, 47, 48, 49, 50, 51, 52, 53, 54, 55, 56, 57, 58, 59, 60, 61, 62, 63, 64, 65, 66, 67, 68, 69, 70, 71, 72, 73, 74, 75, 76, 77, 78, 79, 80, 81, 82, 83, 84, 85, 86, 87, 88, 89, 90, 91, 92, 93, 94, 95, 96, 97, 98, 99, 100, 101, 102, 103, 104, 105, 106, 107, 108, 109, 110, 111, 112, 113, 114, 115, 116, 117, 118, 119, 120, 121, 122, 123, 124, 125, 126, 127, 128, 129, 130, 131, 132, 133, 134, 135, 136, 137, 138, 139, 140, 141, 142, 143, 144],
      "AcquisitionTime": ["163932.665000", "163934.155000", "163935.645000", "163937.135000", "163938.625000", "163940.115000", "163941.605000", "163943.095000", "163944.585000", "163946.075000", "163947.565000", "163949.055000", "163950.545000", "163952.035000", "163953.525000", "163955.015000", "163956.505000", "163957.995000", "163959.485000", "164000.975000", "164002.465000", "164003.955000", "164005.445000", "164006.935000", "164008.425000", "164009.915000", "164011.405000", "164012.895000", "164014.385000", "164015.875000", "164017.365000", "164018.855000", "164020.345000", "164021.835000", "164023.325000", "164024.815000", "164026.305000", "164027.795000", "164029.285000", "164030.775000", "164032.265000", "164033.755000", "164035.245000", "164036.735000", "164038.225000", "164039.715000", "164041.205000", "164042.695000", "164044.185000", "164045.675000", "164047.165000", "164048.655000", "164050.145000", "164051.635000", "164053.125000", "164054.615000", "164056.105000", "164057.595000", "164059.085000", "164100.575000", "164102.065000", "164103.555000", "164105.045000", "164106.535000", "164108.025000", "164109.515000", "164111.005000", "164112.495000", "164113.985000", "164115.475000", "164116.965000", "164118.455000", "164119.945000", "164121.435000", "164122.925000", "164124.415000", "164125.905000", "164127.395000", "164128.885000", "164130.375000", "164131.865000", "164133.355000", "164134.845000", "164136.335000", "164137.825000", "164139.315000", "164140.805000", "164142.295000", "164143.785000", "164145.275000", "164146.765000", "164148.255000", "164149.745000", "164151.235000", "164152.725000", "164154.215000", "164155.705000", "164157.195000", "164158.685000", "164200.175000", "164201.665000", "164203.155000", "164204.645000", "164206.135000", "164207.625000", "164209.115000", "164210.605000", "164212.095000", "164213.585000", "164215.075000", "164216.565000", "164218.055000", "164219.545000", "164221.035000", "164222.525000", "164224.015000", "164225.505000", "164226.995000", "164228.485000", "164229.975000", "164231.465000", "164232.955000", "164234.445000", "164235.935000", "164237.425000", "164238.915000", "164240.405000", "164241.895000", "164243.385000", "164244.875000", "164246.365000", "164247.855000", "164249.345000", "164250.835000", "164252.325000", "164253.815000", "164255.305000", "164256.795000", "164258.285000", "164259.775000", "164301.265000", "164302.755000", "164304.245000", "164305.735000"],
      "ContentTime": ["164041.843000", "164041.847000", "164041.850000", "164041.853000", "164041.856000", "164041.859000", "164041.862000", "164041.865000", "164041.868000", "164041.871000", "164041.874000", "164041.888000", "164041.890000", "164041.893000", "164041.896000", "164101.817000", "164101.820000", "164101.823000", "164101.826000", "164101.829000", "164101.832000", "164101.835000", "164101.838000", "164101.841000", "164101.844000", "164101.847000", "164101.849000", "164101.852000", "164101.855000", "164101.858000", "164101.861000", "164101.864000", "164101.867000", "164101.870000", "164101.873000", "164121.817000", "164121.820000", "164121.823000", "164121.827000", "164121.830000", "164121.833000", "164121.837000", "164121.840000", "164121.844000", "164121.847000", "164121.850000", "164121.853000", "164121.856000", "164121.859000", "164121.862000", "164121.865000", "164121.868000", "164121.871000", "164121.874000", "164121.881000", "164141.817000", "164141.820000", "164141.823000", "164141.826000", "164141.829000", "164141.832000", "164141.835000", "164141.838000", "164141.841000", "164141.844000", "164141.847000", "164141.850000", "164141.853000", "164141.856000", "164141.859000", "164141.862000", "164141.865000", "164141.868000", "164141.871000", "164141.874000", "164141.877000", "164201.817000", "164201.820000", "164201.823000", "164201.826000", "164201.829000", "164201.832000", "164201.835000", "164201.838000", "164201.841000", "164201.844000", "164201.847000", "164201.850000", "164201.853000", "164201.856000", "164201.859000", "164201.861000", "164201.864000", "164201.867000", "164201.870000", "164201.873000", "164241.818000", "164241.821000", "164241.824000", "164241.827000", "164241.830000", "164241.833000", "164241.836000", "164241.839000", "164241.842000", "164241.845000", "164241.848000", "164241.850000", "164241.853000", "164241.856000", "164241.859000", "164241.862000", "164241.865000", "164241.868000", "164241.878000", "164241.881000", "164241.884000", "164241.887000", "164241.890000", "164241.894000", "164241.897000", "164241.900000", "164241.903000", "164241.906000", "164241.909000", "164241.912000", "164307.405000", "164307.409000", "164307.412000", "164307.415000", "164307.418000", "164307.421000", "164307.424000", "164307.427000", "164307.430000", "164307.433000", "164307.437000", "164307.440000", "164307.443000", "164307.446000", "164307.449000", "164307.452000", "164307.456000", "164307.459000"],
      "InstanceCreationTime": ["164041.843000", "164041.847000", "164041.850000", "164041.853000", "164041.856000", "164041.859000", "164041.862000", "164041.865000", "164041.868000", "164041.871000", "164041.874000", "164041.888000", "164041.890000", "164041.893000", "164041.896000", "164101.817000", "164101.820000", "164101.823000", "164101.826000", "164101.829000", "164101.832000", "164101.835000", "164101.838000", "164101.841000", "164101.844000", "164101.847000", "164101.849000", "164101.852000", "164101.855000", "164101.858000", "164101.861000", "164101.864000", "164101.867000", "164101.870000", "164101.873000", "164121.817000", "164121.820000", "164121.823000", "164121.827000", "164121.830000", "164121.833000", "164121.837000", "164121.840000", "164121.844000", "164121.847000", "164121.850000", "164121.853000", "164121.856000", "164121.859000", "164121.862000", "164121.865000", "164121.868000", "164121.871000", "164121.874000", "164121.881000", "164141.817000", "164141.820000", "164141.823000", "164141.826000", "164141.829000", "164141.832000", "164141.835000", "164141.838000", "164141.841000", "164141.844000", "164141.847000", "164141.850000", "164141.853000", "164141.856000", "164141.859000", "164141.862000", "164141.865000", "164141.868000", "164141.871000", "164141.874000", "164141.877000", "164201.817000", "164201.820000", "164201.823000", "164201.826000", "164201.829000", "164201.832000", "164201.835000", "164201.838000", "164201.841000", "164201.844000", "164201.847000", "164201.850000", "164201.853000", "164201.856000", "164201.859000", "164201.861000", "164201.864000", "164201.867000", "164201.870000", "164201.873000", "164241.818000", "164241.821000", "164241.824000", "164241.827000", "164241.830000", "164241.833000", "164241.836000", "164241.839000", "164241.842000", "164241.845000", "164241.848000", "164241.850000", "164241.853000", "164241.856000", "164241.859000", "164241.862000", "164241.865000", "164241.868000", "164241.878000", "164241.881000", "164241.884000", "164241.887000", "164241.890000", "164241.894000", "164241.897000", "164241.900000", "164241.903000", "164241.906000", "164241.909000", "164241.912000", "164307.405000", "164307.409000", "164307.412000", "164307.415000", "164307.418000", "164307.421000", "164307.424000", "164307.427000", "164307.430000", "164307.433000", "164307.437000", "164307.440000", "164307.443000", "164307.446000", "164307.449000", "164307.452000", "164307.456000", "164307.459000"],
      "InstanceNumber": [1, 2, 3, 4, 5, 6, 7, 8, 9, 10, 11, 12, 13, 14, 15, 16, 17, 18, 19, 20, 21, 22, 23, 24, 25, 26, 27, 28, 29, 30, 31, 32, 33, 34, 35, 36, 37, 38, 39, 40, 41, 42, 43, 44, 45, 46, 47, 48, 49, 50, 51, 52, 53, 54, 55, 56, 57, 58, 59, 60, 61, 62, 63, 64, 65, 66, 67, 68, 69, 70, 71, 72, 73, 74, 75, 76, 77, 78, 79, 80, 81, 82, 83, 84, 85, 86, 87, 88, 89, 90, 91, 92, 93, 94, 95, 96, 97, 98, 99, 100, 101, 102, 103, 104, 105, 106, 107, 108, 109, 110, 111, 112, 113, 114, 115, 116, 117, 118, 119, 120, 121, 122, 123, 124, 125, 126, 127, 128, 129, 130, 131, 132, 133, 134, 135, 136, 137, 138, 139, 140, 141, 142, 143, 144],
      "LargestImagePixelValue": [39364, 38199, 36941, 36639, 36702, 36412, 36594, 36262, 36760, 36728, 36472, 36603, 36192, 36604, 36230, 36206, 36157, 36311, 36434, 36528, 36484, 36052, 36277, 36271, 36356, 36136, 36239, 36316, 36528, 36044, 36648, 36485, 36211, 36910, 36148, 36339, 35811, 35894, 35891, 37096, 36218, 36402, 36648, 36030, 36016, 36546, 36194, 36217, 36098, 36028, 35881, 36428, 35901, 35949, 35826, 35886, 36796, 36054, 36189, 35909, 36180, 35691, 36082, 36075, 36252, 35847, 36065, 36271, 36406, 36294, 36678, 35930, 36203, 35986, 36317, 36081, 36416, 36057, 36022, 36624, 36060, 36166, 35748, 36149, 35880, 36164, 35816, 36050, 35914, 35544, 36185, 36790, 35918, 36037, 36089, 36194, 35775, 36401, 35935, 36448, 36538, 36688, 35970, 36088, 36513, 36141, 35906, 35913, 36274, 35660, 36481, 36256, 36028, 36046, 35943, 35932, 35521, 35974, 35621, 36185, 36127, 35980, 36062, 35839, 35996, 36075, 36188, 36250, 35864, 36145, 35703, 35931, 35836, 36036, 36099, 35974, 36027, 36229, 36493, 36003, 36422, 36467, 37006, 36939],
      "WindowCenter": [9866.0, 9824.0, 9798.0, 9790.0, 9796.0, 9797.0, 9791.0, 9807.0, 9825.0, 9825.0, 9810.0, 9799.0, 9782.0, 9777.0, 9778.0, 9779.0, 9781.0, 9788.0, 9795.0, 9796.0, 9795.0, 9781.0, 9779.0, 9787.0, 9805.0, 9815.0, 9808.0, 9797.0, 9780.0, 9778.0, 9778.0, 9788.0, 9791.0, 9806.0, 9792.0, 9773.0, 9753.0, 9743.0, 9750.0, 9772.0, 9790.0, 9801.0, 9799.0, 9775.0, 9772.0, 9777.0, 9788.0, 9793.0, 9792.0, 9776.0, 9774.0, 9787.0, 9793.0, 9785.0, 9784.0, 9789.0, 9804.0, 9800.0, 9790.0, 9783.0, 9771.0, 9771.0, 9764.0, 9770.0, 9769.0, 9771.0, 9787.0, 9798.0, 9798.0, 9782.0, 9768.0, 9763.0, 9777.0, 9772.0, 9772.0, 9779.0, 9786.0, 9781.0, 9781.0, 9780.0, 9788.0, 9782.0, 9784.0, 9780.0, 9781.0, 9772.0, 9774.0, 9789.0, 9782.0, 9769.0, 9765.0, 9768.0, 9762.0, 9770.0, 9763.0, 9763.0, 9763.0, 9779.0, 9792.0, 9800.0, 9799.0, 9795.0, 9785.0, 9807.0, 9816.0, 9802.0, 9776.0, 9756.0, 9751.0, 9761.0, 9778.0, 9779.0, 9781.0, 9790.0, 9803.0, 9794.0, 9778.0, 9749.0, 9745.0, 9759.0, 9768.0, 9765.0, 9773.0, 9766.0, 9756.0, 9762.0, 9771.0, 9779.0, 9772.0, 9770.0, 9766.0, 9764.0, 9780.0, 9790.0, 9801.0, 9795.0, 9783.0, 9775.0, 9786.0, 9805.0, 9834.0, 9871.0, 9883.0, 9857.0],
      "WindowWidth": [20912.0, 20795.0, 20731.0, 20711.0, 20718.0, 20720.0, 20708.0, 20744.0, 20783.0, 20780.0, 20748.0, 20720.0, 20683.0, 20669.0, 20672.0, 20680.0, 20684.0, 20698.0, 20711.0, 20715.0, 20709.0, 20682.0, 20677.0, 20694.0, 20737.0, 20758.0, 20744.0, 20716.0, 20678.0, 20673.0, 20676.0, 20701.0, 20707.0, 20738.0, 20707.0, 20661.0, 20617.0, 20595.0, 20613.0, 20660.0, 20707.0, 20731.0, 20724.0, 20675.0, 20661.0, 20667.0, 20696.0, 20714.0, 20710.0, 20676.0, 20670.0, 20695.0, 20715.0, 20697.0, 20691.0, 20698.0, 20730.0, 20723.0, 20698.0, 20685.0, 20659.0, 20659.0, 20646.0, 20658.0, 20655.0, 20661.0, 20695.0, 20722.0, 20721.0, 20684.0, 20649.0, 20639.0, 20671.0, 20665.0, 20663.0, 20676.0, 20692.0, 20683.0, 20682.0, 20681.0, 20694.0, 20686.0, 20689.0, 20677.0, 20681.0, 20663.0, 20669.0, 20699.0, 20685.0, 20660.0, 20647.0, 20650.0, 20641.0, 20655.0, 20640.0, 20641.0, 20643.0, 20680.0, 20712.0, 20727.0, 20724.0, 20711.0, 20697.0, 20742.0, 20761.0, 20730.0, 20670.0, 20624.0, 20612.0, 20638.0, 20678.0, 20680.0, 20686.0, 20703.0, 20735.0, 20713.0, 20674.0, 20610.0, 20601.0, 20631.0, 20650.0, 20649.0, 20666.0, 20651.0, 20628.0, 20638.0, 20659.0, 20676.0, 20661.0, 20655.0, 20653.0, 20646.0, 20679.0, 20706.0, 20732.0, 20719.0, 20687.0, 20671.0, 20693.0, 20736.0, 20804.0, 20883.0, 20910.0, 20853.0]
    },
    "slices": {}
  }
}