{
  "AcquisitionMatrixPE": 104,
  "AcquisitionNumber": 1,
  "AcquisitionTime": "16:43:54.627500",
  "BandwidthPerPixelPhaseEncode": 17.17,
  "BaseResolution": 104,
  "BodyPartExamined": "BRAIN",
  "CoilString": "HC1-7;NC1_2",
  "ConsistencyInfo": "N4_VE11C_LATEST_20160120",
  "ConversionSoftware": "dcm2niix",
  "ConversionSoftwareVersion": "v1.0.20190720  (JP2:OpenJPEG) GCC7.3.0",
  "DerivedVendorReportedEchoSpacing": 0.000560011,
  "DeviceSerialNumber": "167006",
  "DwellTime": 2.1e-06,
  "EchoTime": 0.037,
  "EchoTrainLength": 104,
  "EffectiveEchoSpacing": 0.000560011,
  "FlipAngle": 52,
  "ImageComments": "Unaliased_MB4_PE3_LB",
  "ImageOrientationPatientDICOM": [0.999962, -0.00567078, 0.00658346, 0.00767932, 0.931271, -0.364246],
  "ImageType": [
    "ORIGINAL",
    "PRIMARY",
    "M",
    "MB",
    "ND",
    "MOSAIC"
],
  "ImagingFrequency": 123.259,
  "InPlanePhaseEncodingDirectionDICOM": "COL",
  "InstitutionAddress": "Chemin_Queen-Mary_4565_Montreal_District_CA_H3W_1W5",
  "InstitutionName": "IUGM",
  "InstitutionalDepartmentName": "Department",
  "MRAcquisitionType": "2D",
  "MagneticFieldStrength": 3,
  "Manufacturer": "Siemens",
  "ManufacturersModelName": "Prisma_fit",
  "Modality": "MR",
  "MultibandAccelerationFactor": 4,
  "PartialFourier": 1,
  "PatientPosition": "HFS",
  "PercentPhaseFOV": 100,
  "PhaseEncodingDirection": "j",
  "PhaseEncodingSteps": 104,
  "PhaseResolution": 1,
  "PixelBandwidth": 2290,
  "ProcedureStepDescription": "hcptrt_generic",
  "ProtocolName": "func_task-social_run-2",
  "PulseSequenceDetails": "%CustomerSeq%_cmrr_mbep2d_bold",
  "ReceiveCoilActiveElements": "HC1-7;NC1,2",
  "ReceiveCoilName": "HeadNeck_64",
  "ReconMatrixPE": 104,
  "RepetitionTime": 1.49,
  "SAR": 0.028758,
  "ScanOptions": "FS",
  "ScanningSequence": "EP",
  "SequenceName": "epfid2d1_104",
  "SequenceVariant": "SK_SS",
  "SeriesDescription": "func_task-social_run-2",
  "SeriesNumber": 27,
  "ShimSetting": [636, -7134, -8787, 640, 49, 186, 0, 3],
  "SliceThickness": 2,
  "SliceTiming": [0, 0.7825, 0.0975, 0.8825, 0.195, 0.98, 0.2925, 1.0775, 0.3925, 1.175, 0.49, 1.2725, 0.5875, 1.3725, 0.685, 0, 0.7825, 0.0975, 0.8825, 0.195, 0.98, 0.2925, 1.0775, 0.3925, 1.175, 0.49, 1.2725, 0.5875, 1.3725, 0.685, 0, 0.7825, 0.0975, 0.8825, 0.195, 0.98, 0.2925, 1.0775, 0.3925, 1.175, 0.49, 1.2725, 0.5875, 1.3725, 0.685, 0, 0.7825, 0.0975, 0.8825, 0.195, 0.98, 0.2925, 1.0775, 0.3925, 1.175, 0.49, 1.2725, 0.5875, 1.3725, 0.685],
  "SoftwareVersions": "syngo_MR_E11",
  "SpacingBetweenSlices": 2,
  "StationName": "MRC35049",
  "TaskName": "social",
  "TotalReadoutTime": 0.0576811,
  "TxRefAmp": 206.7,
  "WipMemBlock": "22af712d-4e76-4835-b117-335fb22fa3ca||Sequence: R016 ve11c/master r/e634e98; Dec 19 2017 11:00:25 by eja",
  "dcmmeta_affine": [
    [-1.9999245405197144, 0.015358634293079376, 0.008130858652293682, 107.99006652832031],
    [0.011341552250087261, 1.8625423908233643, -0.7285650968551636, -66.82151794433594],
    [0.013166917487978935, 0.728491485118866, 1.862559199333191, -62.40696716308594],
    [0.0, 0.0, 0.0, 1.0]
],
  "dcmmeta_reorient_transform": [
    [0.0, -1.0, 0.0, 103.0],
    [1.0, 0.0, 0.0, 0.0],
    [0.0, 0.0, 1.0, 0.0],
    [0.0, 0.0, 0.0, 1.0]
],
  "dcmmeta_shape": [104, 104, 60, 139],
  "dcmmeta_slice_dim": 2,
  "dcmmeta_version": 0.6,
  "global": {
    "const": {
      "AcquisitionMatrix": [104, 0, 0, 104],
      "AngioFlag": "N",
      "BitsAllocated": 16,
      "BitsStored": 16,
      "BodyPartExamined": "BRAIN",
      "Columns": 832,
      "EchoNumbers": 1,
      "EchoTime": 37.0,
      "EchoTrainLength": 104,
      "FlipAngle": 52.0,
      "HighBit": 15,
      "ImageOrientationPatient": [0.99996224947264, -0.0056707760384, 0.00658345872218, 0.00767931720468, 0.93127120751326, -0.3642457496582],
      "ImagePositionPatient": [-843.13506475987, -798.85746685453, 273.00580646954],
      "ImageType": [
        "ORIGINAL",
        "PRIMARY",
        "M",
        "MB",
        "ND",
        "MOSAIC"
],
      "ImagedNucleus": "1H",
      "ImagingFrequency": 123.259008,
      "InPlanePhaseEncodingDirection": "COL",
      "MRAcquisitionType": "2D",
      "MagneticFieldStrength": 3.0,
      "Manufacturer": "SIEMENS",
      "ManufacturerModelName": "Prisma_fit",
      "Modality": "MR",
      "NumberOfAverages": 1.0,
      "NumberOfPhaseEncodingSteps": 104,
      "PercentPhaseFieldOfView": 100.0,
      "PercentSampling": 100.0,
      "PerformedProcedureStepStartTime": "155450.213000",
      "PhotometricInterpretation": "MONOCHROME2",
      "PixelBandwidth": 2290.0,
      "PixelRepresentation": 0,
      "PixelSpacing": [2.0, 2.0],
      "ProtocolName": "func_task-social_run-2",
      "RepetitionTime": 1490.0,
      "Rows": 832,
      "SAR": 0.02875804468987,
      "SamplesPerPixel": 1,
      "ScanOptions": "FS",
      "ScanningSequence": "EP",
      "SequenceName": "epfid2d1_104",
      "SequenceVariant": [
        "SK",
        "SS"
],
      "SeriesDescription": "func_task-social_run-2",
      "SeriesNumber": 27,
      "SeriesTime": "164527.094000",
      "SliceLocation": -33.337395445364,
      "SliceThickness": 2.0,
      "SmallestImagePixelValue": 0,
      "SoftwareVersions": "syngo MR E11",
      "SpacingBetweenSlices": 1.9999999491493,
      "SpecificCharacterSet": "ISO_IR 100",
      "StudyID": "1",
      "StudyTime": "155450.091000",
      "TransmitCoilName": "Body",
      "VariableFlipAngleFlag": "N",
      "WindowCenterWidthExplanation": "Algo1",
      "dBdt": 0.0},
    "slices": {}
  },
  "time": {
    "samples": {
      "AcquisitionNumber": [1, 2, 3, 4, 5, 6, 7, 8, 9, 10, 11, 12, 13, 14, 15, 16, 17, 18, 19, 20, 21, 22, 23, 24, 25, 26, 27, 28, 29, 30, 31, 32, 33, 34, 35, 36, 37, 38, 39, 40, 41, 42, 43, 44, 45, 46, 47, 48, 49, 50, 51, 52, 53, 54, 55, 56, 57, 58, 59, 60, 61, 62, 63, 64, 65, 66, 67, 68, 69, 70, 71, 72, 73, 74, 75, 76, 77, 78, 79, 80, 81, 82, 83, 84, 85, 86, 87, 88, 89, 90, 91, 92, 93, 94, 95, 96, 97, 98, 99, 100, 101, 102, 103, 104, 105, 106, 107, 108, 109, 110, 111, 112, 113, 114, 115, 116, 117, 118, 119, 120, 121, 122, 123, 124, 125, 126, 127, 128, 129, 130, 131, 132, 133, 134, 135, 136, 137, 138, 139],
      "AcquisitionTime": ["164354.627500", "164356.117500", "164357.607500", "164359.097500", "164400.587500", "164402.077500", "164403.567500", "164405.057500", "164406.547500", "164408.037500", "164409.527500", "164411.017500", "164412.507500", "164413.997500", "164415.487500", "164416.977500", "164418.467500", "164419.957500", "164421.447500", "164422.937500", "164424.427500", "164425.917500", "164427.407500", "164428.897500", "164430.387500", "164431.877500", "164433.367500", "164434.857500", "164436.347500", "164437.837500", "164439.327500", "164440.817500", "164442.307500", "164443.797500", "164445.287500", "164446.777500", "164448.267500", "164449.757500", "164451.247500", "164452.737500", "164454.227500", "164455.717500", "164457.207500", "164458.697500", "164500.187500", "164501.677500", "164503.167500", "164504.657500", "164506.147500", "164507.637500", "164509.127500", "164510.617500", "164512.107500", "164513.597500", "164515.087500", "164516.577500", "164518.067500", "164519.557500", "164521.047500", "164522.537500", "164524.027500", "164525.517500", "164527.007500", "164528.497500", "164529.987500", "164531.477500", "164532.967500", "164534.457500", "164535.947500", "164537.437500", "164538.927500", "164540.417500", "164541.907500", "164543.397500", "164544.887500", "164546.377500", "164547.867500", "164549.357500", "164550.847500", "164552.337500", "164553.827500", "164555.317500", "164556.807500", "164558.297500", "164559.787500", "164601.277500", "164602.767500", "164604.257500", "164605.747500", "164607.237500", "164608.727500", "164610.217500", "164611.707500", "164613.197500", "164614.687500", "164616.177500", "164617.667500", "164619.157500", "164620.647500", "164622.137500", "164623.627500", "164625.117500", "164626.607500", "164628.097500", "164629.587500", "164631.077500", "164632.567500", "164634.057500", "164635.547500", "164637.037500", "164638.527500", "164640.017500", "164641.507500", "164642.997500", "164644.487500", "164645.977500", "164647.467500", "164648.957500", "164650.447500", "164651.937500", "164653.427500", "164654.917500", "164656.407500", "164657.897500", "164659.387500", "164700.877500", "164702.367500", "164703.857500", "164705.347500", "164706.837500", "164708.327500", "164709.817500", "164711.307500", "164712.797500", "164714.287500", "164715.777500", "164717.267500", "164718.757500", "164720.247500"],
      "ContentTime": ["164527.097000", "164527.101000", "164527.104000", "164527.107000", "164527.110000", "164527.113000", "164527.116000", "164527.119000", "164527.122000", "164527.125000", "164527.128000", "164527.131000", "164527.133000", "164527.137000", "164527.140000", "164527.143000", "164527.146000", "164527.150000", "164527.152000", "164527.155000", "164527.158000", "164527.161000", "164527.164000", "164527.167000", "164527.170000", "164527.192000", "164527.195000", "164527.198000", "164527.201000", "164527.204000", "164527.207000", "164527.210000", "164527.213000", "164527.216000", "164527.225000", "164527.228000", "164527.231000", "164527.233000", "164547.065000", "164547.068000", "164547.071000", "164547.074000", "164547.077000", "164547.080000", "164547.083000", "164547.086000", "164547.089000", "164547.092000", "164547.095000", "164547.098000", "164547.101000", "164547.104000", "164547.107000", "164547.110000", "164547.113000", "164547.116000", "164547.119000", "164547.122000", "164607.065000", "164607.068000", "164607.071000", "164607.074000", "164607.077000", "164607.080000", "164607.083000", "164607.086000", "164607.089000", "164607.092000", "164607.095000", "164607.098000", "164607.101000", "164607.104000", "164607.107000", "164607.110000", "164607.113000", "164607.116000", "164607.119000", "164607.122000", "164627.066000", "164627.069000", "164627.072000", "164627.075000", "164627.078000", "164627.081000", "164627.084000", "164627.087000", "164627.090000", "164627.093000", "164627.096000", "164627.099000", "164627.102000", "164627.105000", "164627.108000", "164627.111000", "164627.113000", "164627.116000", "164627.119000", "164627.122000", "164707.065000", "164707.068000", "164707.071000", "164707.074000", "164707.077000", "164707.080000", "164707.084000", "164707.088000", "164707.092000", "164707.095000", "164707.098000", "164707.101000", "164707.104000", "164707.107000", "164707.110000", "164707.113000", "164707.116000", "164707.119000", "164707.122000", "164707.125000", "164707.128000", "164707.131000", "164707.134000", "164707.137000", "164707.140000", "164707.143000", "164707.146000", "164707.149000", "164707.152000", "164707.155000", "164722.049000", "164722.052000", "164722.055000", "164722.058000", "164722.061000", "164722.064000", "164722.067000", "164722.070000", "164722.073000", "164722.076000", "164722.079000"],
      "InstanceCreationTime": ["164527.097000", "164527.101000", "164527.104000", "164527.107000", "164527.110000", "164527.113000", "164527.116000", "164527.119000", "164527.122000", "164527.125000", "164527.128000", "164527.131000", "164527.133000", "164527.137000", "164527.140000", "164527.143000", "164527.146000", "164527.150000", "164527.152000", "164527.155000", "164527.158000", "164527.161000", "164527.164000", "164527.167000", "164527.170000", "164527.192000", "164527.195000", "164527.198000", "164527.201000", "164527.204000", "164527.207000", "164527.210000", "164527.213000", "164527.216000", "164527.225000", "164527.228000", "164527.231000", "164527.233000", "164547.065000", "164547.068000", "164547.071000", "164547.074000", "164547.077000", "164547.080000", "164547.083000", "164547.086000", "164547.089000", "164547.092000", "164547.095000", "164547.098000", "164547.101000", "164547.104000", "164547.107000", "164547.110000", "164547.113000", "164547.116000", "164547.119000", "164547.122000", "164607.065000", "164607.068000", "164607.071000", "164607.074000", "164607.077000", "164607.080000", "164607.083000", "164607.086000", "164607.089000", "164607.092000", "164607.095000", "164607.098000", "164607.101000", "164607.104000", "164607.107000", "164607.110000", "164607.113000", "164607.116000", "164607.119000", "164607.122000", "164627.066000", "164627.069000", "164627.072000", "164627.075000", "164627.078000", "164627.081000", "164627.084000", "164627.087000", "164627.090000", "164627.093000", "164627.096000", "164627.099000", "164627.102000", "164627.105000", "164627.108000", "164627.111000", "164627.113000", "164627.116000", "164627.119000", "164627.122000", "164707.065000", "164707.068000", "164707.071000", "164707.074000", "164707.077000", "164707.080000", "164707.084000", "164707.088000", "164707.092000", "164707.095000", "164707.098000", "164707.101000", "164707.104000", "164707.107000", "164707.110000", "164707.113000", "164707.116000", "164707.119000", "164707.122000", "164707.125000", "164707.128000", "164707.131000", "164707.134000", "164707.137000", "164707.140000", "164707.143000", "164707.146000", "164707.149000", "164707.152000", "164707.155000", "164722.049000", "164722.052000", "164722.055000", "164722.058000", "164722.061000", "164722.064000", "164722.067000", "164722.070000", "164722.073000", "164722.076000", "164722.079000"],
      "InstanceNumber": [1, 2, 3, 4, 5, 6, 7, 8, 9, 10, 11, 12, 13, 14, 15, 16, 17, 18, 19, 20, 21, 22, 23, 24, 25, 26, 27, 28, 29, 30, 31, 32, 33, 34, 35, 36, 37, 38, 39, 40, 41, 42, 43, 44, 45, 46, 47, 48, 49, 50, 51, 52, 53, 54, 55, 56, 57, 58, 59, 60, 61, 62, 63, 64, 65, 66, 67, 68, 69, 70, 71, 72, 73, 74, 75, 76, 77, 78, 79, 80, 81, 82, 83, 84, 85, 86, 87, 88, 89, 90, 91, 92, 93, 94, 95, 96, 97, 98, 99, 100, 101, 102, 103, 104, 105, 106, 107, 108, 109, 110, 111, 112, 113, 114, 115, 116, 117, 118, 119, 120, 121, 122, 123, 124, 125, 126, 127, 128, 129, 130, 131, 132, 133, 134, 135, 136, 137, 138, 139],
      "LargestImagePixelValue": [39394, 38439, 37247, 37133, 37095, 36919, 37193, 37291, 36725, 37118, 36859, 36829, 36844, 36985, 37390, 36904, 37388, 37296, 37463, 36627, 36975, 37305, 37639, 37673, 37799, 37259, 36760, 37294, 37016, 37125, 37455, 37433, 37637, 37235, 37485, 37427, 37532, 37437, 37428, 36857, 37030, 37726, 37195, 37526, 37613, 37564, 37996, 37888, 37550, 37268, 37532, 36795, 37236, 36785, 37439, 37244, 37050, 37417, 37233, 37459, 36453, 36940, 36802, 36668, 36763, 36510, 36958, 37407, 37068, 37095, 36506, 36803, 37017, 37040, 37066, 36913, 37359, 37391, 37177, 37173, 37425, 37312, 37534, 36927, 36995, 37015, 37417, 37352, 37390, 37049, 37014, 37429, 36974, 37178, 37360, 36958, 36844, 37086, 36993, 37413, 37597, 37234, 37026, 36914, 36881, 36668, 36949, 36645, 37006, 36770, 37662, 37268, 36699, 36752, 37197, 37310, 37039, 36745, 36631, 37254, 37184, 37064, 37355, 37013, 36766, 37131, 37137, 37010, 36953, 37287, 37177, 37015, 37335, 37251, 37846, 37469, 37151, 37309, 37096],
      "WindowCenter": [9835.0, 9807.0, 9794.0, 9793.0, 9808.0, 9804.0, 9801.0, 9790.0, 9780.0, 9785.0, 9785.0, 9788.0, 9806.0, 9822.0, 9822.0, 9809.0, 9797.0, 9793.0, 9794.0, 9806.0, 9822.0, 9831.0, 9831.0, 9814.0, 9796.0, 9778.0, 9770.0, 9774.0, 9776.0, 9783.0, 9784.0, 9783.0, 9782.0, 9786.0, 9793.0, 9804.0, 9813.0, 9815.0, 9798.0, 9789.0, 9787.0, 9801.0, 9804.0, 9814.0, 9829.0, 9831.0, 9820.0, 9804.0, 9787.0, 9780.0, 9786.0, 9789.0, 9796.0, 9800.0, 9803.0, 9798.0, 9790.0, 9795.0, 9789.0, 9793.0, 9782.0, 9772.0, 9764.0, 9762.0, 9769.0, 9779.0, 9787.0, 9786.0, 9786.0, 9787.0, 9790.0, 9796.0, 9806.0, 9807.0, 9800.0, 9789.0, 9779.0, 9777.0, 9775.0, 9795.0, 9805.0, 9799.0, 9780.0, 9762.0, 9759.0, 9774.0, 9791.0, 9802.0, 9813.0, 9814.0, 9809.0, 9807.0, 9783.0, 9772.0, 9778.0, 9781.0, 9780.0, 9796.0, 9823.0, 9824.0, 9810.0, 9783.0, 9765.0, 9762.0, 9753.0, 9752.0, 9767.0, 9780.0, 9787.0, 9782.0, 9786.0, 9780.0, 9779.0, 9787.0, 9804.0, 9806.0, 9799.0, 9788.0, 9790.0, 9797.0, 9797.0, 9789.0, 9787.0, 9796.0, 9808.0, 9808.0, 9791.0, 9772.0, 9755.0, 9765.0, 9766.0, 9778.0, 9794.0, 9805.0, 9807.0, 9799.0, 9790.0, 9789.0, 9782.0],
      "WindowWidth": [20831.0, 20754.0, 20721.0, 20717.0, 20741.0, 20736.0, 20725.0, 20699.0, 20674.0, 20681.0, 20681.0, 20694.0, 20733.0, 20769.0, 20767.0, 20742.0, 20709.0, 20699.0, 20705.0, 20736.0, 20770.0, 20787.0, 20784.0, 20744.0, 20702.0, 20663.0, 20650.0, 20654.0, 20662.0, 20678.0, 20677.0, 20675.0, 20671.0, 20686.0, 20699.0, 20729.0, 20746.0, 20751.0, 20712.0, 20694.0, 20689.0, 20716.0, 20726.0, 20752.0, 20781.0, 20786.0, 20758.0, 20722.0, 20686.0, 20672.0, 20684.0, 20694.0, 20707.0, 20720.0, 20722.0, 20715.0, 20700.0, 20705.0, 20696.0, 20700.0, 20679.0, 20656.0, 20642.0, 20636.0, 20651.0, 20673.0, 20690.0, 20688.0, 20687.0, 20688.0, 20697.0, 20707.0, 20732.0, 20735.0, 20717.0, 20691.0, 20668.0, 20663.0, 20658.0, 20705.0, 20727.0, 20715.0, 20668.0, 20633.0, 20624.0, 20655.0, 20696.0, 20720.0, 20747.0, 20747.0, 20739.0, 20732.0, 20678.0, 20656.0, 20668.0, 20679.0, 20678.0, 20711.0, 20771.0, 20770.0, 20739.0, 20680.0, 20640.0, 20630.0, 20610.0, 20611.0, 20641.0, 20675.0, 20686.0, 20679.0, 20683.0, 20674.0, 20673.0, 20689.0, 20727.0, 20731.0, 20720.0, 20692.0, 20700.0, 20715.0, 20713.0, 20694.0, 20689.0, 20709.0, 20736.0, 20735.0, 20697.0, 20652.0, 20616.0, 20634.0, 20637.0, 20667.0, 20703.0, 20727.0, 20733.0, 20713.0, 20695.0, 20691.0, 20679.0]
    },
    "slices": {}
  }
}