{
  "AcquisitionMatrixPE": 104,
  "AcquisitionNumber": 1,
  "AcquisitionTime": "16:33:45.022500",
  "BandwidthPerPixelPhaseEncode": 17.17,
  "BaseResolution": 104,
  "BodyPartExamined": "BRAIN",
  "CoilString": "HC1-7;NC1_2",
  "ConsistencyInfo": "N4_VE11C_LATEST_20160120",
  "ConversionSoftware": "dcm2niix",
  "ConversionSoftwareVersion": "v1.0.20190720  (JP2:OpenJPEG) GCC7.3.0",
  "DerivedVendorReportedEchoSpacing": 0.000560011,
  "DeviceSerialNumber": "167006",
  "DwellTime": 2.1e-06,
  "EchoTime": 0.037,
  "EchoTrainLength": 104,
  "EffectiveEchoSpacing": 0.000560011,
  "FlipAngle": 52,
  "ImageComments": "Unaliased_MB4_PE3_LB",
  "ImageOrientationPatientDICOM": [0.999962, -0.00567078, 0.00658346, 0.00767932, 0.931271, -0.364246],
  "ImageType": [
    "ORIGINAL",
    "PRIMARY",
    "M",
    "MB",
    "ND",
    "MOSAIC"
],
  "ImagingFrequency": 123.259,
  "InPlanePhaseEncodingDirectionDICOM": "COL",
  "InstitutionAddress": "Chemin_Queen-Mary_4565_Montreal_District_CA_H3W_1W5",
  "InstitutionName": "IUGM",
  "InstitutionalDepartmentName": "Department",
  "MRAcquisitionType": "2D",
  "MagneticFieldStrength": 3,
  "Manufacturer": "Siemens",
  "ManufacturersModelName": "Prisma_fit",
  "Modality": "MR",
  "MultibandAccelerationFactor": 4,
  "PartialFourier": 1,
  "PatientPosition": "HFS",
  "PercentPhaseFOV": 100,
  "PhaseEncodingDirection": "j",
  "PhaseEncodingSteps": 104,
  "PhaseResolution": 1,
  "PixelBandwidth": 2290,
  "ProcedureStepDescription": "hcptrt_generic",
  "ProtocolName": "func_task-wm_run-2",
  "PulseSequenceDetails": "%CustomerSeq%_cmrr_mbep2d_bold",
  "ReceiveCoilActiveElements": "HC1-7;NC1,2",
  "ReceiveCoilName": "HeadNeck_64",
  "ReconMatrixPE": 104,
  "RepetitionTime": 1.49,
  "SAR": 0.02888,
  "ScanOptions": "FS",
  "ScanningSequence": "EP",
  "SequenceName": "epfid2d1_104",
  "SequenceVariant": "SK_SS",
  "SeriesDescription": "func_task-wm_run-2",
  "SeriesNumber": 23,
  "ShimSetting": [636, -7134, -8787, 640, 49, 186, 0, 3],
  "SliceThickness": 2,
  "SliceTiming": [0, 0.785, 0.0975, 0.8825, 0.1975, 0.98, 0.295, 1.0775, 0.3925, 1.1775, 0.49, 1.275, 0.5875, 1.3725, 0.6875, 0, 0.785, 0.0975, 0.8825, 0.1975, 0.98, 0.295, 1.0775, 0.3925, 1.1775, 0.49, 1.275, 0.5875, 1.3725, 0.6875, 0, 0.785, 0.0975, 0.8825, 0.1975, 0.98, 0.295, 1.0775, 0.3925, 1.1775, 0.49, 1.275, 0.5875, 1.3725, 0.6875, 0, 0.785, 0.0975, 0.8825, 0.1975, 0.98, 0.295, 1.0775, 0.3925, 1.1775, 0.49, 1.275, 0.5875, 1.3725, 0.6875],
  "SoftwareVersions": "syngo_MR_E11",
  "SpacingBetweenSlices": 2,
  "StationName": "MRC35049",
  "TaskName": "wm",
  "TotalReadoutTime": 0.0576811,
  "TxRefAmp": 206.7,
  "WipMemBlock": "4c728630-6921-4d1f-86ec-c85fd70cec78||Sequence: R016 ve11c/master r/e634e98; Dec 19 2017 11:00:25 by eja",
  "dcmmeta_affine": [
    [-1.9999245405197144, 0.015358634293079376, 0.008130858652293682, 107.99006652832031],
    [0.011341552250087261, 1.8625423908233643, -0.7285650968551636, -66.82151794433594],
    [0.013166917487978935, 0.728491485118866, 1.862559199333191, -62.40696716308594],
    [0.0, 0.0, 0.0, 1.0]
],
  "dcmmeta_reorient_transform": [
    [0.0, -1.0, 0.0, 103.0],
    [1.0, 0.0, 0.0, 0.0],
    [0.0, 0.0, 1.0, 0.0],
    [0.0, 0.0, 0.0, 1.0]
],
  "dcmmeta_shape": [104, 104, 60, 202],
  "dcmmeta_slice_dim": 2,
  "dcmmeta_version": 0.6,
  "global": {
    "const": {
      "AcquisitionMatrix": [104, 0, 0, 104],
      "AngioFlag": "N",
      "BitsAllocated": 16,
      "BitsStored": 16,
      "BodyPartExamined": "BRAIN",
      "Columns": 832,
      "EchoNumbers": 1,
      "EchoTime": 37.0,
      "EchoTrainLength": 104,
      "FlipAngle": 52.0,
      "HighBit": 15,
      "ImageOrientationPatient": [0.99996224947264, -0.0056707760384, 0.00658345872218, 0.00767931720468, 0.93127120751326, -0.3642457496582],
      "ImagePositionPatient": [-843.13506475987, -798.85746685453, 273.00580646954],
      "ImageType": [
        "ORIGINAL",
        "PRIMARY",
        "M",
        "MB",
        "ND",
        "MOSAIC"
],
      "ImagedNucleus": "1H",
      "ImagingFrequency": 123.259004,
      "InPlanePhaseEncodingDirection": "COL",
      "MRAcquisitionType": "2D",
      "MagneticFieldStrength": 3.0,
      "Manufacturer": "SIEMENS",
      "ManufacturerModelName": "Prisma_fit",
      "Modality": "MR",
      "NumberOfAverages": 1.0,
      "NumberOfPhaseEncodingSteps": 104,
      "PercentPhaseFieldOfView": 100.0,
      "PercentSampling": 100.0,
      "PerformedProcedureStepStartTime": "155450.213000",
      "PhotometricInterpretation": "MONOCHROME2",
      "PixelBandwidth": 2290.0,
      "PixelRepresentation": 0,
      "PixelSpacing": [2.0, 2.0],
      "ProtocolName": "func_task-wm_run-2",
      "RepetitionTime": 1490.0,
      "Rows": 832,
      "SAR": 0.02888004158837,
      "SamplesPerPixel": 1,
      "ScanOptions": "FS",
      "ScanningSequence": "EP",
      "SequenceName": "epfid2d1_104",
      "SequenceVariant": [
        "SK",
        "SS"
],
      "SeriesDescription": "func_task-wm_run-2",
      "SeriesNumber": 23,
      "SeriesTime": "163517.077000",
      "SliceLocation": -33.337395445364,
      "SliceThickness": 2.0,
      "SmallestImagePixelValue": 0,
      "SoftwareVersions": "syngo MR E11",
      "SpacingBetweenSlices": 1.9999999491493,
      "SpecificCharacterSet": "ISO_IR 100",
      "StudyID": "1",
      "StudyTime": "155450.091000",
      "TransmitCoilName": "Body",
      "VariableFlipAngleFlag": "N",
      "WindowCenterWidthExplanation": "Algo1",
      "dBdt": 0.0},
    "slices": {}
  },
  "time": {
    "samples": {
      "AcquisitionNumber": [1, 2, 3, 4, 5, 6, 7, 8, 9, 10, 11, 12, 13, 14, 15, 16, 17, 18, 19, 20, 21, 22, 23, 24, 25, 26, 27, 28, 29, 30, 31, 32, 33, 34, 35, 36, 37, 38, 39, 40, 41, 42, 43, 44, 45, 46, 47, 48, 49, 50, 51, 52, 53, 54, 55, 56, 57, 58, 59, 60, 61, 62, 63, 64, 65, 66, 67, 68, 69, 70, 71, 72, 73, 74, 75, 76, 77, 78, 79, 80, 81, 82, 83, 84, 85, 86, 87, 88, 89, 90, 91, 92, 93, 94, 95, 96, 97, 98, 99, 100, 101, 102, 103, 104, 105, 106, 107, 108, 109, 110, 111, 112, 113, 114, 115, 116, 117, 118, 119, 120, 121, 122, 123, 124, 125, 126, 127, 128, 129, 130, 131, 132, 133, 134, 135, 136, 137, 138, 139, 140, 141, 142, 143, 144, 145, 146, 147, 148, 149, 150, 151, 152, 153, 154, 155, 156, 157, 158, 159, 160, 161, 162, 163, 164, 165, 166, 167, 168, 169, 170, 171, 172, 173, 174, 175, 176, 177, 178, 179, 180, 181, 182, 183, 184, 185, 186, 187, 188, 189, 190, 191, 192, 193, 194, 195, 196, 197, 198, 199, 200, 201, 202],
      "AcquisitionTime": ["163345.022500", "163346.512500", "163348.002500", "163349.492500", "163350.982500", "163352.472500", "163353.962500", "163355.452500", "163356.942500", "163358.432500", "163359.922500", "163401.412500", "163402.902500", "163404.392500", "163405.882500", "163407.372500", "163408.862500", "163410.352500", "163411.842500", "163413.332500", "163414.822500", "163416.312500", "163417.802500", "163419.292500", "163420.782500", "163422.272500", "163423.762500", "163425.252500", "163426.742500", "163428.232500", "163429.722500", "163431.212500", "163432.702500", "163434.192500", "163435.682500", "163437.172500", "163438.662500", "163440.152500", "163441.642500", "163443.132500", "163444.622500", "163446.112500", "163447.602500", "163449.092500", "163450.582500", "163452.072500", "163453.562500", "163455.052500", "163456.542500", "163458.032500", "163459.522500", "163501.012500", "163502.502500", "163503.992500", "163505.482500", "163506.972500", "163508.462500", "163509.952500", "163511.442500", "163512.932500", "163514.422500", "163515.912500", "163517.402500", "163518.892500", "163520.382500", "163521.872500", "163523.362500", "163524.852500", "163526.342500", "163527.832500", "163529.322500", "163530.812500", "163532.302500", "163533.792500", "163535.282500", "163536.772500", "163538.262500", "163539.752500", "163541.242500", "163542.732500", "163544.222500", "163545.712500", "163547.202500", "163548.692500", "163550.182500", "163551.672500", "163553.162500", "163554.652500", "163556.142500", "163557.632500", "163559.122500", "163600.612500", "163602.102500", "163603.592500", "163605.082500", "163606.572500", "163608.062500", "163609.552500", "163611.042500", "163612.532500", "163614.022500", "163615.512500", "163617.002500", "163618.492500", "163619.982500", "163621.472500", "163622.962500", "163624.452500", "163625.942500", "163627.432500", "163628.922500", "163630.412500", "163631.902500", "163633.392500", "163634.882500", "163636.372500", "163637.862500", "163639.352500", "163640.842500", "163642.332500", "163643.822500", "163645.312500", "163646.802500", "163648.292500", "163649.782500", "163651.272500", "163652.762500", "163654.252500", "163655.742500", "163657.232500", "163658.722500", "163700.212500", "163701.702500", "163703.192500", "163704.682500", "163706.172500", "163707.662500", "163709.152500", "163710.642500", "163712.132500", "163713.622500", "163715.112500", "163716.602500", "163718.092500", "163719.582500", "163721.072500", "163722.562500", "163724.052500", "163725.542500", "163727.032500", "163728.522500", "163730.012500", "163731.502500", "163732.992500", "163734.482500", "163735.972500", "163737.462500", "163738.952500", "163740.442500", "163741.932500", "163743.422500", "163744.912500", "163746.402500", "163747.892500", "163749.382500", "163750.872500", "163752.362500", "163753.852500", "163755.342500", "163756.832500", "163758.322500", "163759.812500", "163801.302500", "163802.792500", "163804.282500", "163805.772500", "163807.262500", "163808.752500", "163810.242500", "163811.732500", "163813.222500", "163814.712500", "163816.202500", "163817.692500", "163819.182500", "163820.672500", "163822.162500", "163823.652500", "163825.142500", "163826.632500", "163828.122500", "163829.612500", "163831.102500", "163832.592500", "163834.082500", "163835.572500", "163837.062500", "163838.552500", "163840.042500", "163841.532500", "163843.022500", "163844.512500"],
      "ContentTime": ["163517.079000", "163517.083000", "163517.086000", "163517.089000", "163517.092000", "163517.095000", "163517.098000", "163517.101000", "163517.104000", "163517.107000", "163517.110000", "163517.113000", "163517.116000", "163517.119000", "163517.122000", "163517.125000", "163517.128000", "163517.131000", "163517.133000", "163517.136000", "163517.139000", "163517.142000", "163517.145000", "163517.148000", "163517.151000", "163517.154000", "163517.157000", "163517.164000", "163517.167000", "163517.170000", "163517.173000", "163517.176000", "163537.024000", "163537.027000", "163537.030000", "163537.033000", "163537.036000", "163537.039000", "163537.042000", "163537.045000", "163537.048000", "163537.051000", "163537.054000", "163537.056000", "163537.059000", "163537.062000", "163537.065000", "163537.068000", "163537.071000", "163537.074000", "163537.077000", "163537.080000", "163557.024000", "163557.027000", "163557.030000", "163557.033000", "163557.036000", "163557.039000", "163557.042000", "163557.045000", "163557.047000", "163557.050000", "163557.053000", "163557.056000", "163557.059000", "163557.062000", "163557.065000", "163557.068000", "163557.071000", "163557.074000", "163557.077000", "163557.080000", "163617.025000", "163617.028000", "163617.031000", "163617.034000", "163617.037000", "163617.040000", "163617.043000", "163617.046000", "163617.049000", "163617.052000", "163617.055000", "163617.057000", "163617.060000", "163617.063000", "163617.066000", "163617.069000", "163617.072000", "163617.076000", "163617.079000", "163617.082000", "163637.025000", "163637.028000", "163637.031000", "163637.034000", "163637.037000", "163637.040000", "163637.043000", "163637.046000", "163637.049000", "163637.052000", "163637.055000", "163637.058000", "163637.061000", "163637.064000", "163637.067000", "163637.069000", "163637.072000", "163637.075000", "163637.078000", "163637.081000", "163717.024000", "163717.027000", "163717.030000", "163717.033000", "163717.036000", "163717.039000", "163717.042000", "163717.045000", "163717.048000", "163717.051000", "163717.057000", "163717.060000", "163717.063000", "163717.066000", "163717.069000", "163717.071000", "163717.074000", "163717.077000", "163717.080000", "163717.083000", "163717.086000", "163717.089000", "163717.092000", "163717.095000", "163717.098000", "163717.101000", "163717.104000", "163717.107000", "163717.110000", "163717.113000", "163757.024000", "163757.027000", "163757.031000", "163757.035000", "163757.038000", "163757.042000", "163757.050000", "163757.053000", "163757.056000", "163757.059000", "163757.062000", "163757.065000", "163757.068000", "163757.071000", "163757.074000", "163757.077000", "163757.080000", "163757.083000", "163757.086000", "163757.089000", "163757.092000", "163757.095000", "163757.098000", "163757.100000", "163757.103000", "163757.106000", "163837.025000", "163837.028000", "163837.031000", "163837.034000", "163837.037000", "163837.040000", "163837.043000", "163837.046000", "163837.049000", "163837.052000", "163837.055000", "163837.058000", "163837.061000", "163837.063000", "163837.066000", "163837.069000", "163837.072000", "163837.075000", "163837.078000", "163837.081000", "163837.084000", "163837.087000", "163837.090000", "163837.093000", "163837.096000", "163837.099000", "163837.102000", "163846.269000", "163846.273000", "163846.276000", "163846.279000", "163846.282000", "163846.285000", "163846.289000"],
      "InstanceCreationTime": ["163517.079000", "163517.083000", "163517.086000", "163517.089000", "163517.092000", "163517.095000", "163517.098000", "163517.101000", "163517.104000", "163517.107000", "163517.110000", "163517.113000", "163517.116000", "163517.119000", "163517.122000", "163517.125000", "163517.128000", "163517.131000", "163517.133000", "163517.136000", "163517.139000", "163517.142000", "163517.145000", "163517.148000", "163517.151000", "163517.154000", "163517.157000", "163517.164000", "163517.167000", "163517.170000", "163517.173000", "163517.176000", "163537.024000", "163537.027000", "163537.030000", "163537.033000", "163537.036000", "163537.039000", "163537.042000", "163537.045000", "163537.048000", "163537.051000", "163537.054000", "163537.056000", "163537.059000", "163537.062000", "163537.065000", "163537.068000", "163537.071000", "163537.074000", "163537.077000", "163537.080000", "163557.024000", "163557.027000", "163557.030000", "163557.033000", "163557.036000", "163557.039000", "163557.042000", "163557.045000", "163557.047000", "163557.050000", "163557.053000", "163557.056000", "163557.059000", "163557.062000", "163557.065000", "163557.068000", "163557.071000", "163557.074000", "163557.077000", "163557.080000", "163617.025000", "163617.028000", "163617.031000", "163617.034000", "163617.037000", "163617.040000", "163617.043000", "163617.046000", "163617.049000", "163617.052000", "163617.055000", "163617.057000", "163617.060000", "163617.063000", "163617.066000", "163617.069000", "163617.072000", "163617.076000", "163617.079000", "163617.082000", "163637.025000", "163637.028000", "163637.031000", "163637.034000", "163637.037000", "163637.040000", "163637.043000", "163637.046000", "163637.049000", "163637.052000", "163637.055000", "163637.058000", "163637.061000", "163637.064000", "163637.067000", "163637.069000", "163637.072000", "163637.075000", "163637.078000", "163637.081000", "163717.024000", "163717.027000", "163717.030000", "163717.033000", "163717.036000", "163717.039000", "163717.042000", "163717.045000", "163717.048000", "163717.051000", "163717.057000", "163717.060000", "163717.063000", "163717.066000", "163717.069000", "163717.071000", "163717.074000", "163717.077000", "163717.080000", "163717.083000", "163717.086000", "163717.089000", "163717.092000", "163717.095000", "163717.098000", "163717.101000", "163717.104000", "163717.107000", "163717.110000", "163717.113000", "163757.024000", "163757.027000", "163757.031000", "163757.035000", "163757.038000", "163757.042000", "163757.050000", "163757.053000", "163757.056000", "163757.059000", "163757.062000", "163757.065000", "163757.068000", "163757.071000", "163757.074000", "163757.077000", "163757.080000", "163757.083000", "163757.086000", "163757.089000", "163757.092000", "163757.095000", "163757.098000", "163757.100000", "163757.103000", "163757.106000", "163837.025000", "163837.028000", "163837.031000", "163837.034000", "163837.037000", "163837.040000", "163837.043000", "163837.046000", "163837.049000", "163837.052000", "163837.055000", "163837.058000", "163837.061000", "163837.063000", "163837.066000", "163837.069000", "163837.072000", "163837.075000", "163837.078000", "163837.081000", "163837.084000", "163837.087000", "163837.090000", "163837.093000", "163837.096000", "163837.099000", "163837.102000", "163846.269000", "163846.273000", "163846.276000", "163846.279000", "163846.282000", "163846.285000", "163846.289000"],
      "InstanceNumber": [1, 2, 3, 4, 5, 6, 7, 8, 9, 10, 11, 12, 13, 14, 15, 16, 17, 18, 19, 20, 21, 22, 23, 24, 25, 26, 27, 28, 29, 30, 31, 32, 33, 34, 35, 36, 37, 38, 39, 40, 41, 42, 43, 44, 45, 46, 47, 48, 49, 50, 51, 52, 53, 54, 55, 56, 57, 58, 59, 60, 61, 62, 63, 64, 65, 66, 67, 68, 69, 70, 71, 72, 73, 74, 75, 76, 77, 78, 79, 80, 81, 82, 83, 84, 85, 86, 87, 88, 89, 90, 91, 92, 93, 94, 95, 96, 97, 98, 99, 100, 101, 102, 103, 104, 105, 106, 107, 108, 109, 110, 111, 112, 113, 114, 115, 116, 117, 118, 119, 120, 121, 122, 123, 124, 125, 126, 127, 128, 129, 130, 131, 132, 133, 134, 135, 136, 137, 138, 139, 140, 141, 142, 143, 144, 145, 146, 147, 148, 149, 150, 151, 152, 153, 154, 155, 156, 157, 158, 159, 160, 161, 162, 163, 164, 165, 166, 167, 168, 169, 170, 171, 172, 173, 174, 175, 176, 177, 178, 179, 180, 181, 182, 183, 184, 185, 186, 187, 188, 189, 190, 191, 192, 193, 194, 195, 196, 197, 198, 199, 200, 201, 202],
      "LargestImagePixelValue": [40392, 39213, 38414, 37759, 37624, 37885, 37221, 38119, 37256, 37695, 38000, 37767, 37319, 37481, 37172, 37762, 37189, 37323, 37179, 37793, 36993, 37260, 36585, 37218, 36570, 36767, 36714, 36712, 36965, 36563, 37281, 36920, 37243, 36788, 37209, 36759, 36946, 36878, 37452, 37076, 36941, 36921, 36679, 37344, 36906, 36947, 36728, 36487, 36422, 36673, 36546, 36317, 36716, 36505, 37077, 36528, 36699, 36650, 36854, 36304, 37279, 36613, 36598, 36446, 36987, 36547, 37151, 37107, 36396, 36925, 36548, 37135, 36719, 36883, 36657, 36744, 36638, 37184, 36624, 37209, 36390, 36604, 36244, 36867, 36868, 36832, 36868, 36319, 36510, 36660, 36642, 36839, 36775, 36702, 37094, 36348, 36732, 36714, 37351, 36706, 36559, 37048, 37070, 37426, 36964, 37273, 36865, 37220, 36652, 36698, 36319, 36704, 36160, 36590, 36360, 36560, 36578, 36642, 36661, 36810, 36810, 36409, 37027, 36561, 36606, 36733, 36831, 36930, 36855, 36956, 36670, 36657, 37031, 37094, 36722, 37190, 37058, 37259, 36671, 37334, 36711, 36996, 36319, 37015, 36496, 36166, 36445, 36242, 36527, 36437, 36444, 37269, 36970, 36837, 36362, 36480, 36469, 36652, 36715, 37227, 36836, 36503, 36852, 36787, 36770, 37033, 36995, 36795, 37000, 36631, 37008, 37072, 36997, 36706, 37464, 36477, 36967, 36680, 37376, 36616, 36670, 37185, 36714, 37360, 36869, 36456, 36808, 36692, 37334, 36834, 37295, 36720, 37262, 37292, 37007, 37230, 36399, 36961, 36888, 37121, 36975, 36503],
      "WindowCenter": [9891.0, 9863.0, 9837.0, 9829.0, 9821.0, 9818.0, 9805.0, 9815.0, 9819.0, 9826.0, 9824.0, 9817.0, 9810.0, 9810.0, 9813.0, 9825.0, 9830.0, 9830.0, 9823.0, 9826.0, 9821.0, 9813.0, 9798.0, 9794.0, 9787.0, 9794.0, 9803.0, 9804.0, 9809.0, 9798.0, 9799.0, 9784.0, 9783.0, 9784.0, 9789.0, 9800.0, 9803.0, 9802.0, 9792.0, 9776.0, 9772.0, 9772.0, 9782.0, 9790.0, 9794.0, 9793.0, 9794.0, 9788.0, 9786.0, 9784.0, 9770.0, 9770.0, 9777.0, 9775.0, 9773.0, 9767.0, 9776.0, 9791.0, 9800.0, 9797.0, 9803.0, 9805.0, 9815.0, 9807.0, 9796.0, 9772.0, 9774.0, 9782.0, 9785.0, 9794.0, 9807.0, 9804.0, 9795.0, 9785.0, 9793.0, 9802.0, 9804.0, 9795.0, 9779.0, 9773.0, 9767.0, 9783.0, 9796.0, 9805.0, 9806.0, 9798.0, 9794.0, 9789.0, 9787.0, 9785.0, 9775.0, 9775.0, 9775.0, 9783.0, 9791.0, 9788.0, 9795.0, 9803.0, 9795.0, 9776.0, 9776.0, 9791.0, 9811.0, 9820.0, 9805.0, 9788.0, 9779.0, 9768.0, 9760.0, 9774.0, 9787.0, 9796.0, 9791.0, 9787.0, 9787.0, 9780.0, 9788.0, 9796.0, 9804.0, 9798.0, 9795.0, 9798.0, 9804.0, 9798.0, 9797.0, 9795.0, 9797.0, 9803.0, 9804.0, 9797.0, 9789.0, 9785.0, 9777.0, 9789.0, 9794.0, 9804.0, 9804.0, 9805.0, 9814.0, 9814.0, 9799.0, 9778.0, 9762.0, 9767.0, 9775.0, 9770.0, 9769.0, 9771.0, 9785.0, 9796.0, 9807.0, 9823.0, 9826.0, 9806.0, 9782.0, 9763.0, 9769.0, 9775.0, 9785.0, 9793.0, 9795.0, 9797.0, 9806.0, 9806.0, 9798.0, 9798.0, 9802.0, 9815.0, 9823.0, 9817.0, 9808.0, 9803.0, 9787.0, 9784.0, 9790.0, 9795.0, 9801.0, 9803.0, 9802.0, 9797.0, 9803.0, 9803.0, 9796.0, 9793.0, 9794.0, 9796.0, 9803.0, 9795.0, 9792.0, 9792.0, 9800.0, 9802.0, 9811.0, 9818.0, 9813.0, 9797.0, 9798.0, 9811.0, 9809.0, 9805.0, 9780.0, 9761.0],
      "WindowWidth": [20960.0, 20880.0, 20815.0, 20793.0, 20774.0, 20763.0, 20736.0, 20753.0, 20765.0, 20779.0, 20774.0, 20760.0, 20745.0, 20744.0, 20753.0, 20778.0, 20795.0, 20796.0, 20779.0, 20780.0, 20772.0, 20755.0, 20724.0, 20708.0, 20695.0, 20712.0, 20729.0, 20733.0, 20741.0, 20722.0, 20716.0, 20685.0, 20681.0, 20686.0, 20694.0, 20719.0, 20728.0, 20724.0, 20702.0, 20665.0, 20657.0, 20657.0, 20680.0, 20698.0, 20710.0, 20707.0, 20712.0, 20697.0, 20688.0, 20683.0, 20656.0, 20658.0, 20671.0, 20663.0, 20657.0, 20647.0, 20668.0, 20703.0, 20721.0, 20720.0, 20729.0, 20734.0, 20759.0, 20742.0, 20717.0, 20664.0, 20661.0, 20679.0, 20690.0, 20712.0, 20741.0, 20731.0, 20709.0, 20687.0, 20705.0, 20726.0, 20731.0, 20712.0, 20679.0, 20660.0, 20649.0, 20686.0, 20717.0, 20738.0, 20741.0, 20722.0, 20709.0, 20701.0, 20693.0, 20687.0, 20666.0, 20665.0, 20666.0, 20682.0, 20697.0, 20696.0, 20710.0, 20727.0, 20709.0, 20667.0, 20667.0, 20698.0, 20746.0, 20762.0, 20730.0, 20696.0, 20675.0, 20650.0, 20636.0, 20665.0, 20698.0, 20716.0, 20710.0, 20694.0, 20694.0, 20681.0, 20699.0, 20716.0, 20732.0, 20722.0, 20712.0, 20718.0, 20729.0, 20720.0, 20715.0, 20708.0, 20716.0, 20728.0, 20731.0, 20717.0, 20696.0, 20686.0, 20667.0, 20692.0, 20709.0, 20733.0, 20734.0, 20737.0, 20753.0, 20753.0, 20719.0, 20671.0, 20637.0, 20645.0, 20662.0, 20655.0, 20654.0, 20659.0, 20689.0, 20714.0, 20740.0, 20771.0, 20779.0, 20731.0, 20684.0, 20642.0, 20654.0, 20665.0, 20688.0, 20708.0, 20713.0, 20717.0, 20736.0, 20737.0, 20719.0, 20721.0, 20722.0, 20758.0, 20773.0, 20760.0, 20739.0, 20724.0, 20691.0, 20683.0, 20694.0, 20710.0, 20721.0, 20727.0, 20726.0, 20718.0, 20731.0, 20730.0, 20713.0, 20704.0, 20709.0, 20715.0, 20730.0, 20712.0, 20701.0, 20700.0, 20716.0, 20721.0, 20744.0, 20756.0, 20750.0, 20714.0, 20719.0, 20744.0, 20744.0, 20731.0, 20675.0, 20632.0]
    },
    "slices": {}
  }
}