{
  "AcquisitionMatrixPE": 104,
  "AcquisitionNumber": 1,
  "AcquisitionTime": "16:27:47.290000",
  "BandwidthPerPixelPhaseEncode": 17.17,
  "BaseResolution": 104,
  "BodyPartExamined": "BRAIN",
  "CoilString": "HC1-7;NC1_2",
  "ConsistencyInfo": "N4_VE11C_LATEST_20160120",
  "ConversionSoftware": "dcm2niix",
  "ConversionSoftwareVersion": "v1.0.20190720  (JP2:OpenJPEG) GCC7.3.0",
  "DerivedVendorReportedEchoSpacing": 0.000560011,
  "DeviceSerialNumber": "167006",
  "DwellTime": 2.1e-06,
  "EchoTime": 0.037,
  "EchoTrainLength": 104,
  "EffectiveEchoSpacing": 0.000560011,
  "FlipAngle": 52,
  "ImageComments": "Unaliased_MB4_PE3_LB",
  "ImageOrientationPatientDICOM": [0.999962, -0.00567078, 0.00658346, 0.00767932, 0.931271, -0.364246],
  "ImageType": [
    "ORIGINAL",
    "PRIMARY",
    "M",
    "MB",
    "ND",
    "MOSAIC"
],
  "ImagingFrequency": 123.259,
  "InPlanePhaseEncodingDirectionDICOM": "COL",
  "InstitutionAddress": "Chemin_Queen-Mary_4565_Montreal_District_CA_H3W_1W5",
  "InstitutionName": "IUGM",
  "InstitutionalDepartmentName": "Department",
  "MRAcquisitionType": "2D",
  "MagneticFieldStrength": 3,
  "Manufacturer": "Siemens",
  "ManufacturersModelName": "Prisma_fit",
  "Modality": "MR",
  "MultibandAccelerationFactor": 4,
  "PartialFourier": 1,
  "PatientPosition": "HFS",
  "PercentPhaseFOV": 100,
  "PhaseEncodingDirection": "j",
  "PhaseEncodingSteps": 104,
  "PhaseResolution": 1,
  "PixelBandwidth": 2290,
  "ProcedureStepDescription": "hcptrt_generic",
  "ProtocolName": "func_task-wm_run-1",
  "PulseSequenceDetails": "%CustomerSeq%_cmrr_mbep2d_bold",
  "ReceiveCoilActiveElements": "HC1-7;NC1,2",
  "ReceiveCoilName": "HeadNeck_64",
  "ReconMatrixPE": 104,
  "RepetitionTime": 1.49,
  "SAR": 0.02888,
  "ScanOptions": "FS",
  "ScanningSequence": "EP",
  "SequenceName": "epfid2d1_104",
  "SequenceVariant": "SK_SS",
  "SeriesDescription": "func_task-wm_run-1",
  "SeriesNumber": 19,
  "ShimSetting": [636, -7134, -8787, 640, 49, 186, 0, 3],
  "SliceThickness": 2,
  "SliceTiming": [0, 0.785, 0.1, 0.8825, 0.1975, 0.98, 0.295, 1.0775, 0.3925, 1.1775, 0.49, 1.275, 0.59, 1.3725, 0.6875, 0, 0.785, 0.1, 0.8825, 0.1975, 0.98, 0.295, 1.0775, 0.3925, 1.1775, 0.49, 1.275, 0.59, 1.3725, 0.6875, 0, 0.785, 0.1, 0.8825, 0.1975, 0.98, 0.295, 1.0775, 0.3925, 1.1775, 0.49, 1.275, 0.59, 1.3725, 0.6875, 0, 0.785, 0.1, 0.8825, 0.1975, 0.98, 0.295, 1.0775, 0.3925, 1.1775, 0.49, 1.275, 0.59, 1.3725, 0.6875],
  "SoftwareVersions": "syngo_MR_E11",
  "SpacingBetweenSlices": 2,
  "StationName": "MRC35049",
  "TaskName": "wm",
  "TotalReadoutTime": 0.0576811,
  "TxRefAmp": 206.7,
  "WipMemBlock": "ae8098dd-d993-49e8-8856-1665dde0279c||Sequence: R016 ve11c/master r/e634e98; Dec 19 2017 11:00:25 by eja",
  "dcmmeta_affine": [
    [-1.9999245405197144, 0.015358634293079376, 0.008130858652293682, 107.99006652832031],
    [0.011341552250087261, 1.8625423908233643, -0.7285650968551636, -66.82151794433594],
    [0.013166917487978935, 0.728491485118866, 1.862559199333191, -62.40696716308594],
    [0.0, 0.0, 0.0, 1.0]
],
  "dcmmeta_reorient_transform": [
    [0.0, -1.0, 0.0, 103.0],
    [1.0, 0.0, 0.0, 0.0],
    [0.0, 0.0, 1.0, 0.0],
    [0.0, 0.0, 0.0, 1.0]
],
  "dcmmeta_shape": [104, 104, 60, 202],
  "dcmmeta_slice_dim": 2,
  "dcmmeta_version": 0.6,
  "global": {
    "const": {
      "AcquisitionMatrix": [104, 0, 0, 104],
      "AngioFlag": "N",
      "BitsAllocated": 16,
      "BitsStored": 16,
      "BodyPartExamined": "BRAIN",
      "Columns": 832,
      "EchoNumbers": 1,
      "EchoTime": 37.0,
      "EchoTrainLength": 104,
      "FlipAngle": 52.0,
      "HighBit": 15,
      "ImageOrientationPatient": [0.99996224947264, -0.0056707760384, 0.00658345872218, 0.00767931720468, 0.93127120751326, -0.3642457496582],
      "ImagePositionPatient": [-843.13506475987, -798.85746685453, 273.00580646954],
      "ImageType": [
        "ORIGINAL",
        "PRIMARY",
        "M",
        "MB",
        "ND",
        "MOSAIC"
],
      "ImagedNucleus": "1H",
      "ImagingFrequency": 123.259001,
      "InPlanePhaseEncodingDirection": "COL",
      "MRAcquisitionType": "2D",
      "MagneticFieldStrength": 3.0,
      "Manufacturer": "SIEMENS",
      "ManufacturerModelName": "Prisma_fit",
      "Modality": "MR",
      "NumberOfAverages": 1.0,
      "NumberOfPhaseEncodingSteps": 104,
      "PercentPhaseFieldOfView": 100.0,
      "PercentSampling": 100.0,
      "PerformedProcedureStepStartTime": "155450.213000",
      "PhotometricInterpretation": "MONOCHROME2",
      "PixelBandwidth": 2290.0,
      "PixelRepresentation": 0,
      "PixelSpacing": [2.0, 2.0],
      "ProtocolName": "func_task-wm_run-1",
      "RepetitionTime": 1490.0,
      "Rows": 832,
      "SAR": 0.02888004158837,
      "SamplesPerPixel": 1,
      "ScanOptions": "FS",
      "ScanningSequence": "EP",
      "SequenceName": "epfid2d1_104",
      "SequenceVariant": [
        "SK",
        "SS"
],
      "SeriesDescription": "func_task-wm_run-1",
      "SeriesNumber": 19,
      "SeriesTime": "162901.848000",
      "SliceLocation": -33.337395445364,
      "SliceThickness": 2.0,
      "SmallestImagePixelValue": 0,
      "SoftwareVersions": "syngo MR E11",
      "SpacingBetweenSlices": 1.9999999491493,
      "SpecificCharacterSet": "ISO_IR 100",
      "StudyID": "1",
      "StudyTime": "155450.091000",
      "TransmitCoilName": "Body",
      "VariableFlipAngleFlag": "N",
      "WindowCenterWidthExplanation": "Algo1",
      "dBdt": 0.0},
    "slices": {}
  },
  "time": {
    "samples": {
      "AcquisitionNumber": [1, 2, 3, 4, 5, 6, 7, 8, 9, 10, 11, 12, 13, 14, 15, 16, 17, 18, 19, 20, 21, 22, 23, 24, 25, 26, 27, 28, 29, 30, 31, 32, 33, 34, 35, 36, 37, 38, 39, 40, 41, 42, 43, 44, 45, 46, 47, 48, 49, 50, 51, 52, 53, 54, 55, 56, 57, 58, 59, 60, 61, 62, 63, 64, 65, 66, 67, 68, 69, 70, 71, 72, 73, 74, 75, 76, 77, 78, 79, 80, 81, 82, 83, 84, 85, 86, 87, 88, 89, 90, 91, 92, 93, 94, 95, 96, 97, 98, 99, 100, 101, 102, 103, 104, 105, 106, 107, 108, 109, 110, 111, 112, 113, 114, 115, 116, 117, 118, 119, 120, 121, 122, 123, 124, 125, 126, 127, 128, 129, 130, 131, 132, 133, 134, 135, 136, 137, 138, 139, 140, 141, 142, 143, 144, 145, 146, 147, 148, 149, 150, 151, 152, 153, 154, 155, 156, 157, 158, 159, 160, 161, 162, 163, 164, 165, 166, 167, 168, 169, 170, 171, 172, 173, 174, 175, 176, 177, 178, 179, 180, 181, 182, 183, 184, 185, 186, 187, 188, 189, 190, 191, 192, 193, 194, 195, 196, 197, 198, 199, 200, 201, 202],
      "AcquisitionTime": ["162747.290000", "162748.780000", "162750.270000", "162751.760000", "162753.250000", "162754.740000", "162756.230000", "162757.720000", "162759.210000", "162800.700000", "162802.190000", "162803.680000", "162805.170000", "162806.660000", "162808.150000", "162809.640000", "162811.130000", "162812.620000", "162814.110000", "162815.600000", "162817.090000", "162818.580000", "162820.070000", "162821.560000", "162823.050000", "162824.540000", "162826.030000", "162827.520000", "162829.010000", "162830.500000", "162831.990000", "162833.480000", "162834.970000", "162836.460000", "162837.950000", "162839.440000", "162840.930000", "162842.420000", "162843.910000", "162845.400000", "162846.890000", "162848.380000", "162849.870000", "162851.360000", "162852.850000", "162854.340000", "162855.830000", "162857.320000", "162858.810000", "162900.300000", "162901.790000", "162903.280000", "162904.770000", "162906.260000", "162907.750000", "162909.240000", "162910.730000", "162912.220000", "162913.710000", "162915.200000", "162916.690000", "162918.180000", "162919.670000", "162921.160000", "162922.650000", "162924.140000", "162925.630000", "162927.120000", "162928.610000", "162930.100000", "162931.590000", "162933.080000", "162934.570000", "162936.060000", "162937.550000", "162939.040000", "162940.530000", "162942.020000", "162943.510000", "162945.000000", "162946.490000", "162947.980000", "162949.470000", "162950.960000", "162952.450000", "162953.940000", "162955.430000", "162956.920000", "162958.410000", "162959.900000", "163001.390000", "163002.880000", "163004.370000", "163005.860000", "163007.350000", "163008.840000", "163010.330000", "163011.820000", "163013.310000", "163014.800000", "163016.290000", "163017.780000", "163019.270000", "163020.760000", "163022.250000", "163023.740000", "163025.230000", "163026.720000", "163028.210000", "163029.700000", "163031.190000", "163032.680000", "163034.170000", "163035.660000", "163037.150000", "163038.640000", "163040.130000", "163041.620000", "163043.110000", "163044.600000", "163046.090000", "163047.580000", "163049.070000", "163050.560000", "163052.050000", "163053.540000", "163055.030000", "163056.520000", "163058.010000", "163059.500000", "163100.990000", "163102.480000", "163103.970000", "163105.460000", "163106.950000", "163108.440000", "163109.930000", "163111.420000", "163112.910000", "163114.400000", "163115.890000", "163117.380000", "163118.870000", "163120.360000", "163121.850000", "163123.340000", "163124.830000", "163126.320000", "163127.810000", "163129.300000", "163130.790000", "163132.280000", "163133.770000", "163135.260000", "163136.750000", "163138.240000", "163139.730000", "163141.220000", "163142.710000", "163144.200000", "163145.690000", "163147.180000", "163148.670000", "163150.160000", "163151.650000", "163153.140000", "163154.630000", "163156.120000", "163157.610000", "163159.100000", "163200.590000", "163202.080000", "163203.570000", "163205.060000", "163206.550000", "163208.040000", "163209.530000", "163211.020000", "163212.510000", "163214.000000", "163215.490000", "163216.980000", "163218.470000", "163219.960000", "163221.450000", "163222.940000", "163224.430000", "163225.920000", "163227.410000", "163228.900000", "163230.390000", "163231.880000", "163233.370000", "163234.860000", "163236.350000", "163237.840000", "163239.330000", "163240.820000", "163242.310000", "163243.800000", "163245.290000", "163246.780000"],
      "ContentTime": ["162901.851000", "162901.855000", "162901.859000", "162901.862000", "162901.865000", "162901.867000", "162901.870000", "162901.879000", "162901.882000", "162901.885000", "162901.888000", "162901.891000", "162901.894000", "162901.897000", "162901.902000", "162901.905000", "162901.908000", "162901.911000", "162901.914000", "162901.917000", "162901.920000", "162921.817000", "162921.820000", "162921.823000", "162921.842000", "162921.845000", "162921.848000", "162921.851000", "162921.854000", "162921.857000", "162921.860000", "162921.863000", "162921.866000", "162921.869000", "162921.872000", "162921.875000", "162921.878000", "162921.881000", "162921.884000", "162921.887000", "162921.890000", "162941.817000", "162941.820000", "162941.823000", "162941.826000", "162941.829000", "162941.832000", "162941.835000", "162941.838000", "162941.841000", "162941.844000", "162941.853000", "162941.856000", "162941.859000", "162941.862000", "162941.865000", "162941.868000", "162941.871000", "162941.874000", "162941.877000", "162941.880000", "163001.817000", "163001.824000", "163001.827000", "163001.830000", "163001.833000", "163001.842000", "163001.845000", "163001.848000", "163001.851000", "163001.853000", "163001.863000", "163001.866000", "163001.869000", "163001.872000", "163001.874000", "163001.877000", "163001.880000", "163001.883000", "163001.886000", "163001.889000", "163021.817000", "163021.820000", "163021.823000", "163021.827000", "163021.830000", "163021.833000", "163021.836000", "163021.839000", "163021.842000", "163021.845000", "163021.847000", "163021.850000", "163021.853000", "163021.856000", "163021.859000", "163021.862000", "163021.865000", "163021.868000", "163021.871000", "163021.874000", "163021.877000", "163101.818000", "163101.821000", "163101.824000", "163101.827000", "163101.830000", "163101.833000", "163101.836000", "163101.839000", "163101.842000", "163101.845000", "163101.848000", "163101.851000", "163101.854000", "163101.864000", "163101.867000", "163101.870000", "163101.873000", "163101.876000", "163101.879000", "163101.882000", "163101.885000", "163101.888000", "163101.891000", "163101.893000", "163101.896000", "163101.907000", "163101.910000", "163101.913000", "163141.817000", "163141.820000", "163141.823000", "163141.826000", "163141.829000", "163141.837000", "163141.840000", "163141.843000", "163141.846000", "163141.849000", "163141.852000", "163141.860000", "163141.863000", "163141.866000", "163141.869000", "163141.873000", "163141.875000", "163141.878000", "163141.881000", "163141.884000", "163141.887000", "163141.890000", "163141.893000", "163141.896000", "163141.899000", "163141.902000", "163141.905000", "163221.817000", "163221.820000", "163221.823000", "163221.826000", "163221.829000", "163221.832000", "163221.835000", "163221.838000", "163221.841000", "163221.844000", "163221.847000", "163221.850000", "163221.853000", "163221.856000", "163221.859000", "163221.862000", "163221.865000", "163221.868000", "163221.871000", "163221.874000", "163221.877000", "163221.880000", "163221.882000", "163221.886000", "163221.889000", "163221.892000", "163221.894000", "163248.468000", "163248.471000", "163248.474000", "163248.477000", "163248.480000", "163248.484000", "163248.487000", "163248.490000", "163248.499000", "163248.503000", "163248.506000", "163248.509000", "163248.513000", "163248.517000", "163248.520000", "163248.525000", "163248.529000", "163248.532000"],
      "InstanceCreationTime": ["162901.851000", "162901.855000", "162901.859000", "162901.862000", "162901.865000", "162901.867000", "162901.870000", "162901.879000", "162901.882000", "162901.885000", "162901.888000", "162901.891000", "162901.894000", "162901.897000", "162901.902000", "162901.905000", "162901.908000", "162901.911000", "162901.914000", "162901.917000", "162901.920000", "162921.817000", "162921.820000", "162921.823000", "162921.842000", "162921.845000", "162921.848000", "162921.851000", "162921.854000", "162921.857000", "162921.860000", "162921.863000", "162921.866000", "162921.869000", "162921.872000", "162921.875000", "162921.878000", "162921.881000", "162921.884000", "162921.887000", "162921.890000", "162941.817000", "162941.820000", "162941.823000", "162941.826000", "162941.829000", "162941.832000", "162941.835000", "162941.838000", "162941.841000", "162941.844000", "162941.853000", "162941.856000", "162941.859000", "162941.862000", "162941.865000", "162941.868000", "162941.871000", "162941.874000", "162941.877000", "162941.880000", "163001.817000", "163001.824000", "163001.827000", "163001.830000", "163001.833000", "163001.842000", "163001.845000", "163001.848000", "163001.851000", "163001.853000", "163001.863000", "163001.866000", "163001.869000", "163001.872000", "163001.874000", "163001.877000", "163001.880000", "163001.883000", "163001.886000", "163001.889000", "163021.817000", "163021.820000", "163021.823000", "163021.827000", "163021.830000", "163021.833000", "163021.836000", "163021.839000", "163021.842000", "163021.845000", "163021.847000", "163021.850000", "163021.853000", "163021.856000", "163021.859000", "163021.862000", "163021.865000", "163021.868000", "163021.871000", "163021.874000", "163021.877000", "163101.818000", "163101.821000", "163101.824000", "163101.827000", "163101.830000", "163101.833000", "163101.836000", "163101.839000", "163101.842000", "163101.845000", "163101.848000", "163101.851000", "163101.854000", "163101.864000", "163101.867000", "163101.870000", "163101.873000", "163101.876000", "163101.879000", "163101.882000", "163101.885000", "163101.888000", "163101.891000", "163101.893000", "163101.896000", "163101.907000", "163101.910000", "163101.913000", "163141.817000", "163141.820000", "163141.823000", "163141.826000", "163141.829000", "163141.837000", "163141.840000", "163141.843000", "163141.846000", "163141.849000", "163141.852000", "163141.860000", "163141.863000", "163141.866000", "163141.869000", "163141.873000", "163141.875000", "163141.878000", "163141.881000", "163141.884000", "163141.887000", "163141.890000", "163141.893000", "163141.896000", "163141.899000", "163141.902000", "163141.905000", "163221.817000", "163221.820000", "163221.823000", "163221.826000", "163221.829000", "163221.832000", "163221.835000", "163221.838000", "163221.841000", "163221.844000", "163221.847000", "163221.850000", "163221.853000", "163221.856000", "163221.859000", "163221.862000", "163221.865000", "163221.868000", "163221.871000", "163221.874000", "163221.877000", "163221.880000", "163221.882000", "163221.886000", "163221.889000", "163221.892000", "163221.894000", "163248.468000", "163248.471000", "163248.474000", "163248.477000", "163248.480000", "163248.484000", "163248.487000", "163248.490000", "163248.499000", "163248.503000", "163248.506000", "163248.509000", "163248.513000", "163248.517000", "163248.520000", "163248.525000", "163248.529000", "163248.532000"],
      "InstanceNumber": [1, 2, 3, 4, 5, 6, 7, 8, 9, 10, 11, 12, 13, 14, 15, 16, 17, 18, 19, 20, 21, 22, 23, 24, 25, 26, 27, 28, 29, 30, 31, 32, 33, 34, 35, 36, 37, 38, 39, 40, 41, 42, 43, 44, 45, 46, 47, 48, 49, 50, 51, 52, 53, 54, 55, 56, 57, 58, 59, 60, 61, 62, 63, 64, 65, 66, 67, 68, 69, 70, 71, 72, 73, 74, 75, 76, 77, 78, 79, 80, 81, 82, 83, 84, 85, 86, 87, 88, 89, 90, 91, 92, 93, 94, 95, 96, 97, 98, 99, 100, 101, 102, 103, 104, 105, 106, 107, 108, 109, 110, 111, 112, 113, 114, 115, 116, 117, 118, 119, 120, 121, 122, 123, 124, 125, 126, 127, 128, 129, 130, 131, 132, 133, 134, 135, 136, 137, 138, 139, 140, 141, 142, 143, 144, 145, 146, 147, 148, 149, 150, 151, 152, 153, 154, 155, 156, 157, 158, 159, 160, 161, 162, 163, 164, 165, 166, 167, 168, 169, 170, 171, 172, 173, 174, 175, 176, 177, 178, 179, 180, 181, 182, 183, 184, 185, 186, 187, 188, 189, 190, 191, 192, 193, 194, 195, 196, 197, 198, 199, 200, 201, 202],
      "LargestImagePixelValue": [39677, 37658, 37811, 37607, 37340, 37117, 36424, 37288, 36775, 37533, 37209, 37315, 37168, 37050, 36667, 37048, 36866, 36601, 36812, 36458, 36562, 36462, 36596, 36258, 36834, 36566, 36876, 36508, 36579, 37010, 36655, 36428, 36676, 36366, 36607, 36349, 36282, 36318, 36409, 36148, 36186, 36271, 36678, 36181, 36522, 36385, 36066, 36764, 36274, 36348, 36346, 36517, 36311, 36088, 36446, 36241, 36432, 36630, 36535, 36604, 36354, 36678, 36535, 36443, 36165, 36209, 36466, 36290, 36078, 36189, 36368, 36205, 36329, 36066, 36153, 36974, 36120, 36223, 36658, 36401, 36438, 36294, 36615, 36361, 36749, 35946, 36624, 36205, 36496, 36138, 36369, 36526, 36493, 36758, 36134, 36531, 36136, 36624, 36368, 36615, 36174, 36234, 36031, 36614, 35775, 36421, 36450, 36096, 36213, 36140, 36868, 36540, 36175, 36290, 36387, 36132, 36284, 36369, 36755, 36573, 36182, 36281, 36231, 36005, 36155, 35932, 36359, 36198, 36086, 36576, 36165, 36161, 36210, 36162, 36618, 36440, 36454, 36317, 36210, 36064, 36704, 36337, 36612, 36017, 36361, 36420, 36320, 36813, 36264, 36491, 36321, 35929, 36560, 36373, 36913, 36465, 36394, 36695, 36233, 36659, 36382, 36570, 36716, 36296, 36396, 36614, 36116, 36947, 36123, 36985, 36575, 36714, 36611, 36493, 37239, 36395, 36479, 36802, 36804, 36995, 36735, 36444, 37024, 36866, 36902, 36450, 36502, 36905, 36605, 36295, 36926, 36351, 36605, 36581, 36641, 36801, 37151, 36327, 36904, 36551, 36436, 36243],
      "WindowCenter": [9892.0, 9855.0, 9850.0, 9840.0, 9830.0, 9829.0, 9834.0, 9846.0, 9857.0, 9865.0, 9858.0, 9840.0, 9819.0, 9802.0, 9801.0, 9801.0, 9809.0, 9811.0, 9821.0, 9824.0, 9821.0, 9814.0, 9806.0, 9805.0, 9804.0, 9811.0, 9818.0, 9815.0, 9822.0, 9819.0, 9803.0, 9794.0, 9792.0, 9794.0, 9786.0, 9793.0, 9786.0, 9796.0, 9813.0, 9807.0, 9805.0, 9795.0, 9807.0, 9805.0, 9823.0, 9815.0, 9797.0, 9791.0, 9778.0, 9784.0, 9792.0, 9810.0, 9823.0, 9844.0, 9840.0, 9819.0, 9803.0, 9796.0, 9796.0, 9795.0, 9795.0, 9793.0, 9795.0, 9802.0, 9806.0, 9808.0, 9807.0, 9800.0, 9797.0, 9798.0, 9788.0, 9788.0, 9795.0, 9796.0, 9806.0, 9810.0, 9806.0, 9804.0, 9805.0, 9815.0, 9825.0, 9819.0, 9817.0, 9807.0, 9812.0, 9817.0, 9833.0, 9819.0, 9799.0, 9780.0, 9778.0, 9794.0, 9810.0, 9819.0, 9823.0, 9814.0, 9798.0, 9785.0, 9792.0, 9792.0, 9803.0, 9813.0, 9815.0, 9806.0, 9791.0, 9795.0, 9796.0, 9787.0, 9780.0, 9779.0, 9784.0, 9793.0, 9796.0, 9814.0, 9816.0, 9815.0, 9815.0, 9814.0, 9813.0, 9814.0, 9815.0, 9817.0, 9818.0, 9816.0, 9807.0, 9791.0, 9803.0, 9805.0, 9814.0, 9816.0, 9817.0, 9807.0, 9798.0, 9806.0, 9816.0, 9823.0, 9809.0, 9807.0, 9800.0, 9797.0, 9802.0, 9813.0, 9820.0, 9809.0, 9797.0, 9788.0, 9785.0, 9785.0, 9787.0, 9802.0, 9814.0, 9811.0, 9806.0, 9788.0, 9786.0, 9801.0, 9813.0, 9824.0, 9819.0, 9815.0, 9809.0, 9805.0, 9812.0, 9799.0, 9806.0, 9806.0, 9807.0, 9813.0, 9800.0, 9803.0, 9804.0, 9803.0, 9807.0, 9815.0, 9820.0, 9815.0, 9809.0, 9813.0, 9812.0, 9811.0, 9804.0, 9804.0, 9810.0, 9804.0, 9794.0, 9796.0, 9806.0, 9812.0, 9796.0, 9780.0, 9792.0, 9803.0, 9790.0, 9786.0, 9779.0, 9785.0, 9794.0, 9798.0, 9812.0, 9805.0, 9798.0, 9789.0],
      "WindowWidth": [20963.0, 20875.0, 20852.0, 20824.0, 20797.0, 20792.0, 20808.0, 20828.0, 20855.0, 20867.0, 20852.0, 20809.0, 20762.0, 20727.0, 20727.0, 20725.0, 20744.0, 20749.0, 20773.0, 20783.0, 20774.0, 20758.0, 20743.0, 20739.0, 20737.0, 20751.0, 20762.0, 20763.0, 20776.0, 20764.0, 20731.0, 20709.0, 20704.0, 20710.0, 20694.0, 20708.0, 20695.0, 20717.0, 20754.0, 20740.0, 20736.0, 20713.0, 20737.0, 20738.0, 20778.0, 20757.0, 20715.0, 20697.0, 20674.0, 20684.0, 20707.0, 20746.0, 20780.0, 20826.0, 20813.0, 20769.0, 20727.0, 20714.0, 20717.0, 20714.0, 20713.0, 20710.0, 20713.0, 20729.0, 20742.0, 20748.0, 20746.0, 20731.0, 20722.0, 20722.0, 20700.0, 20702.0, 20713.0, 20718.0, 20740.0, 20745.0, 20740.0, 20737.0, 20740.0, 20764.0, 20785.0, 20774.0, 20765.0, 20742.0, 20751.0, 20765.0, 20801.0, 20769.0, 20722.0, 20680.0, 20676.0, 20712.0, 20746.0, 20766.0, 20777.0, 20754.0, 20719.0, 20688.0, 20701.0, 20704.0, 20731.0, 20756.0, 20757.0, 20734.0, 20704.0, 20710.0, 20716.0, 20697.0, 20682.0, 20679.0, 20687.0, 20710.0, 20720.0, 20760.0, 20765.0, 20760.0, 20763.0, 20760.0, 20754.0, 20756.0, 20760.0, 20767.0, 20769.0, 20762.0, 20742.0, 20709.0, 20731.0, 20739.0, 20760.0, 20763.0, 20766.0, 20740.0, 20721.0, 20737.0, 20761.0, 20776.0, 20748.0, 20743.0, 20730.0, 20720.0, 20726.0, 20754.0, 20763.0, 20744.0, 20716.0, 20696.0, 20687.0, 20689.0, 20696.0, 20727.0, 20755.0, 20751.0, 20736.0, 20699.0, 20693.0, 20724.0, 20753.0, 20777.0, 20770.0, 20758.0, 20745.0, 20734.0, 20749.0, 20727.0, 20740.0, 20739.0, 20743.0, 20752.0, 20729.0, 20729.0, 20732.0, 20731.0, 20742.0, 20758.0, 20766.0, 20761.0, 20747.0, 20753.0, 20750.0, 20744.0, 20734.0, 20733.0, 20743.0, 20734.0, 20709.0, 20716.0, 20739.0, 20746.0, 20711.0, 20676.0, 20701.0, 20727.0, 20700.0, 20688.0, 20671.0, 20686.0, 20704.0, 20721.0, 20748.0, 20735.0, 20719.0, 20700.0]
    },
    "slices": {}
  }
}