{
  "AcquisitionMatrixPE": 104,
  "AcquisitionNumber": 1,
  "AcquisitionTime": "09:32:5.642500",
  "BandwidthPerPixelPhaseEncode": 17.17,
  "BaseResolution": 104,
  "BodyPartExamined": "BRAIN",
  "CoilString": "HC1-7;NC1_2",
  "ConsistencyInfo": "N4_VE11C_LATEST_20160120",
  "ConversionSoftware": "dcm2niix",
  "ConversionSoftwareVersion": "v1.0.20200427",
  "DerivedVendorReportedEchoSpacing": 0.000560011,
  "DeviceSerialNumber": "167006",
  "DwellTime": 2.1e-06,
  "EchoTime": 0.037,
  "EchoTrainLength": 104,
  "EffectiveEchoSpacing": 0.000560011,
  "FlipAngle": 52,
  "ImageComments": "Unaliased_MB4_PE3_LB",
  "ImageOrientationPatientDICOM": [0.998245, -0.00124138, -0.0592047, -0.0114995, 0.976685, -0.21437],
  "ImageType": [
    "ORIGINAL",
    "PRIMARY",
    "M",
    "MB",
    "ND",
    "MOSAIC"
],
  "ImagingFrequency": 123.259,
  "InPlanePhaseEncodingDirectionDICOM": "COL",
  "InstitutionAddress": "Chemin_Queen-Mary_4565_Montreal_District_CA_H3W_1W5",
  "InstitutionName": "IUGM",
  "InstitutionalDepartmentName": "Department",
  "MRAcquisitionType": "2D",
  "MagneticFieldStrength": 3,
  "Manufacturer": "Siemens",
  "ManufacturersModelName": "Prisma_fit",
  "Modality": "MR",
  "MultibandAccelerationFactor": 4,
  "PartialFourier": 1,
  "PatientPosition": "HFS",
  "PercentPhaseFOV": 100,
  "PercentSampling": 100,
  "PhaseEncodingDirection": "j",
  "PhaseEncodingSteps": 104,
  "PhaseResolution": 1,
  "PixelBandwidth": 2290,
  "ProcedureStepDescription": "hcptrt_generic",
  "ProtocolName": "func_task-gambling_run-1",
  "PulseSequenceDetails": "%CustomerSeq%_cmrr_mbep2d_bold",
  "ReceiveCoilActiveElements": "HC1-7;NC1,2",
  "ReceiveCoilName": "HeadNeck_64",
  "ReconMatrixPE": 104,
  "RepetitionTime": 1.49,
  "SAR": 0.029029,
  "ScanOptions": "FS",
  "ScanningSequence": "EP",
  "SequenceName": "epfid2d1_104",
  "SequenceVariant": "SK_SS",
  "SeriesDescription": "func_task-gambling_run-1",
  "SeriesNumber": 11,
  "ShimSetting": [598, -7256, -8849, 600, -49, -322, 31, 72],
  "SliceThickness": 2,
  "SliceTiming": [0, 0.7825, 0.0975, 0.8825, 0.195, 0.98, 0.2925, 1.0775, 0.3925, 1.175, 0.49, 1.2725, 0.5875, 1.3725, 0.685, 0, 0.7825, 0.0975, 0.8825, 0.195, 0.98, 0.2925, 1.0775, 0.3925, 1.175, 0.49, 1.2725, 0.5875, 1.3725, 0.685, 0, 0.7825, 0.0975, 0.8825, 0.195, 0.98, 0.2925, 1.0775, 0.3925, 1.175, 0.49, 1.2725, 0.5875, 1.3725, 0.685, 0, 0.7825, 0.0975, 0.8825, 0.195, 0.98, 0.2925, 1.0775, 0.3925, 1.175, 0.49, 1.2725, 0.5875, 1.3725, 0.685],
  "SoftwareVersions": "syngo_MR_E11",
  "SpacingBetweenSlices": 2,
  "StationName": "MRC35049",
  "TaskName": "gambling",
  "TotalReadoutTime": 0.0576811,
  "TxRefAmp": 218.149,
  "WipMemBlock": "5ea679bd-dd8a-443a-bfbf-3987c4d4250e||Sequence: R016 ve11c/master r/e634e98; Dec 19 2017 11:00:25 by eja",
  "dcmmeta_affine": [
    [-1.996490240097046, -0.022998901084065437, -0.11618080735206604, 107.35794830322266],
    [0.0024827506858855486, 1.9533696174621582, -0.42934927344322205, -73.6855239868164],
    [-0.11840931326150894, 0.4287400245666504, 1.9499132633209229, -53.52066421508789],
    [0.0, 0.0, 0.0, 1.0]
],
  "dcmmeta_reorient_transform": [
    [0.0, -1.0, 0.0, 103.0],
    [1.0, 0.0, 0.0, 0.0],
    [0.0, 0.0, 1.0, 0.0],
    [0.0, 0.0, 0.0, 1.0]
],
  "dcmmeta_shape": [104, 104, 60, 129],
  "dcmmeta_slice_dim": 2,
  "dcmmeta_version": 0.6,
  "global": {
    "const": {
      "AcquisitionMatrix": [104, 0, 0, 104],
      "AngioFlag": "N",
      "BitsAllocated": 16,
      "BitsStored": 16,
      "BodyPartExamined": "BRAIN",
      "Columns": 832,
      "EchoNumbers": 1,
      "EchoTime": 37.0,
      "EchoTrainLength": 104,
      "FlipAngle": 52.0,
      "HighBit": 15,
      "ImageOrientationPatient": [0.99824509407272, -0.0012413753608, -0.0592046547744, -0.0114994501198, 0.97668483325121, -0.214370005234],
      "ImagePositionPatient": [-823.33988799493, -837.63438855969, 189.80191085865],
      "ImageType": [
        "ORIGINAL",
        "PRIMARY",
        "M",
        "MB",
        "ND",
        "MOSAIC"
],
      "ImagedNucleus": "1H",
      "ImagingFrequency": 123.259092,
      "InPlanePhaseEncodingDirection": "COL",
      "MRAcquisitionType": "2D",
      "MagneticFieldStrength": 3.0,
      "Manufacturer": "SIEMENS",
      "ManufacturerModelName": "Prisma_fit",
      "Modality": "MR",
      "NumberOfAverages": 1.0,
      "NumberOfPhaseEncodingSteps": 104,
      "PercentPhaseFieldOfView": 100.0,
      "PercentSampling": 100.0,
      "PerformedProcedureStepStartTime": "085845.757000",
      "PhotometricInterpretation": "MONOCHROME2",
      "PixelBandwidth": 2290.0,
      "PixelRepresentation": 0,
      "PixelSpacing": [2.0, 2.0],
      "ProtocolName": "func_task-gambling_run-1",
      "RepetitionTime": 1490.0,
      "Rows": 832,
      "SAR": 0.02902899720866,
      "SamplesPerPixel": 1,
      "ScanOptions": "FS",
      "ScanningSequence": "EP",
      "SequenceName": "epfid2d1_104",
      "SequenceVariant": [
        "SK",
        "SS"
],
      "SeriesDescription": "func_task-gambling_run-1",
      "SeriesNumber": 11,
      "SeriesTime": "093302.611000",
      "SliceLocation": -42.598375398801,
      "SliceThickness": 2.0,
      "SmallestImagePixelValue": 0,
      "SoftwareVersions": "syngo MR E11",
      "SpacingBetweenSlices": 2.0000000802269,
      "SpecificCharacterSet": "ISO_IR 100",
      "StudyID": "1",
      "StudyTime": "085845.560000",
      "TransmitCoilName": "Body",
      "VariableFlipAngleFlag": "N",
      "WindowCenterWidthExplanation": "Algo1",
      "dBdt": 0.0},
    "slices": {}
  },
  "time": {
    "samples": {
      "AcquisitionNumber": [1, 2, 3, 4, 5, 6, 7, 8, 9, 10, 11, 12, 13, 14, 15, 16, 17, 18, 19, 20, 21, 22, 23, 24, 25, 26, 27, 28, 29, 30, 31, 32, 33, 34, 35, 36, 37, 38, 39, 40, 41, 42, 43, 44, 45, 46, 47, 48, 49, 50, 51, 52, 53, 54, 55, 56, 57, 58, 59, 60, 61, 62, 63, 64, 65, 66, 67, 68, 69, 70, 71, 72, 73, 74, 75, 76, 77, 78, 79, 80, 81, 82, 83, 84, 85, 86, 87, 88, 89, 90, 91, 92, 93, 94, 95, 96, 97, 98, 99, 100, 101, 102, 103, 104, 105, 106, 107, 108, 109, 110, 111, 112, 113, 114, 115, 116, 117, 118, 119, 120, 121, 122, 123, 124, 125, 126, 127, 128, 129],
      "AcquisitionTime": ["093205.642500", "093207.132500", "093208.622500", "093210.112500", "093211.602500", "093213.092500", "093214.582500", "093216.072500", "093217.562500", "093219.052500", "093220.542500", "093222.032500", "093223.522500", "093225.012500", "093226.502500", "093227.992500", "093229.482500", "093230.972500", "093232.462500", "093233.952500", "093235.442500", "093236.932500", "093238.422500", "093239.912500", "093241.402500", "093242.892500", "093244.382500", "093245.872500", "093247.362500", "093248.852500", "093250.342500", "093251.832500", "093253.322500", "093254.812500", "093256.302500", "093257.792500", "093259.282500", "093300.772500", "093302.262500", "093303.752500", "093305.242500", "093306.732500", "093308.222500", "093309.712500", "093311.202500", "093312.692500", "093314.182500", "093315.672500", "093317.162500", "093318.652500", "093320.142500", "093321.632500", "093323.122500", "093324.612500", "093326.102500", "093327.592500", "093329.082500", "093330.572500", "093332.062500", "093333.552500", "093335.042500", "093336.532500", "093338.022500", "093339.512500", "093341.002500", "093342.492500", "093343.982500", "093345.472500", "093346.962500", "093348.452500", "093349.942500", "093351.432500", "093352.922500", "093354.412500", "093355.902500", "093357.392500", "093358.882500", "093400.372500", "093401.862500", "093403.352500", "093404.842500", "093406.332500", "093407.822500", "093409.312500", "093410.802500", "093412.292500", "093413.782500", "093415.272500", "093416.762500", "093418.252500", "093419.742500", "093421.232500", "093422.722500", "093424.212500", "093425.702500", "093427.192500", "093428.682500", "093430.172500", "093431.662500", "093433.152500", "093434.642500", "093436.132500", "093437.622500", "093439.112500", "093440.602500", "093442.092500", "093443.582500", "093445.072500", "093446.562500", "093448.052500", "093449.542500", "093451.032500", "093452.522500", "093454.012500", "093455.502500", "093456.992500", "093458.482500", "093459.972500", "093501.462500", "093502.952500", "093504.442500", "093505.932500", "093507.422500", "093508.912500", "093510.402500", "093511.892500", "093513.382500", "093514.872500", "093516.362500"],
      "ContentTime": ["093302.613000", "093302.617000", "093322.583000", "093322.586000", "093322.589000", "093322.593000", "093322.596000", "093322.598000", "093322.601000", "093322.604000", "093322.607000", "093322.610000", "093322.613000", "093322.616000", "093322.619000", "093322.621000", "093322.624000", "093322.628000", "093322.631000", "093322.634000", "093322.637000", "093322.640000", "093322.642000", "093342.583000", "093342.586000", "093342.589000", "093342.592000", "093342.595000", "093342.597000", "093342.600000", "093342.603000", "093342.606000", "093342.609000", "093342.612000", "093342.615000", "093342.617000", "093342.620000", "093342.623000", "093342.626000", "093342.629000", "093342.632000", "093342.635000", "093342.638000", "093402.583000", "093402.586000", "093402.589000", "093402.592000", "093402.594000", "093402.597000", "093402.600000", "093402.603000", "093402.606000", "093402.609000", "093402.612000", "093402.615000", "093402.617000", "093402.620000", "093402.623000", "093402.626000", "093402.629000", "093402.632000", "093402.635000", "093402.638000", "093422.583000", "093422.597000", "093422.599000", "093422.602000", "093422.605000", "093422.608000", "093422.611000", "093422.614000", "093422.617000", "093422.620000", "093422.622000", "093422.625000", "093422.628000", "093422.631000", "093422.634000", "093422.637000", "093422.639000", "093422.642000", "093422.645000", "093422.648000", "093442.583000", "093442.586000", "093442.589000", "093442.592000", "093442.594000", "093442.597000", "093442.600000", "093442.603000", "093442.606000", "093442.609000", "093442.612000", "093442.615000", "093442.618000", "093442.620000", "093442.623000", "093442.626000", "093442.629000", "093442.632000", "093442.635000", "093442.638000", "093442.640000", "093518.290000", "093518.293000", "093518.296000", "093518.299000", "093518.309000", "093518.312000", "093518.315000", "093518.318000", "093518.321000", "093518.324000", "093518.327000", "093518.330000", "093518.333000", "093518.336000", "093518.339000", "093518.342000", "093518.345000", "093518.348000", "093518.350000", "093518.353000", "093518.356000", "093518.360000", "093518.363000", "093518.365000", "093518.368000"],
      "InstanceCreationTime": ["093302.613000", "093302.617000", "093322.583000", "093322.586000", "093322.589000", "093322.593000", "093322.596000", "093322.598000", "093322.601000", "093322.604000", "093322.607000", "093322.610000", "093322.613000", "093322.616000", "093322.619000", "093322.621000", "093322.624000", "093322.628000", "093322.631000", "093322.634000", "093322.637000", "093322.640000", "093322.642000", "093342.583000", "093342.586000", "093342.589000", "093342.592000", "093342.595000", "093342.597000", "093342.600000", "093342.603000", "093342.606000", "093342.609000", "093342.612000", "093342.615000", "093342.617000", "093342.620000", "093342.623000", "093342.626000", "093342.629000", "093342.632000", "093342.635000", "093342.638000", "093402.583000", "093402.586000", "093402.589000", "093402.592000", "093402.594000", "093402.597000", "093402.600000", "093402.603000", "093402.606000", "093402.609000", "093402.612000", "093402.615000", "093402.617000", "093402.620000", "093402.623000", "093402.626000", "093402.629000", "093402.632000", "093402.635000", "093402.638000", "093422.583000", "093422.597000", "093422.599000", "093422.602000", "093422.605000", "093422.608000", "093422.611000", "093422.614000", "093422.617000", "093422.620000", "093422.622000", "093422.625000", "093422.628000", "093422.631000", "093422.634000", "093422.637000", "093422.639000", "093422.642000", "093422.645000", "093422.648000", "093442.583000", "093442.586000", "093442.589000", "093442.592000", "093442.594000", "093442.597000", "093442.600000", "093442.603000", "093442.606000", "093442.609000", "093442.612000", "093442.615000", "093442.618000", "093442.620000", "093442.623000", "093442.626000", "093442.629000", "093442.632000", "093442.635000", "093442.638000", "093442.640000", "093518.290000", "093518.293000", "093518.296000", "093518.299000", "093518.309000", "093518.312000", "093518.315000", "093518.318000", "093518.321000", "093518.324000", "093518.327000", "093518.330000", "093518.333000", "093518.336000", "093518.339000", "093518.342000", "093518.345000", "093518.348000", "093518.350000", "093518.353000", "093518.356000", "093518.360000", "093518.363000", "093518.365000", "093518.368000"],
      "InstanceNumber": [1, 2, 3, 4, 5, 6, 7, 8, 9, 10, 11, 12, 13, 14, 15, 16, 17, 18, 19, 20, 21, 22, 23, 24, 25, 26, 27, 28, 29, 30, 31, 32, 33, 34, 35, 36, 37, 38, 39, 40, 41, 42, 43, 44, 45, 46, 47, 48, 49, 50, 51, 52, 53, 54, 55, 56, 57, 58, 59, 60, 61, 62, 63, 64, 65, 66, 67, 68, 69, 70, 71, 72, 73, 74, 75, 76, 77, 78, 79, 80, 81, 82, 83, 84, 85, 86, 87, 88, 89, 90, 91, 92, 93, 94, 95, 96, 97, 98, 99, 100, 101, 102, 103, 104, 105, 106, 107, 108, 109, 110, 111, 112, 113, 114, 115, 116, 117, 118, 119, 120, 121, 122, 123, 124, 125, 126, 127, 128, 129],
      "LargestImagePixelValue": [46901, 45699, 45000, 44645, 44719, 44742, 44293, 44721, 44431, 44549, 43690, 43598, 44223, 44139, 43965, 43378, 43629, 44538, 44309, 44341, 44266, 44111, 43934, 44072, 44161, 43964, 44132, 43979, 43952, 44003, 43695, 43598, 43927, 44636, 44282, 44643, 44522, 44205, 44051, 44582, 43921, 43909, 44155, 44122, 44303, 44099, 44592, 44443, 44339, 43991, 44263, 44270, 44409, 44663, 44571, 44625, 45122, 43852, 43784, 43909, 43991, 44609, 44464, 45122, 44628, 44689, 44621, 44177, 44489, 44504, 45060, 44776, 44519, 44353, 44358, 44971, 44454, 44607, 44900, 44960, 44939, 44942, 45219, 44861, 44307, 44482, 44713, 44890, 44725, 44546, 44579, 45107, 44922, 45286, 45024, 45229, 44587, 44252, 44117, 44339, 44511, 44507, 44179, 44491, 44222, 44245, 44421, 43914, 44349, 44225, 44389, 44180, 44143, 44005, 43742, 43835, 43655, 43996, 44629, 44070, 44333, 44669, 44116, 44660, 44521, 44624, 44539, 43509, 43512],
      "WindowCenter": [10036.0, 9996.0, 9976.0, 9974.0, 9972.0, 9966.0, 9952.0, 9946.0, 9948.0, 9954.0, 9956.0, 9957.0, 9957.0, 9963.0, 9958.0, 9950.0, 9945.0, 9954.0, 9948.0, 9945.0, 9939.0, 9940.0, 9947.0, 9947.0, 9949.0, 9949.0, 9955.0, 9949.0, 9947.0, 9941.0, 9940.0, 9934.0, 9940.0, 9945.0, 9944.0, 9944.0, 9950.0, 9954.0, 9957.0, 9958.0, 9957.0, 9956.0, 9950.0, 9957.0, 9949.0, 9948.0, 9955.0, 9954.0, 9955.0, 9942.0, 9948.0, 9947.0, 9953.0, 9947.0, 9946.0, 9946.0, 9953.0, 9933.0, 9931.0, 9939.0, 9948.0, 9957.0, 9949.0, 9944.0, 9936.0, 9937.0, 9937.0, 9938.0, 9938.0, 9946.0, 9953.0, 9953.0, 9948.0, 9954.0, 9963.0, 9971.0, 9964.0, 9955.0, 9955.0, 9959.0, 9954.0, 9962.0, 9969.0, 9957.0, 9941.0, 9939.0, 9946.0, 9953.0, 9947.0, 9939.0, 9936.0, 9942.0, 9951.0, 9958.0, 9952.0, 9952.0, 9953.0, 9956.0, 9948.0, 9949.0, 9946.0, 9938.0, 9930.0, 9922.0, 9922.0, 9928.0, 9934.0, 9932.0, 9937.0, 9936.0, 9930.0, 9919.0, 9918.0, 9911.0, 9879.0, 9860.0, 9851.0, 9882.0, 9898.0, 9902.0, 9895.0, 9900.0, 9902.0, 9911.0, 9912.0, 9922.0, 9921.0, 9928.0, 9934.0],
      "WindowWidth": [21481.0, 21363.0, 21302.0, 21288.0, 21277.0, 21264.0, 21234.0, 21213.0, 21219.0, 21232.0, 21237.0, 21241.0, 21241.0, 21251.0, 21241.0, 21225.0, 21215.0, 21231.0, 21217.0, 21210.0, 21200.0, 21200.0, 21213.0, 21216.0, 21221.0, 21225.0, 21235.0, 21223.0, 21218.0, 21206.0, 21202.0, 21190.0, 21202.0, 21213.0, 21208.0, 21210.0, 21220.0, 21231.0, 21240.0, 21242.0, 21242.0, 21239.0, 21226.0, 21241.0, 21222.0, 21221.0, 21235.0, 21233.0, 21233.0, 21210.0, 21221.0, 21217.0, 21226.0, 21214.0, 21214.0, 21214.0, 21230.0, 21191.0, 21182.0, 21199.0, 21219.0, 21239.0, 21223.0, 21205.0, 21188.0, 21191.0, 21191.0, 21195.0, 21195.0, 21211.0, 21227.0, 21227.0, 21217.0, 21232.0, 21252.0, 21270.0, 21254.0, 21233.0, 21232.0, 21237.0, 21230.0, 21248.0, 21262.0, 21238.0, 21203.0, 21198.0, 21212.0, 21228.0, 21216.0, 21198.0, 21191.0, 21201.0, 21222.0, 21235.0, 21224.0, 21224.0, 21226.0, 21233.0, 21217.0, 21219.0, 21211.0, 21194.0, 21177.0, 21158.0, 21157.0, 21173.0, 21184.0, 21185.0, 21194.0, 21192.0, 21176.0, 21147.0, 21147.0, 21133.0, 21063.0, 21015.0, 20996.0, 21064.0, 21102.0, 21112.0, 21098.0, 21107.0, 21110.0, 21129.0, 21130.0, 21152.0, 21153.0, 21174.0, 21187.0]
    },
    "slices": {}
  }
}