{
  "AcquisitionMatrixPE": 104,
  "AcquisitionNumber": 1,
  "AcquisitionTime": "09:36:19.082500",
  "BandwidthPerPixelPhaseEncode": 17.17,
  "BaseResolution": 104,
  "BodyPartExamined": "BRAIN",
  "CoilString": "HC1-7;NC1_2",
  "ConsistencyInfo": "N4_VE11C_LATEST_20160120",
  "ConversionSoftware": "dcm2niix",
  "ConversionSoftwareVersion": "v1.0.20200427",
  "DerivedVendorReportedEchoSpacing": 0.000560011,
  "DeviceSerialNumber": "167006",
  "DwellTime": 2.1e-06,
  "EchoTime": 0.037,
  "EchoTrainLength": 104,
  "EffectiveEchoSpacing": 0.000560011,
  "FlipAngle": 52,
  "ImageComments": "Unaliased_MB4_PE3_LB",
  "ImageOrientationPatientDICOM": [0.998245, -0.00124138, -0.0592047, -0.0114995, 0.976685, -0.21437],
  "ImageType": [
    "ORIGINAL",
    "PRIMARY",
    "M",
    "MB",
    "ND",
    "MOSAIC"
],
  "ImagingFrequency": 123.259,
  "InPlanePhaseEncodingDirectionDICOM": "COL",
  "InstitutionAddress": "Chemin_Queen-Mary_4565_Montreal_District_CA_H3W_1W5",
  "InstitutionName": "IUGM",
  "InstitutionalDepartmentName": "Department",
  "MRAcquisitionType": "2D",
  "MagneticFieldStrength": 3,
  "Manufacturer": "Siemens",
  "ManufacturersModelName": "Prisma_fit",
  "Modality": "MR",
  "MultibandAccelerationFactor": 4,
  "PartialFourier": 1,
  "PatientPosition": "HFS",
  "PercentPhaseFOV": 100,
  "PercentSampling": 100,
  "PhaseEncodingDirection": "j",
  "PhaseEncodingSteps": 104,
  "PhaseResolution": 1,
  "PixelBandwidth": 2290,
  "ProcedureStepDescription": "hcptrt_generic",
  "ProtocolName": "func_task-language_run-1",
  "PulseSequenceDetails": "%CustomerSeq%_cmrr_mbep2d_bold",
  "ReceiveCoilActiveElements": "HC1-7;NC1,2",
  "ReceiveCoilName": "HeadNeck_64",
  "ReconMatrixPE": 104,
  "RepetitionTime": 1.49,
  "SAR": 0.0291083,
  "ScanOptions": "FS",
  "ScanningSequence": "EP",
  "SequenceName": "epfid2d1_104",
  "SequenceVariant": "SK_SS",
  "SeriesDescription": "func_task-language_run-1",
  "SeriesNumber": 13,
  "ShimSetting": [598, -7256, -8849, 600, -49, -321, 31, 72],
  "SliceThickness": 2,
  "SliceTiming": [0, 0.785, 0.0975, 0.8825, 0.195, 0.98, 0.295, 1.0775, 0.3925, 1.175, 0.49, 1.275, 0.5875, 1.3725, 0.685, 0, 0.785, 0.0975, 0.8825, 0.195, 0.98, 0.295, 1.0775, 0.3925, 1.175, 0.49, 1.275, 0.5875, 1.3725, 0.685, 0, 0.785, 0.0975, 0.8825, 0.195, 0.98, 0.295, 1.0775, 0.3925, 1.175, 0.49, 1.275, 0.5875, 1.3725, 0.685, 0, 0.785, 0.0975, 0.8825, 0.195, 0.98, 0.295, 1.0775, 0.3925, 1.175, 0.49, 1.275, 0.5875, 1.3725, 0.685],
  "SoftwareVersions": "syngo_MR_E11",
  "SpacingBetweenSlices": 2,
  "StationName": "MRC35049",
  "TaskName": "language",
  "TotalReadoutTime": 0.0576811,
  "TxRefAmp": 218.149,
  "WipMemBlock": "e35fe034-266d-4d8d-82ce-02ad12d1adf1||Sequence: R016 ve11c/master r/e634e98; Dec 19 2017 11:00:25 by eja",
  "dcmmeta_affine": [
    [-1.996490240097046, -0.022998901084065437, -0.11618080735206604, 107.35794830322266],
    [0.0024827506858855486, 1.9533696174621582, -0.42934927344322205, -73.6855239868164],
    [-0.11840931326150894, 0.4287400245666504, 1.9499132633209229, -53.52066421508789],
    [0.0, 0.0, 0.0, 1.0]
],
  "dcmmeta_reorient_transform": [
    [0.0, -1.0, 0.0, 103.0],
    [1.0, 0.0, 0.0, 0.0],
    [0.0, 0.0, 1.0, 0.0],
    [0.0, 0.0, 0.0, 1.0]
],
  "dcmmeta_shape": [104, 104, 60, 159],
  "dcmmeta_slice_dim": 2,
  "dcmmeta_version": 0.6,
  "global": {
    "const": {
      "AcquisitionMatrix": [104, 0, 0, 104],
      "AngioFlag": "N",
      "BitsAllocated": 16,
      "BitsStored": 16,
      "BodyPartExamined": "BRAIN",
      "Columns": 832,
      "EchoNumbers": 1,
      "EchoTime": 37.0,
      "EchoTrainLength": 104,
      "FlipAngle": 52.0,
      "HighBit": 15,
      "ImageOrientationPatient": [0.99824509407272, -0.0012413753608, -0.0592046547744, -0.0114994501198, 0.97668483325121, -0.214370005234],
      "ImagePositionPatient": [-823.33988799493, -837.63438855969, 189.80191085865],
      "ImageType": [
        "ORIGINAL",
        "PRIMARY",
        "M",
        "MB",
        "ND",
        "MOSAIC"
],
      "ImagedNucleus": "1H",
      "ImagingFrequency": 123.259095,
      "InPlanePhaseEncodingDirection": "COL",
      "MRAcquisitionType": "2D",
      "MagneticFieldStrength": 3.0,
      "Manufacturer": "SIEMENS",
      "ManufacturerModelName": "Prisma_fit",
      "Modality": "MR",
      "NumberOfAverages": 1.0,
      "NumberOfPhaseEncodingSteps": 104,
      "PercentPhaseFieldOfView": 100.0,
      "PercentSampling": 100.0,
      "PerformedProcedureStepStartTime": "085845.757000",
      "PhotometricInterpretation": "MONOCHROME2",
      "PixelBandwidth": 2290.0,
      "PixelRepresentation": 0,
      "PixelSpacing": [2.0, 2.0],
      "ProtocolName": "func_task-language_run-1",
      "RepetitionTime": 1490.0,
      "Rows": 832,
      "SAR": 0.02910833787771,
      "SamplesPerPixel": 1,
      "ScanOptions": "FS",
      "ScanningSequence": "EP",
      "SequenceName": "epfid2d1_104",
      "SequenceVariant": [
        "SK",
        "SS"
],
      "SeriesDescription": "func_task-language_run-1",
      "SeriesNumber": 13,
      "SeriesTime": "093744.561000",
      "SliceLocation": -42.598375398801,
      "SliceThickness": 2.0,
      "SmallestImagePixelValue": 0,
      "SoftwareVersions": "syngo MR E11",
      "SpacingBetweenSlices": 2.0000000802269,
      "SpecificCharacterSet": "ISO_IR 100",
      "StudyID": "1",
      "StudyTime": "085845.560000",
      "TransmitCoilName": "Body",
      "VariableFlipAngleFlag": "N",
      "WindowCenterWidthExplanation": "Algo1",
      "dBdt": 0.0},
    "slices": {}
  },
  "time": {
    "samples": {
      "AcquisitionNumber": [1, 2, 3, 4, 5, 6, 7, 8, 9, 10, 11, 12, 13, 14, 15, 16, 17, 18, 19, 20, 21, 22, 23, 24, 25, 26, 27, 28, 29, 30, 31, 32, 33, 34, 35, 36, 37, 38, 39, 40, 41, 42, 43, 44, 45, 46, 47, 48, 49, 50, 51, 52, 53, 54, 55, 56, 57, 58, 59, 60, 61, 62, 63, 64, 65, 66, 67, 68, 69, 70, 71, 72, 73, 74, 75, 76, 77, 78, 79, 80, 81, 82, 83, 84, 85, 86, 87, 88, 89, 90, 91, 92, 93, 94, 95, 96, 97, 98, 99, 100, 101, 102, 103, 104, 105, 106, 107, 108, 109, 110, 111, 112, 113, 114, 115, 116, 117, 118, 119, 120, 121, 122, 123, 124, 125, 126, 127, 128, 129, 130, 131, 132, 133, 134, 135, 136, 137, 138, 139, 140, 141, 142, 143, 144, 145, 146, 147, 148, 149, 150, 151, 152, 153, 154, 155, 156, 157, 158, 159],
      "AcquisitionTime": ["093619.082500", "093620.572500", "093622.062500", "093623.552500", "093625.042500", "093626.532500", "093628.022500", "093629.512500", "093631.002500", "093632.492500", "093633.982500", "093635.472500", "093636.962500", "093638.452500", "093639.942500", "093641.432500", "093642.922500", "093644.412500", "093645.902500", "093647.392500", "093648.882500", "093650.372500", "093651.862500", "093653.352500", "093654.842500", "093656.332500", "093657.822500", "093659.312500", "093700.802500", "093702.292500", "093703.782500", "093705.272500", "093706.762500", "093708.252500", "093709.742500", "093711.232500", "093712.722500", "093714.212500", "093715.702500", "093717.192500", "093718.682500", "093720.172500", "093721.662500", "093723.152500", "093724.642500", "093726.132500", "093727.622500", "093729.112500", "093730.602500", "093732.092500", "093733.582500", "093735.072500", "093736.562500", "093738.052500", "093739.542500", "093741.032500", "093742.522500", "093744.012500", "093745.502500", "093746.992500", "093748.482500", "093749.972500", "093751.462500", "093752.952500", "093754.442500", "093755.932500", "093757.422500", "093758.912500", "093800.402500", "093801.892500", "093803.382500", "093804.872500", "093806.362500", "093807.852500", "093809.342500", "093810.832500", "093812.322500", "093813.812500", "093815.302500", "093816.792500", "093818.282500", "093819.772500", "093821.262500", "093822.752500", "093824.242500", "093825.732500", "093827.222500", "093828.712500", "093830.202500", "093831.692500", "093833.182500", "093834.672500", "093836.162500", "093837.652500", "093839.142500", "093840.632500", "093842.122500", "093843.612500", "093845.102500", "093846.592500", "093848.082500", "093849.572500", "093851.062500", "093852.552500", "093854.042500", "093855.532500", "093857.022500", "093858.512500", "093900.002500", "093901.492500", "093902.982500", "093904.472500", "093905.962500", "093907.452500", "093908.942500", "093910.432500", "093911.922500", "093913.412500", "093914.902500", "093916.392500", "093917.882500", "093919.372500", "093920.862500", "093922.352500", "093923.842500", "093925.332500", "093926.822500", "093928.312500", "093929.802500", "093931.292500", "093932.782500", "093934.272500", "093935.762500", "093937.252500", "093938.742500", "093940.232500", "093941.722500", "093943.212500", "093944.702500", "093946.192500", "093947.682500", "093949.172500", "093950.662500", "093952.152500", "093953.642500", "093955.132500", "093956.622500", "093958.112500", "093959.602500", "094001.092500", "094002.582500", "094004.072500", "094005.562500", "094007.052500", "094008.542500", "094010.032500", "094011.522500", "094013.012500", "094014.502500"],
      "ContentTime": ["093744.563000", "093744.567000", "093744.570000", "093744.573000", "093744.576000", "093744.579000", "093744.581000", "093744.584000", "093744.593000", "093744.596000", "093744.599000", "093744.603000", "093744.606000", "093744.609000", "093744.612000", "093744.615000", "093744.618000", "093744.621000", "093744.636000", "093744.639000", "093744.641000", "093744.644000", "093744.647000", "093744.650000", "093744.653000", "093744.656000", "093744.659000", "093744.661000", "093744.665000", "093744.668000", "093804.533000", "093804.536000", "093804.539000", "093804.542000", "093804.544000", "093804.552000", "093804.555000", "093804.558000", "093804.560000", "093804.563000", "093804.566000", "093804.569000", "093804.572000", "093804.575000", "093804.578000", "093804.581000", "093804.584000", "093804.587000", "093804.589000", "093804.592000", "093804.595000", "093824.533000", "093824.536000", "093824.539000", "093824.541000", "093824.544000", "093824.547000", "093824.550000", "093824.553000", "093824.556000", "093824.559000", "093824.562000", "093824.564000", "093824.567000", "093824.570000", "093824.573000", "093824.576000", "093824.579000", "093824.582000", "093824.584000", "093824.587000", "093844.533000", "093844.536000", "093844.539000", "093844.541000", "093844.544000", "093844.547000", "093844.550000", "093844.553000", "093844.556000", "093844.559000", "093844.561000", "093844.564000", "093844.567000", "093844.573000", "093844.575000", "093844.578000", "093844.581000", "093844.584000", "093844.587000", "093844.590000", "093924.532000", "093924.535000", "093924.538000", "093924.540000", "093924.543000", "093924.546000", "093924.549000", "093924.552000", "093924.555000", "093924.558000", "093924.561000", "093924.563000", "093924.567000", "093924.569000", "093924.572000", "093924.575000", "093924.578000", "093924.581000", "093924.584000", "093924.587000", "093924.589000", "093924.592000", "093924.595000", "093924.598000", "093924.601000", "093924.619000", "093924.622000", "093924.625000", "093924.628000", "093924.631000", "093924.634000", "093924.637000", "094004.532000", "094004.535000", "094004.538000", "094004.541000", "094004.544000", "094004.547000", "094004.550000", "094004.552000", "094004.555000", "094004.558000", "094004.561000", "094004.564000", "094004.567000", "094004.570000", "094004.573000", "094004.575000", "094004.578000", "094004.581000", "094004.584000", "094004.587000", "094004.590000", "094004.593000", "094004.596000", "094004.599000", "094004.601000", "094004.604000", "094004.607000", "094016.823000", "094016.827000", "094016.829000", "094016.832000", "094016.835000", "094016.838000", "094016.841000", "094016.844000", "094016.846000"],
      "InstanceCreationTime": ["093744.563000", "093744.567000", "093744.570000", "093744.573000", "093744.576000", "093744.579000", "093744.581000", "093744.584000", "093744.593000", "093744.596000", "093744.599000", "093744.603000", "093744.606000", "093744.609000", "093744.612000", "093744.615000", "093744.618000", "093744.621000", "093744.636000", "093744.639000", "093744.641000", "093744.644000", "093744.647000", "093744.650000", "093744.653000", "093744.656000", "093744.659000", "093744.661000", "093744.665000", "093744.668000", "093804.533000", "093804.536000", "093804.539000", "093804.542000", "093804.544000", "093804.552000", "093804.555000", "093804.558000", "093804.560000", "093804.563000", "093804.566000", "093804.569000", "093804.572000", "093804.575000", "093804.578000", "093804.581000", "093804.584000", "093804.587000", "093804.589000", "093804.592000", "093804.595000", "093824.533000", "093824.536000", "093824.539000", "093824.541000", "093824.544000", "093824.547000", "093824.550000", "093824.553000", "093824.556000", "093824.559000", "093824.562000", "093824.564000", "093824.567000", "093824.570000", "093824.573000", "093824.576000", "093824.579000", "093824.582000", "093824.584000", "093824.587000", "093844.533000", "093844.536000", "093844.539000", "093844.541000", "093844.544000", "093844.547000", "093844.550000", "093844.553000", "093844.556000", "093844.559000", "093844.561000", "093844.564000", "093844.567000", "093844.573000", "093844.575000", "093844.578000", "093844.581000", "093844.584000", "093844.587000", "093844.590000", "093924.532000", "093924.535000", "093924.538000", "093924.540000", "093924.543000", "093924.546000", "093924.549000", "093924.552000", "093924.555000", "093924.558000", "093924.561000", "093924.563000", "093924.567000", "093924.569000", "093924.572000", "093924.575000", "093924.578000", "093924.581000", "093924.584000", "093924.587000", "093924.589000", "093924.592000", "093924.595000", "093924.598000", "093924.601000", "093924.619000", "093924.622000", "093924.625000", "093924.628000", "093924.631000", "093924.634000", "093924.637000", "094004.532000", "094004.535000", "094004.538000", "094004.541000", "094004.544000", "094004.547000", "094004.550000", "094004.552000", "094004.555000", "094004.558000", "094004.561000", "094004.564000", "094004.567000", "094004.570000", "094004.573000", "094004.575000", "094004.578000", "094004.581000", "094004.584000", "094004.587000", "094004.590000", "094004.593000", "094004.596000", "094004.599000", "094004.601000", "094004.604000", "094004.607000", "094016.823000", "094016.827000", "094016.829000", "094016.832000", "094016.835000", "094016.838000", "094016.841000", "094016.844000", "094016.846000"],
      "InstanceNumber": [1, 2, 3, 4, 5, 6, 7, 8, 9, 10, 11, 12, 13, 14, 15, 16, 17, 18, 19, 20, 21, 22, 23, 24, 25, 26, 27, 28, 29, 30, 31, 32, 33, 34, 35, 36, 37, 38, 39, 40, 41, 42, 43, 44, 45, 46, 47, 48, 49, 50, 51, 52, 53, 54, 55, 56, 57, 58, 59, 60, 61, 62, 63, 64, 65, 66, 67, 68, 69, 70, 71, 72, 73, 74, 75, 76, 77, 78, 79, 80, 81, 82, 83, 84, 85, 86, 87, 88, 89, 90, 91, 92, 93, 94, 95, 96, 97, 98, 99, 100, 101, 102, 103, 104, 105, 106, 107, 108, 109, 110, 111, 112, 113, 114, 115, 116, 117, 118, 119, 120, 121, 122, 123, 124, 125, 126, 127, 128, 129, 130, 131, 132, 133, 134, 135, 136, 137, 138, 139, 140, 141, 142, 143, 144, 145, 146, 147, 148, 149, 150, 151, 152, 153, 154, 155, 156, 157, 158, 159],
      "LargestImagePixelValue": [46666, 45603, 44931, 44552, 44502, 44413, 43882, 44359, 44627, 44419, 44680, 44180, 44320, 44481, 44362, 44292, 44361, 44171, 43742, 43852, 44098, 43876, 44222, 44782, 43746, 44456, 43573, 43816, 44019, 44604, 44681, 44184, 43791, 44086, 43679, 43986, 43736, 44134, 44014, 44007, 43766, 43461, 43649, 43627, 43771, 44070, 43960, 43987, 44028, 44259, 44301, 43723, 44617, 44445, 44026, 44307, 44002, 44406, 43657, 43963, 44515, 44197, 43956, 43960, 43980, 44216, 44270, 44352, 44213, 43987, 43566, 43616, 43882, 43854, 43848, 44146, 43513, 43907, 43887, 43572, 43598, 44093, 44096, 44160, 43973, 43646, 42792, 43614, 44102, 44110, 43713, 43926, 43818, 43840, 43812, 43399, 43571, 43889, 44247, 43962, 43723, 43730, 43221, 43634, 43454, 44071, 44709, 44364, 43798, 43609, 43291, 43378, 43637, 44048, 44521, 44649, 43818, 43954, 43775, 43152, 43743, 43513, 43718, 43322, 43353, 43767, 43929, 43817, 43804, 43883, 43564, 43938, 43543, 43634, 43565, 43655, 43682, 43655, 43784, 43694, 43733, 44037, 43733, 44373, 43855, 43504, 43025, 43699, 43445, 43548, 43516, 43668, 43491, 43658, 43618, 43406, 43509, 43282, 43239],
      "WindowCenter": [10016.0, 9967.0, 9930.0, 9917.0, 9909.0, 9913.0, 9914.0, 9922.0, 9930.0, 9931.0, 9932.0, 9918.0, 9930.0, 9929.0, 9924.0, 9916.0, 9922.0, 9922.0, 9924.0, 9931.0, 9938.0, 9933.0, 9931.0, 9936.0, 9922.0, 9920.0, 9909.0, 9914.0, 9927.0, 9922.0, 9920.0, 9906.0, 9903.0, 9911.0, 9913.0, 9914.0, 9905.0, 9904.0, 9903.0, 9904.0, 9903.0, 9899.0, 9906.0, 9906.0, 9913.0, 9913.0, 9913.0, 9907.0, 9905.0, 9913.0, 9911.0, 9904.0, 9904.0, 9902.0, 9909.0, 9918.0, 9920.0, 9922.0, 9909.0, 9906.0, 9917.0, 9912.0, 9912.0, 9913.0, 9913.0, 9913.0, 9913.0, 9920.0, 9921.0, 9908.0, 9908.0, 9908.0, 9914.0, 9913.0, 9904.0, 9905.0, 9907.0, 9914.0, 9916.0, 9909.0, 9908.0, 9920.0, 9915.0, 9916.0, 9914.0, 9907.0, 9893.0, 9892.0, 9912.0, 9912.0, 9907.0, 9907.0, 9906.0, 9906.0, 9906.0, 9900.0, 9908.0, 9908.0, 9915.0, 9913.0, 9908.0, 9908.0, 9910.0, 9916.0, 9923.0, 9922.0, 9914.0, 9912.0, 9899.0, 9899.0, 9908.0, 9914.0, 9917.0, 9917.0, 9915.0, 9913.0, 9905.0, 9905.0, 9912.0, 9909.0, 9915.0, 9916.0, 9917.0, 9917.0, 9902.0, 9906.0, 9899.0, 9908.0, 9915.0, 9917.0, 9911.0, 9915.0, 9901.0, 9900.0, 9900.0, 9906.0, 9916.0, 9917.0, 9915.0, 9916.0, 9909.0, 9907.0, 9901.0, 9905.0, 9907.0, 9910.0, 9912.0, 9919.0, 9909.0, 9900.0, 9899.0, 9907.0, 9916.0, 9919.0, 9918.0, 9911.0, 9909.0, 9910.0, 9912.0],
      "WindowWidth": [21432.0, 21288.0, 21189.0, 21150.0, 21128.0, 21133.0, 21135.0, 21152.0, 21170.0, 21172.0, 21173.0, 21148.0, 21168.0, 21166.0, 21157.0, 21140.0, 21150.0, 21154.0, 21158.0, 21174.0, 21188.0, 21180.0, 21177.0, 21186.0, 21156.0, 21148.0, 21128.0, 21137.0, 21166.0, 21158.0, 21150.0, 21120.0, 21110.0, 21127.0, 21133.0, 21138.0, 21117.0, 21115.0, 21111.0, 21116.0, 21113.0, 21106.0, 21118.0, 21121.0, 21133.0, 21135.0, 21134.0, 21123.0, 21119.0, 21132.0, 21127.0, 21110.0, 21110.0, 21107.0, 21122.0, 21143.0, 21148.0, 21153.0, 21128.0, 21116.0, 21139.0, 21129.0, 21130.0, 21132.0, 21133.0, 21135.0, 21135.0, 21150.0, 21148.0, 21124.0, 21122.0, 21126.0, 21136.0, 21132.0, 21111.0, 21115.0, 21121.0, 21135.0, 21142.0, 21126.0, 21120.0, 21146.0, 21138.0, 21142.0, 21138.0, 21121.0, 21094.0, 21091.0, 21128.0, 21130.0, 21118.0, 21119.0, 21118.0, 21118.0, 21118.0, 21109.0, 21125.0, 21126.0, 21138.0, 21135.0, 21125.0, 21127.0, 21132.0, 21143.0, 21158.0, 21157.0, 21139.0, 21130.0, 21105.0, 21104.0, 21123.0, 21137.0, 21146.0, 21146.0, 21139.0, 21133.0, 21117.0, 21113.0, 21131.0, 21129.0, 21142.0, 21144.0, 21146.0, 21147.0, 21116.0, 21117.0, 21104.0, 21123.0, 21137.0, 21145.0, 21134.0, 21138.0, 21108.0, 21105.0, 21106.0, 21118.0, 21140.0, 21143.0, 21139.0, 21141.0, 21128.0, 21123.0, 21110.0, 21116.0, 21121.0, 21130.0, 21137.0, 21149.0, 21129.0, 21107.0, 21103.0, 21120.0, 21141.0, 21148.0, 21148.0, 21133.0, 21126.0, 21131.0, 21137.0]
    },
    "slices": {}
  }
}