{
  "AcquisitionMatrixPE": 104,
  "AcquisitionNumber": 1,
  "AcquisitionTime": "09:58:29.115000",
  "BandwidthPerPixelPhaseEncode": 17.17,
  "BaseResolution": 104,
  "BodyPartExamined": "BRAIN",
  "CoilString": "HC1-7;NC1_2",
  "ConsistencyInfo": "N4_VE11C_LATEST_20160120",
  "ConversionSoftware": "dcm2niix",
  "ConversionSoftwareVersion": "v1.0.20200427",
  "DerivedVendorReportedEchoSpacing": 0.000560011,
  "DeviceSerialNumber": "167006",
  "DwellTime": 2.1e-06,
  "EchoTime": 0.037,
  "EchoTrainLength": 104,
  "EffectiveEchoSpacing": 0.000560011,
  "FlipAngle": 52,
  "ImageComments": "Unaliased_MB4_PE3_LB",
  "ImageOrientationPatientDICOM": [0.998245, -0.00124138, -0.0592047, -0.0114995, 0.976685, -0.21437],
  "ImageType": [
    "ORIGINAL",
    "PRIMARY",
    "M",
    "MB",
    "ND",
    "MOSAIC"
],
  "ImagingFrequency": 123.259,
  "InPlanePhaseEncodingDirectionDICOM": "COL",
  "InstitutionAddress": "Chemin_Queen-Mary_4565_Montreal_District_CA_H3W_1W5",
  "InstitutionName": "IUGM",
  "InstitutionalDepartmentName": "Department",
  "MRAcquisitionType": "2D",
  "MagneticFieldStrength": 3,
  "Manufacturer": "Siemens",
  "ManufacturersModelName": "Prisma_fit",
  "Modality": "MR",
  "MultibandAccelerationFactor": 4,
  "PartialFourier": 1,
  "PatientPosition": "HFS",
  "PercentPhaseFOV": 100,
  "PercentSampling": 100,
  "PhaseEncodingDirection": "j",
  "PhaseEncodingSteps": 104,
  "PhaseResolution": 1,
  "PixelBandwidth": 2290,
  "ProcedureStepDescription": "hcptrt_generic",
  "ProtocolName": "func_task-wm_run-1",
  "PulseSequenceDetails": "%CustomerSeq%_cmrr_mbep2d_bold",
  "ReceiveCoilActiveElements": "HC1-7;NC1,2",
  "ReceiveCoilName": "HeadNeck_64",
  "ReconMatrixPE": 104,
  "RepetitionTime": 1.49,
  "SAR": 0.0291823,
  "ScanOptions": "FS",
  "ScanningSequence": "EP",
  "SequenceName": "epfid2d1_104",
  "SequenceVariant": "SK_SS",
  "SeriesDescription": "func_task-wm_run-1",
  "SeriesNumber": 23,
  "ShimSetting": [598, -7256, -8849, 600, -49, -322, 31, 72],
  "SliceThickness": 2,
  "SliceTiming": [0, 0.7825, 0.0975, 0.88, 0.195, 0.98, 0.2925, 1.0775, 0.39, 1.175, 0.49, 1.2725, 0.5875, 1.37, 0.685, 0, 0.7825, 0.0975, 0.88, 0.195, 0.98, 0.2925, 1.0775, 0.39, 1.175, 0.49, 1.2725, 0.5875, 1.37, 0.685, 0, 0.7825, 0.0975, 0.88, 0.195, 0.98, 0.2925, 1.0775, 0.39, 1.175, 0.49, 1.2725, 0.5875, 1.37, 0.685, 0, 0.7825, 0.0975, 0.88, 0.195, 0.98, 0.2925, 1.0775, 0.39, 1.175, 0.49, 1.2725, 0.5875, 1.37, 0.685],
  "SoftwareVersions": "syngo_MR_E11",
  "SpacingBetweenSlices": 2,
  "StationName": "MRC35049",
  "TaskName": "wm",
  "TotalReadoutTime": 0.0576811,
  "TxRefAmp": 218.149,
  "WipMemBlock": "4f7297fa-ced5-44f8-97e1-3095ffc9a2d2||Sequence: R016 ve11c/master r/e634e98; Dec 19 2017 11:00:25 by eja",
  "dcmmeta_affine": [
    [-1.996490240097046, -0.022998901084065437, -0.11618080735206604, 107.35794830322266],
    [0.0024827506858855486, 1.9533696174621582, -0.42934927344322205, -73.6855239868164],
    [-0.11840931326150894, 0.4287400245666504, 1.9499132633209229, -53.52066421508789],
    [0.0, 0.0, 0.0, 1.0]
],
  "dcmmeta_reorient_transform": [
    [0.0, -1.0, 0.0, 103.0],
    [1.0, 0.0, 0.0, 0.0],
    [0.0, 0.0, 1.0, 0.0],
    [0.0, 0.0, 0.0, 1.0]
],
  "dcmmeta_shape": [104, 104, 60, 202],
  "dcmmeta_slice_dim": 2,
  "dcmmeta_version": 0.6,
  "global": {
    "const": {
      "AcquisitionMatrix": [104, 0, 0, 104],
      "AngioFlag": "N",
      "BitsAllocated": 16,
      "BitsStored": 16,
      "BodyPartExamined": "BRAIN",
      "Columns": 832,
      "EchoNumbers": 1,
      "EchoTime": 37.0,
      "EchoTrainLength": 104,
      "FlipAngle": 52.0,
      "HighBit": 15,
      "ImageOrientationPatient": [0.99824509407272, -0.0012413753608, -0.0592046547744, -0.0114994501198, 0.97668483325121, -0.214370005234],
      "ImagePositionPatient": [-823.33988799493, -837.63438855969, 189.80191085865],
      "ImageType": [
        "ORIGINAL",
        "PRIMARY",
        "M",
        "MB",
        "ND",
        "MOSAIC"
],
      "ImagedNucleus": "1H",
      "ImagingFrequency": 123.259101,
      "InPlanePhaseEncodingDirection": "COL",
      "MRAcquisitionType": "2D",
      "MagneticFieldStrength": 3.0,
      "Manufacturer": "SIEMENS",
      "ManufacturerModelName": "Prisma_fit",
      "Modality": "MR",
      "NumberOfAverages": 1.0,
      "NumberOfPhaseEncodingSteps": 104,
      "PercentPhaseFieldOfView": 100.0,
      "PercentSampling": 100.0,
      "PerformedProcedureStepStartTime": "085845.757000",
      "PhotometricInterpretation": "MONOCHROME2",
      "PixelBandwidth": 2290.0,
      "PixelRepresentation": 0,
      "PixelSpacing": [2.0, 2.0],
      "ProtocolName": "func_task-wm_run-1",
      "RepetitionTime": 1490.0,
      "Rows": 832,
      "SAR": 0.02918234017065,
      "SamplesPerPixel": 1,
      "ScanOptions": "FS",
      "ScanningSequence": "EP",
      "SequenceName": "epfid2d1_104",
      "SequenceVariant": [
        "SK",
        "SS"
],
      "SeriesDescription": "func_task-wm_run-1",
      "SeriesNumber": 23,
      "SeriesTime": "095942.614000",
      "SliceLocation": -42.598375398801,
      "SliceThickness": 2.0,
      "SmallestImagePixelValue": 0,
      "SoftwareVersions": "syngo MR E11",
      "SpacingBetweenSlices": 2.0000000802269,
      "SpecificCharacterSet": "ISO_IR 100",
      "StudyID": "1",
      "StudyTime": "085845.560000",
      "TransmitCoilName": "Body",
      "VariableFlipAngleFlag": "N",
      "WindowCenterWidthExplanation": "Algo1",
      "dBdt": 0.0},
    "slices": {}
  },
  "time": {
    "samples": {
      "AcquisitionNumber": [1, 2, 3, 4, 5, 6, 7, 8, 9, 10, 11, 12, 13, 14, 15, 16, 17, 18, 19, 20, 21, 22, 23, 24, 25, 26, 27, 28, 29, 30, 31, 32, 33, 34, 35, 36, 37, 38, 39, 40, 41, 42, 43, 44, 45, 46, 47, 48, 49, 50, 51, 52, 53, 54, 55, 56, 57, 58, 59, 60, 61, 62, 63, 64, 65, 66, 67, 68, 69, 70, 71, 72, 73, 74, 75, 76, 77, 78, 79, 80, 81, 82, 83, 84, 85, 86, 87, 88, 89, 90, 91, 92, 93, 94, 95, 96, 97, 98, 99, 100, 101, 102, 103, 104, 105, 106, 107, 108, 109, 110, 111, 112, 113, 114, 115, 116, 117, 118, 119, 120, 121, 122, 123, 124, 125, 126, 127, 128, 129, 130, 131, 132, 133, 134, 135, 136, 137, 138, 139, 140, 141, 142, 143, 144, 145, 146, 147, 148, 149, 150, 151, 152, 153, 154, 155, 156, 157, 158, 159, 160, 161, 162, 163, 164, 165, 166, 167, 168, 169, 170, 171, 172, 173, 174, 175, 176, 177, 178, 179, 180, 181, 182, 183, 184, 185, 186, 187, 188, 189, 190, 191, 192, 193, 194, 195, 196, 197, 198, 199, 200, 201, 202],
      "AcquisitionTime": ["095829.115000", "095830.605000", "095832.095000", "095833.585000", "095835.075000", "095836.565000", "095838.055000", "095839.545000", "095841.035000", "095842.525000", "095844.015000", "095845.505000", "095846.995000", "095848.485000", "095849.975000", "095851.465000", "095852.955000", "095854.445000", "095855.935000", "095857.425000", "095858.915000", "095900.405000", "095901.895000", "095903.385000", "095904.875000", "095906.365000", "095907.855000", "095909.345000", "095910.835000", "095912.325000", "095913.815000", "095915.305000", "095916.795000", "095918.285000", "095919.775000", "095921.265000", "095922.755000", "095924.245000", "095925.735000", "095927.225000", "095928.715000", "095930.205000", "095931.695000", "095933.185000", "095934.675000", "095936.165000", "095937.655000", "095939.145000", "095940.635000", "095942.125000", "095943.615000", "095945.105000", "095946.595000", "095948.085000", "095949.575000", "095951.065000", "095952.555000", "095954.045000", "095955.535000", "095957.025000", "095958.515000", "100000.005000", "100001.495000", "100002.985000", "100004.475000", "100005.965000", "100007.455000", "100008.945000", "100010.435000", "100011.925000", "100013.415000", "100014.905000", "100016.395000", "100017.885000", "100019.375000", "100020.865000", "100022.355000", "100023.845000", "100025.335000", "100026.825000", "100028.315000", "100029.805000", "100031.295000", "100032.785000", "100034.275000", "100035.765000", "100037.255000", "100038.745000", "100040.235000", "100041.725000", "100043.215000", "100044.705000", "100046.195000", "100047.685000", "100049.175000", "100050.665000", "100052.155000", "100053.645000", "100055.135000", "100056.625000", "100058.115000", "100059.605000", "100101.095000", "100102.585000", "100104.075000", "100105.565000", "100107.055000", "100108.545000", "100110.035000", "100111.525000", "100113.015000", "100114.505000", "100115.995000", "100117.485000", "100118.975000", "100120.465000", "100121.955000", "100123.445000", "100124.935000", "100126.425000", "100127.915000", "100129.405000", "100130.895000", "100132.385000", "100133.875000", "100135.365000", "100136.855000", "100138.345000", "100139.835000", "100141.325000", "100142.815000", "100144.305000", "100145.795000", "100147.285000", "100148.775000", "100150.265000", "100151.755000", "100153.245000", "100154.735000", "100156.225000", "100157.715000", "100159.205000", "100200.695000", "100202.185000", "100203.675000", "100205.165000", "100206.655000", "100208.145000", "100209.635000", "100211.125000", "100212.615000", "100214.105000", "100215.595000", "100217.085000", "100218.575000", "100220.065000", "100221.555000", "100223.045000", "100224.535000", "100226.025000", "100227.515000", "100229.005000", "100230.495000", "100231.985000", "100233.475000", "100234.965000", "100236.455000", "100237.945000", "100239.435000", "100240.925000", "100242.415000", "100243.905000", "100245.395000", "100246.885000", "100248.375000", "100249.865000", "100251.355000", "100252.845000", "100254.335000", "100255.825000", "100257.315000", "100258.805000", "100300.295000", "100301.785000", "100303.275000", "100304.765000", "100306.255000", "100307.745000", "100309.235000", "100310.725000", "100312.215000", "100313.705000", "100315.195000", "100316.685000", "100318.175000", "100319.665000", "100321.155000", "100322.645000", "100324.135000", "100325.625000", "100327.115000", "100328.605000"],
      "ContentTime": ["095942.616000", "095942.625000", "095942.627000", "095942.630000", "095942.633000", "095942.636000", "095942.639000", "095942.642000", "095942.645000", "095942.647000", "095942.650000", "095942.653000", "095942.656000", "095942.659000", "095942.662000", "095942.671000", "095942.674000", "095942.677000", "095942.683000", "095942.686000", "095942.689000", "100002.583000", "100002.586000", "100002.589000", "100002.592000", "100002.595000", "100002.598000", "100002.602000", "100002.605000", "100002.608000", "100002.611000", "100002.614000", "100002.617000", "100002.619000", "100002.622000", "100002.625000", "100002.628000", "100002.631000", "100002.634000", "100002.637000", "100002.640000", "100022.583000", "100022.586000", "100022.589000", "100022.592000", "100022.595000", "100022.597000", "100022.600000", "100022.603000", "100022.606000", "100022.609000", "100022.612000", "100022.615000", "100022.618000", "100022.620000", "100022.623000", "100022.626000", "100022.629000", "100022.632000", "100022.635000", "100022.638000", "100022.644000", "100042.583000", "100042.586000", "100042.589000", "100042.592000", "100042.595000", "100042.597000", "100042.600000", "100042.603000", "100042.606000", "100042.609000", "100042.612000", "100042.615000", "100042.618000", "100042.620000", "100042.623000", "100042.626000", "100042.629000", "100042.632000", "100042.635000", "100042.638000", "100102.583000", "100102.586000", "100102.589000", "100102.592000", "100102.595000", "100102.597000", "100102.600000", "100102.603000", "100102.606000", "100102.609000", "100102.612000", "100102.615000", "100102.617000", "100102.620000", "100102.623000", "100102.626000", "100102.629000", "100102.632000", "100102.635000", "100102.638000", "100142.583000", "100142.586000", "100142.589000", "100142.592000", "100142.595000", "100142.598000", "100142.600000", "100142.603000", "100142.606000", "100142.609000", "100142.612000", "100142.615000", "100142.618000", "100142.620000", "100142.623000", "100142.626000", "100142.629000", "100142.632000", "100142.635000", "100142.638000", "100142.641000", "100142.643000", "100142.646000", "100142.649000", "100142.652000", "100142.655000", "100142.658000", "100222.583000", "100222.586000", "100222.589000", "100222.592000", "100222.595000", "100222.598000", "100222.601000", "100222.604000", "100222.607000", "100222.609000", "100222.612000", "100222.615000", "100222.618000", "100222.621000", "100222.624000", "100222.627000", "100222.630000", "100222.633000", "100222.635000", "100222.638000", "100222.641000", "100222.644000", "100222.647000", "100222.650000", "100222.653000", "100222.655000", "100222.658000", "100302.583000", "100302.586000", "100302.589000", "100302.592000", "100302.595000", "100302.597000", "100302.600000", "100302.603000", "100302.606000", "100302.609000", "100302.612000", "100302.615000", "100302.618000", "100302.621000", "100302.624000", "100302.626000", "100302.629000", "100302.632000", "100302.646000", "100302.649000", "100302.652000", "100302.654000", "100302.658000", "100302.660000", "100302.663000", "100302.666000", "100302.669000", "100330.261000", "100330.264000", "100330.267000", "100330.270000", "100330.273000", "100330.276000", "100330.278000", "100330.281000", "100330.284000", "100330.287000", "100330.290000", "100330.293000", "100330.296000", "100330.299000", "100330.301000", "100330.304000", "100330.307000", "100330.310000", "100330.313000"],
      "InstanceCreationTime": ["095942.616000", "095942.625000", "095942.627000", "095942.630000", "095942.633000", "095942.636000", "095942.639000", "095942.642000", "095942.645000", "095942.647000", "095942.650000", "095942.653000", "095942.656000", "095942.659000", "095942.662000", "095942.671000", "095942.674000", "095942.677000", "095942.683000", "095942.686000", "095942.689000", "100002.583000", "100002.586000", "100002.589000", "100002.592000", "100002.595000", "100002.598000", "100002.602000", "100002.605000", "100002.608000", "100002.611000", "100002.614000", "100002.617000", "100002.619000", "100002.622000", "100002.625000", "100002.628000", "100002.631000", "100002.634000", "100002.637000", "100002.640000", "100022.583000", "100022.586000", "100022.589000", "100022.592000", "100022.595000", "100022.597000", "100022.600000", "100022.603000", "100022.606000", "100022.609000", "100022.612000", "100022.615000", "100022.618000", "100022.620000", "100022.623000", "100022.626000", "100022.629000", "100022.632000", "100022.635000", "100022.638000", "100022.644000", "100042.583000", "100042.586000", "100042.589000", "100042.592000", "100042.595000", "100042.597000", "100042.600000", "100042.603000", "100042.606000", "100042.609000", "100042.612000", "100042.615000", "100042.618000", "100042.620000", "100042.623000", "100042.626000", "100042.629000", "100042.632000", "100042.635000", "100042.638000", "100102.583000", "100102.586000", "100102.589000", "100102.592000", "100102.595000", "100102.597000", "100102.600000", "100102.603000", "100102.606000", "100102.609000", "100102.612000", "100102.615000", "100102.617000", "100102.620000", "100102.623000", "100102.626000", "100102.629000", "100102.632000", "100102.635000", "100102.638000", "100142.583000", "100142.586000", "100142.589000", "100142.592000", "100142.595000", "100142.598000", "100142.600000", "100142.603000", "100142.606000", "100142.609000", "100142.612000", "100142.615000", "100142.618000", "100142.620000", "100142.623000", "100142.626000", "100142.629000", "100142.632000", "100142.635000", "100142.638000", "100142.641000", "100142.643000", "100142.646000", "100142.649000", "100142.652000", "100142.655000", "100142.658000", "100222.583000", "100222.586000", "100222.589000", "100222.592000", "100222.595000", "100222.598000", "100222.601000", "100222.604000", "100222.607000", "100222.609000", "100222.612000", "100222.615000", "100222.618000", "100222.621000", "100222.624000", "100222.627000", "100222.630000", "100222.633000", "100222.635000", "100222.638000", "100222.641000", "100222.644000", "100222.647000", "100222.650000", "100222.653000", "100222.655000", "100222.658000", "100302.583000", "100302.586000", "100302.589000", "100302.592000", "100302.595000", "100302.597000", "100302.600000", "100302.603000", "100302.606000", "100302.609000", "100302.612000", "100302.615000", "100302.618000", "100302.621000", "100302.624000", "100302.626000", "100302.629000", "100302.632000", "100302.646000", "100302.649000", "100302.652000", "100302.654000", "100302.658000", "100302.660000", "100302.663000", "100302.666000", "100302.669000", "100330.261000", "100330.264000", "100330.267000", "100330.270000", "100330.273000", "100330.276000", "100330.278000", "100330.281000", "100330.284000", "100330.287000", "100330.290000", "100330.293000", "100330.296000", "100330.299000", "100330.301000", "100330.304000", "100330.307000", "100330.310000", "100330.313000"],
      "InstanceNumber": [1, 2, 3, 4, 5, 6, 7, 8, 9, 10, 11, 12, 13, 14, 15, 16, 17, 18, 19, 20, 21, 22, 23, 24, 25, 26, 27, 28, 29, 30, 31, 32, 33, 34, 35, 36, 37, 38, 39, 40, 41, 42, 43, 44, 45, 46, 47, 48, 49, 50, 51, 52, 53, 54, 55, 56, 57, 58, 59, 60, 61, 62, 63, 64, 65, 66, 67, 68, 69, 70, 71, 72, 73, 74, 75, 76, 77, 78, 79, 80, 81, 82, 83, 84, 85, 86, 87, 88, 89, 90, 91, 92, 93, 94, 95, 96, 97, 98, 99, 100, 101, 102, 103, 104, 105, 106, 107, 108, 109, 110, 111, 112, 113, 114, 115, 116, 117, 118, 119, 120, 121, 122, 123, 124, 125, 126, 127, 128, 129, 130, 131, 132, 133, 134, 135, 136, 137, 138, 139, 140, 141, 142, 143, 144, 145, 146, 147, 148, 149, 150, 151, 152, 153, 154, 155, 156, 157, 158, 159, 160, 161, 162, 163, 164, 165, 166, 167, 168, 169, 170, 171, 172, 173, 174, 175, 176, 177, 178, 179, 180, 181, 182, 183, 184, 185, 186, 187, 188, 189, 190, 191, 192, 193, 194, 195, 196, 197, 198, 199, 200, 201, 202],
      "LargestImagePixelValue": [46504, 45138, 44351, 43930, 43664, 43410, 43390, 43402, 42927, 43050, 42627, 42804, 42850, 42138, 42445, 42132, 42290, 42401, 42382, 42167, 42295, 42739, 42545, 42487, 42629, 42527, 42406, 42600, 42639, 42560, 42439, 42426, 42687, 42673, 42952, 42777, 42616, 42719, 42640, 42666, 42398, 43117, 42758, 43007, 42691, 42537, 42184, 42764, 42639, 43005, 42615, 42996, 42880, 43101, 43330, 42827, 42743, 42643, 42303, 42764, 42147, 42299, 42492, 42631, 42441, 42526, 42119, 42699, 42698, 42671, 42463, 42239, 42745, 42858, 42482, 42678, 43150, 43255, 42912, 42802, 42960, 42692, 43235, 42481, 42870, 42948, 42513, 42939, 42824, 41977, 43593, 43474, 43008, 43630, 42357, 43393, 42620, 42728, 42992, 43172, 42962, 43234, 42966, 43437, 43534, 43026, 43189, 43168, 43096, 43409, 42928, 43338, 43216, 43430, 43005, 43122, 43344, 43466, 43145, 42943, 42989, 43076, 43643, 43019, 42957, 43397, 43248, 42903, 42833, 42877, 42950, 42974, 42672, 42775, 42563, 42833, 42917, 43274, 42921, 42825, 42993, 43041, 43054, 42671, 42801, 43068, 42845, 43307, 42728, 43187, 43015, 43187, 42853, 42481, 42550, 43548, 42855, 42862, 42805, 42854, 43310, 43275, 43280, 43183, 42811, 43088, 42707, 43014, 43355, 42747, 43406, 42988, 42672, 42639, 42485, 42161, 42778, 42788, 42748, 42575, 42777, 42712, 42954, 42952, 43264, 42769, 42900, 42953, 42681, 42940, 42913, 43468, 43400, 42749, 42650, 42845, 42816, 43646, 43366, 42926, 42593, 42537],
      "WindowCenter": [10010.0, 9977.0, 9967.0, 9965.0, 9960.0, 9958.0, 9952.0, 9951.0, 9944.0, 9950.0, 9937.0, 9942.0, 9950.0, 9945.0, 9944.0, 9938.0, 9930.0, 9935.0, 9922.0, 9928.0, 9926.0, 9932.0, 9932.0, 9927.0, 9933.0, 9942.0, 9942.0, 9945.0, 9953.0, 9955.0, 9955.0, 9955.0, 9947.0, 9938.0, 9935.0, 9935.0, 9934.0, 9935.0, 9936.0, 9929.0, 9928.0, 9939.0, 9942.0, 9937.0, 9942.0, 9949.0, 9960.0, 9962.0, 9945.0, 9924.0, 9900.0, 9894.0, 9893.0, 9900.0, 9902.0, 9910.0, 9917.0, 9920.0, 9916.0, 9922.0, 9924.0, 9930.0, 9932.0, 9931.0, 9935.0, 9925.0, 9922.0, 9916.0, 9920.0, 9921.0, 9923.0, 9926.0, 9931.0, 9932.0, 9932.0, 9932.0, 9945.0, 9946.0, 9940.0, 9934.0, 9924.0, 9921.0, 9927.0, 9923.0, 9930.0, 9923.0, 9923.0, 9927.0, 9931.0, 9926.0, 9929.0, 9927.0, 9919.0, 9917.0, 9896.0, 9891.0, 9870.0, 9867.0, 9867.0, 9880.0, 9884.0, 9900.0, 9910.0, 9933.0, 9944.0, 9940.0, 9946.0, 9939.0, 9939.0, 9939.0, 9930.0, 9922.0, 9919.0, 9920.0, 9918.0, 9919.0, 9912.0, 9918.0, 9921.0, 9930.0, 9929.0, 9920.0, 9921.0, 9928.0, 9914.0, 9910.0, 9901.0, 9893.0, 9893.0, 9892.0, 9900.0, 9909.0, 9914.0, 9922.0, 9929.0, 9929.0, 9929.0, 9928.0, 9924.0, 9930.0, 9929.0, 9931.0, 9927.0, 9915.0, 9920.0, 9926.0, 9922.0, 9927.0, 9928.0, 9927.0, 9922.0, 9928.0, 9927.0, 9923.0, 9923.0, 9927.0, 9914.0, 9911.0, 9903.0, 9903.0, 9909.0, 9902.0, 9915.0, 9917.0, 9913.0, 9919.0, 9914.0, 9922.0, 9934.0, 9936.0, 9938.0, 9923.0, 9913.0, 9889.0, 9860.0, 9834.0, 9829.0, 9845.0, 9869.0, 9882.0, 9895.0, 9905.0, 9914.0, 9921.0, 9928.0, 9930.0, 9924.0, 9926.0, 9924.0, 9931.0, 9940.0, 9953.0, 9940.0, 9924.0, 9908.0, 9913.0, 9921.0, 9936.0, 9954.0, 9967.0, 9965.0, 9948.0],
      "WindowWidth": [21429.0, 21326.0, 21288.0, 21274.0, 21264.0, 21255.0, 21237.0, 21235.0, 21219.0, 21229.0, 21203.0, 21213.0, 21231.0, 21223.0, 21220.0, 21208.0, 21191.0, 21200.0, 21172.0, 21183.0, 21178.0, 21189.0, 21189.0, 21181.0, 21194.0, 21213.0, 21212.0, 21223.0, 21239.0, 21245.0, 21243.0, 21242.0, 21227.0, 21206.0, 21197.0, 21195.0, 21194.0, 21198.0, 21201.0, 21187.0, 21187.0, 21205.0, 21214.0, 21206.0, 21214.0, 21227.0, 21253.0, 21258.0, 21223.0, 21172.0, 21122.0, 21103.0, 21101.0, 21113.0, 21119.0, 21137.0, 21149.0, 21158.0, 21154.0, 21163.0, 21172.0, 21184.0, 21188.0, 21186.0, 21194.0, 21172.0, 21165.0, 21152.0, 21160.0, 21161.0, 21170.0, 21177.0, 21186.0, 21186.0, 21187.0, 21189.0, 21212.0, 21218.0, 21208.0, 21195.0, 21170.0, 21162.0, 21170.0, 21169.0, 21182.0, 21167.0, 21168.0, 21173.0, 21186.0, 21178.0, 21180.0, 21173.0, 21157.0, 21149.0, 21107.0, 21093.0, 21052.0, 21045.0, 21043.0, 21068.0, 21081.0, 21115.0, 21137.0, 21186.0, 21212.0, 21206.0, 21218.0, 21203.0, 21203.0, 21202.0, 21182.0, 21165.0, 21157.0, 21159.0, 21154.0, 21156.0, 21142.0, 21154.0, 21164.0, 21181.0, 21179.0, 21159.0, 21161.0, 21175.0, 21149.0, 21138.0, 21115.0, 21099.0, 21100.0, 21098.0, 21113.0, 21135.0, 21150.0, 21166.0, 21182.0, 21181.0, 21178.0, 21177.0, 21172.0, 21185.0, 21182.0, 21185.0, 21175.0, 21154.0, 21160.0, 21173.0, 21167.0, 21177.0, 21179.0, 21177.0, 21167.0, 21176.0, 21176.0, 21169.0, 21169.0, 21175.0, 21150.0, 21137.0, 21120.0, 21121.0, 21133.0, 21122.0, 21146.0, 21150.0, 21147.0, 21156.0, 21148.0, 21165.0, 21191.0, 21195.0, 21200.0, 21170.0, 21146.0, 21094.0, 21027.0, 20967.0, 20953.0, 20988.0, 21042.0, 21075.0, 21106.0, 21130.0, 21149.0, 21164.0, 21177.0, 21182.0, 21173.0, 21176.0, 21173.0, 21187.0, 21208.0, 21232.0, 21206.0, 21172.0, 21140.0, 21146.0, 21165.0, 21196.0, 21239.0, 21273.0, 21268.0, 21228.0]
    },
    "slices": {}
  }
}