{
  "AcquisitionMatrixPE": 104,
  "AcquisitionNumber": 1,
  "AcquisitionTime": "09:14:39.227500",
  "BandwidthPerPixelPhaseEncode": 17.17,
  "BaseResolution": 104,
  "BodyPartExamined": "BRAIN",
  "CoilString": "HC1-7;NC1_2",
  "ConsistencyInfo": "N4_VE11C_LATEST_20160120",
  "ConversionSoftware": "dcm2niix",
  "ConversionSoftwareVersion": "v1.0.20200427",
  "DerivedVendorReportedEchoSpacing": 0.000560011,
  "DeviceSerialNumber": "167006",
  "DwellTime": 2.1e-06,
  "EchoTime": 0.037,
  "EchoTrainLength": 104,
  "EffectiveEchoSpacing": 0.000560011,
  "FlipAngle": 52,
  "ImageComments": "Unaliased_MB4_PE3_LB",
  "ImageOrientationPatientDICOM": [0.998245, -0.00124138, -0.0592047, -0.0114995, 0.976685, -0.21437],
  "ImageType": [
    "ORIGINAL",
    "PRIMARY",
    "M",
    "MB",
    "ND",
    "MOSAIC"
],
  "ImagingFrequency": 123.259,
  "InPlanePhaseEncodingDirectionDICOM": "COL",
  "InstitutionAddress": "Chemin_Queen-Mary_4565_Montreal_District_CA_H3W_1W5",
  "InstitutionName": "IUGM",
  "InstitutionalDepartmentName": "Department",
  "MRAcquisitionType": "2D",
  "MagneticFieldStrength": 3,
  "Manufacturer": "Siemens",
  "ManufacturersModelName": "Prisma_fit",
  "Modality": "MR",
  "MultibandAccelerationFactor": 4,
  "PartialFourier": 1,
  "PatientPosition": "HFS",
  "PercentPhaseFOV": 100,
  "PercentSampling": 100,
  "PhaseEncodingDirection": "j",
  "PhaseEncodingSteps": 104,
  "PhaseResolution": 1,
  "PixelBandwidth": 2290,
  "ProcedureStepDescription": "hcptrt_generic",
  "ProtocolName": "func_task-restingstate_run-1",
  "PulseSequenceDetails": "%CustomerSeq%_cmrr_mbep2d_bold",
  "ReceiveCoilActiveElements": "HC1-7;NC1,2",
  "ReceiveCoilName": "HeadNeck_64",
  "ReconMatrixPE": 104,
  "RepetitionTime": 1.49,
  "SAR": 0.0293697,
  "ScanOptions": "FS",
  "ScanningSequence": "EP",
  "SequenceName": "epfid2d1_104",
  "SequenceVariant": "SK_SS",
  "SeriesDescription": "func_task-restingstate_run-1",
  "SeriesNumber": 9,
  "ShimSetting": [598, -7256, -8849, 600, -49, -322, 31, 72],
  "SliceThickness": 2,
  "SliceTiming": [0, 0.7825, 0.0975, 0.8825, 0.195, 0.98, 0.2925, 1.0775, 0.3925, 1.175, 0.49, 1.2725, 0.5875, 1.3725, 0.685, 0, 0.7825, 0.0975, 0.8825, 0.195, 0.98, 0.2925, 1.0775, 0.3925, 1.175, 0.49, 1.2725, 0.5875, 1.3725, 0.685, 0, 0.7825, 0.0975, 0.8825, 0.195, 0.98, 0.2925, 1.0775, 0.3925, 1.175, 0.49, 1.2725, 0.5875, 1.3725, 0.685, 0, 0.7825, 0.0975, 0.8825, 0.195, 0.98, 0.2925, 1.0775, 0.3925, 1.175, 0.49, 1.2725, 0.5875, 1.3725, 0.685],
  "SoftwareVersions": "syngo_MR_E11",
  "SpacingBetweenSlices": 2,
  "StationName": "MRC35049",
  "TaskName": "restingstate",
  "TotalReadoutTime": 0.0576811,
  "TxRefAmp": 218.149,
  "WipMemBlock": "cf858220-69b7-41d7-8c0c-3c7b1204a014||Sequence: R016 ve11c/master r/e634e98; Dec 19 2017 11:00:25 by eja",
  "dcmmeta_affine": [
    [-1.996490240097046, -0.022998901084065437, -0.11618080735206604, 107.35794830322266],
    [0.0024827506858855486, 1.9533696174621582, -0.42934927344322205, -73.6855239868164],
    [-0.11840931326150894, 0.4287400245666504, 1.9499132633209229, -53.52066421508789],
    [0.0, 0.0, 0.0, 1.0]
],
  "dcmmeta_reorient_transform": [
    [0.0, -1.0, 0.0, 103.0],
    [1.0, 0.0, 0.0, 0.0],
    [0.0, 0.0, 1.0, 0.0],
    [0.0, 0.0, 0.0, 1.0]
],
  "dcmmeta_shape": [104, 104, 60, 600],
  "dcmmeta_slice_dim": 2,
  "dcmmeta_version": 0.6,
  "global": {
    "const": {
      "AcquisitionMatrix": [104, 0, 0, 104],
      "AngioFlag": "N",
      "BitsAllocated": 16,
      "BitsStored": 16,
      "BodyPartExamined": "BRAIN",
      "Columns": 832,
      "EchoNumbers": 1,
      "EchoTime": 37.0,
      "EchoTrainLength": 104,
      "FlipAngle": 52.0,
      "HighBit": 15,
      "ImageOrientationPatient": [0.99824509407272, -0.0012413753608, -0.0592046547744, -0.0114994501198, 0.97668483325121, -0.214370005234],
      "ImagePositionPatient": [-823.33988799493, -837.63438855969, 189.80191085865],
      "ImageType": [
        "ORIGINAL",
        "PRIMARY",
        "M",
        "MB",
        "ND",
        "MOSAIC"
],
      "ImagedNucleus": "1H",
      "ImagingFrequency": 123.259079,
      "InPlanePhaseEncodingDirection": "COL",
      "MRAcquisitionType": "2D",
      "MagneticFieldStrength": 3.0,
      "Manufacturer": "SIEMENS",
      "ManufacturerModelName": "Prisma_fit",
      "Modality": "MR",
      "NumberOfAverages": 1.0,
      "NumberOfPhaseEncodingSteps": 104,
      "PercentPhaseFieldOfView": 100.0,
      "PercentSampling": 100.0,
      "PerformedProcedureStepStartTime": "085845.757000",
      "PhotometricInterpretation": "MONOCHROME2",
      "PixelBandwidth": 2290.0,
      "PixelRepresentation": 0,
      "PixelSpacing": [2.0, 2.0],
      "ProtocolName": "func_task-restingstate_run-1",
      "RepetitionTime": 1490.0,
      "Rows": 832,
      "SAR": 0.02936966222251,
      "SamplesPerPixel": 1,
      "ScanOptions": "FS",
      "ScanningSequence": "EP",
      "SequenceName": "epfid2d1_104",
      "SequenceVariant": [
        "SK",
        "SS"
],
      "SeriesDescription": "func_task-restingstate_run-1",
      "SeriesNumber": 9,
      "SeriesTime": "091605.563000",
      "SliceLocation": -42.598375398801,
      "SliceThickness": 2.0,
      "SmallestImagePixelValue": 0,
      "SoftwareVersions": "syngo MR E11",
      "SpacingBetweenSlices": 2.0000000802269,
      "SpecificCharacterSet": "ISO_IR 100",
      "StudyID": "1",
      "StudyTime": "085845.560000",
      "TransmitCoilName": "Body",
      "VariableFlipAngleFlag": "N",
      "WindowCenterWidthExplanation": "Algo1",
      "dBdt": 0.0},
    "slices": {}
  },
  "time": {
    "samples": {
      "AcquisitionNumber": [1, 2, 3, 4, 5, 6, 7, 8, 9, 10, 11, 12, 13, 14, 15, 16, 17, 18, 19, 20, 21, 22, 23, 24, 25, 26, 27, 28, 29, 30, 31, 32, 33, 34, 35, 36, 37, 38, 39, 40, 41, 42, 43, 44, 45, 46, 47, 48, 49, 50, 51, 52, 53, 54, 55, 56, 57, 58, 59, 60, 61, 62, 63, 64, 65, 66, 67, 68, 69, 70, 71, 72, 73, 74, 75, 76, 77, 78, 79, 80, 81, 82, 83, 84, 85, 86, 87, 88, 89, 90, 91, 92, 93, 94, 95, 96, 97, 98, 99, 100, 101, 102, 103, 104, 105, 106, 107, 108, 109, 110, 111, 112, 113, 114, 115, 116, 117, 118, 119, 120, 121, 122, 123, 124, 125, 126, 127, 128, 129, 130, 131, 132, 133, 134, 135, 136, 137, 138, 139, 140, 141, 142, 143, 144, 145, 146, 147, 148, 149, 150, 151, 152, 153, 154, 155, 156, 157, 158, 159, 160, 161, 162, 163, 164, 165, 166, 167, 168, 169, 170, 171, 172, 173, 174, 175, 176, 177, 178, 179, 180, 181, 182, 183, 184, 185, 186, 187, 188, 189, 190, 191, 192, 193, 194, 195, 196, 197, 198, 199, 200, 201, 202, 203, 204, 205, 206, 207, 208, 209, 210, 211, 212, 213, 214, 215, 216, 217, 218, 219, 220, 221, 222, 223, 224, 225, 226, 227, 228, 229, 230, 231, 232, 233, 234, 235, 236, 237, 238, 239, 240, 241, 242, 243, 244, 245, 246, 247, 248, 249, 250, 251, 252, 253, 254, 255, 256, 257, 258, 259, 260, 261, 262, 263, 264, 265, 266, 267, 268, 269, 270, 271, 272, 273, 274, 275, 276, 277, 278, 279, 280, 281, 282, 283, 284, 285, 286, 287, 288, 289, 290, 291, 292, 293, 294, 295, 296, 297, 298, 299, 300, 301, 302, 303, 304, 305, 306, 307, 308, 309, 310, 311, 312, 313, 314, 315, 316, 317, 318, 319, 320, 321, 322, 323, 324, 325, 326, 327, 328, 329, 330, 331, 332, 333, 334, 335, 336, 337, 338, 339, 340, 341, 342, 343, 344, 345, 346, 347, 348, 349, 350, 351, 352, 353, 354, 355, 356, 357, 358, 359, 360, 361, 362, 363, 364, 365, 366, 367, 368, 369, 370, 371, 372, 373, 374, 375, 376, 377, 378, 379, 380, 381, 382, 383, 384, 385, 386, 387, 388, 389, 390, 391, 392, 393, 394, 395, 396, 397, 398, 399, 400, 401, 402, 403, 404, 405, 406, 407, 408, 409, 410, 411, 412, 413, 414, 415, 416, 417, 418, 419, 420, 421, 422, 423, 424, 425, 426, 427, 428, 429, 430, 431, 432, 433, 434, 435, 436, 437, 438, 439, 440, 441, 442, 443, 444, 445, 446, 447, 448, 449, 450, 451, 452, 453, 454, 455, 456, 457, 458, 459, 460, 461, 462, 463, 464, 465, 466, 467, 468, 469, 470, 471, 472, 473, 474, 475, 476, 477, 478, 479, 480, 481, 482, 483, 484, 485, 486, 487, 488, 489, 490, 491, 492, 493, 494, 495, 496, 497, 498, 499, 500, 501, 502, 503, 504, 505, 506, 507, 508, 509, 510, 511, 512, 513, 514, 515, 516, 517, 518, 519, 520, 521, 522, 523, 524, 525, 526, 527, 528, 529, 530, 531, 532, 533, 534, 535, 536, 537, 538, 539, 540, 541, 542, 543, 544, 545, 546, 547, 548, 549, 550, 551, 552, 553, 554, 555, 556, 557, 558, 559, 560, 561, 562, 563, 564, 565, 566, 567, 568, 569, 570, 571, 572, 573, 574, 575, 576, 577, 578, 579, 580, 581, 582, 583, 584, 585, 586, 587, 588, 589, 590, 591, 592, 593, 594, 595, 596, 597, 598, 599, 600],
      "AcquisitionTime": ["091439.227500", "091440.717500", "091442.207500", "091443.697500", "091445.187500", "091446.677500", "091448.167500", "091449.657500", "091451.147500", "091452.637500", "091454.127500", "091455.617500", "091457.107500", "091458.597500", "091500.087500", "091501.577500", "091503.067500", "091504.557500", "091506.047500", "091507.537500", "091509.027500", "091510.517500", "091512.007500", "091513.497500", "091514.987500", "091516.477500", "091517.967500", "091519.457500", "091520.947500", "091522.437500", "091523.927500", "091525.417500", "091526.907500", "091528.397500", "091529.887500", "091531.377500", "091532.867500", "091534.357500", "091535.847500", "091537.337500", "091538.827500", "091540.317500", "091541.807500", "091543.297500", "091544.787500", "091546.277500", "091547.767500", "091549.257500", "091550.747500", "091552.237500", "091553.727500", "091555.217500", "091556.707500", "091558.197500", "091559.687500", "091601.177500", "091602.667500", "091604.157500", "091605.647500", "091607.137500", "091608.627500", "091610.117500", "091611.607500", "091613.097500", "091614.587500", "091616.077500", "091617.567500", "091619.057500", "091620.547500", "091622.037500", "091623.527500", "091625.017500", "091626.507500", "091627.997500", "091629.487500", "091630.977500", "091632.467500", "091633.957500", "091635.447500", "091636.937500", "091638.427500", "091639.917500", "091641.407500", "091642.897500", "091644.387500", "091645.877500", "091647.367500", "091648.857500", "091650.347500", "091651.837500", "091653.327500", "091654.817500", "091656.307500", "091657.797500", "091659.287500", "091700.777500", "091702.267500", "091703.757500", "091705.247500", "091706.737500", "091708.227500", "091709.717500", "091711.207500", "091712.697500", "091714.187500", "091715.677500", "091717.167500", "091718.657500", "091720.147500", "091721.637500", "091723.127500", "091724.617500", "091726.107500", "091727.597500", "091729.087500", "091730.577500", "091732.067500", "091733.557500", "091735.047500", "091736.537500", "091738.027500", "091739.517500", "091741.007500", "091742.497500", "091743.987500", "091745.477500", "091746.967500", "091748.457500", "091749.947500", "091751.437500", "091752.927500", "091754.417500", "091755.907500", "091757.397500", "091758.887500", "091800.377500", "091801.867500", "091803.357500", "091804.847500", "091806.337500", "091807.827500", "091809.317500", "091810.807500", "091812.297500", "091813.787500", "091815.277500", "091816.767500", "091818.257500", "091819.747500", "091821.237500", "091822.727500", "091824.217500", "091825.707500", "091827.197500", "091828.687500", "091830.177500", "091831.667500", "091833.157500", "091834.647500", "091836.137500", "091837.627500", "091839.117500", "091840.607500", "091842.097500", "091843.587500", "091845.077500", "091846.567500", "091848.057500", "091849.547500", "091851.037500", "091852.527500", "091854.017500", "091855.507500", "091856.997500", "091858.487500", "091859.977500", "091901.467500", "091902.957500", "091904.447500", "091905.937500", "091907.427500", "091908.917500", "091910.407500", "091911.897500", "091913.387500", "091914.877500", "091916.367500", "091917.857500", "091919.347500", "091920.837500", "091922.327500", "091923.817500", "091925.307500", "091926.797500", "091928.287500", "091929.777500", "091931.267500", "091932.757500", "091934.247500", "091935.737500", "091937.227500", "091938.717500", "091940.207500", "091941.697500", "091943.187500", "091944.677500", "091946.167500", "091947.657500", "091949.147500", "091950.637500", "091952.127500", "091953.617500", "091955.107500", "091956.597500", "091958.087500", "091959.577500", "092001.067500", "092002.557500", "092004.047500", "092005.537500", "092007.027500", "092008.517500", "092010.007500", "092011.497500", "092012.987500", "092014.477500", "092015.967500", "092017.457500", "092018.947500", "092020.437500", "092021.927500", "092023.417500", "092024.907500", "092026.397500", "092027.887500", "092029.377500", "092030.867500", "092032.357500", "092033.847500", "092035.337500", "092036.827500", "092038.317500", "092039.807500", "092041.297500", "092042.787500", "092044.277500", "092045.767500", "092047.257500", "092048.747500", "092050.237500", "092051.727500", "092053.217500", "092054.707500", "092056.197500", "092057.687500", "092059.177500", "092100.667500", "092102.157500", "092103.647500", "092105.137500", "092106.627500", "092108.117500", "092109.607500", "092111.097500", "092112.587500", "092114.077500", "092115.567500", "092117.057500", "092118.547500", "092120.037500", "092121.527500", "092123.017500", "092124.507500", "092125.997500", "092127.487500", "092128.977500", "092130.467500", "092131.957500", "092133.447500", "092134.937500", "092136.427500", "092137.917500", "092139.407500", "092140.897500", "092142.387500", "092143.877500", "092145.367500", "092146.857500", "092148.347500", "092149.837500", "092151.327500", "092152.817500", "092154.307500", "092155.797500", "092157.287500", "092158.777500", "092200.267500", "092201.757500", "092203.247500", "092204.737500", "092206.227500", "092207.717500", "092209.207500", "092210.697500", "092212.187500", "092213.677500", "092215.167500", "092216.657500", "092218.147500", "092219.637500", "092221.127500", "092222.617500", "092224.107500", "092225.597500", "092227.087500", "092228.577500", "092230.067500", "092231.557500", "092233.047500", "092234.537500", "092236.027500", "092237.517500", "092239.007500", "092240.497500", "092241.987500", "092243.477500", "092244.967500", "092246.457500", "092247.947500", "092249.437500", "092250.927500", "092252.417500", "092253.907500", "092255.397500", "092256.887500", "092258.377500", "092259.867500", "092301.357500", "092302.847500", "092304.337500", "092305.827500", "092307.317500", "092308.807500", "092310.297500", "092311.787500", "092313.277500", "092314.767500", "092316.257500", "092317.747500", "092319.237500", "092320.727500", "092322.217500", "092323.707500", "092325.197500", "092326.687500", "092328.177500", "092329.667500", "092331.157500", "092332.647500", "092334.137500", "092335.627500", "092337.117500", "092338.607500", "092340.097500", "092341.587500", "092343.077500", "092344.567500", "092346.057500", "092347.547500", "092349.037500", "092350.527500", "092352.017500", "092353.507500", "092354.997500", "092356.487500", "092357.977500", "092359.467500", "092400.957500", "092402.447500", "092403.937500", "092405.427500", "092406.917500", "092408.407500", "092409.897500", "092411.387500", "092412.877500", "092414.367500", "092415.857500", "092417.347500", "092418.837500", "092420.327500", "092421.817500", "092423.307500", "092424.797500", "092426.287500", "092427.777500", "092429.267500", "092430.757500", "092432.247500", "092433.737500", "092435.227500", "092436.717500", "092438.207500", "092439.697500", "092441.187500", "092442.677500", "092444.167500", "092445.657500", "092447.147500", "092448.637500", "092450.127500", "092451.617500", "092453.107500", "092454.597500", "092456.087500", "092457.577500", "092459.067500", "092500.557500", "092502.047500", "092503.537500", "092505.027500", "092506.517500", "092508.007500", "092509.497500", "092510.987500", "092512.477500", "092513.967500", "092515.457500", "092516.947500", "092518.437500", "092519.927500", "092521.417500", "092522.907500", "092524.397500", "092525.887500", "092527.377500", "092528.867500", "092530.357500", "092531.847500", "092533.337500", "092534.827500", "092536.317500", "092537.807500", "092539.297500", "092540.787500", "092542.277500", "092543.767500", "092545.257500", "092546.747500", "092548.237500", "092549.727500", "092551.217500", "092552.707500", "092554.197500", "092555.687500", "092557.177500", "092558.667500", "092600.157500", "092601.647500", "092603.137500", "092604.627500", "092606.117500", "092607.607500", "092609.097500", "092610.587500", "092612.077500", "092613.567500", "092615.057500", "092616.547500", "092618.037500", "092619.527500", "092621.017500", "092622.507500", "092623.997500", "092625.487500", "092626.977500", "092628.467500", "092629.957500", "092631.447500", "092632.937500", "092634.427500", "092635.917500", "092637.407500", "092638.897500", "092640.387500", "092641.877500", "092643.367500", "092644.857500", "092646.347500", "092647.837500", "092649.327500", "092650.817500", "092652.307500", "092653.797500", "092655.287500", "092656.777500", "092658.267500", "092659.757500", "092701.247500", "092702.737500", "092704.227500", "092705.717500", "092707.207500", "092708.697500", "092710.187500", "092711.677500", "092713.167500", "092714.657500", "092716.147500", "092717.637500", "092719.127500", "092720.617500", "092722.107500", "092723.597500", "092725.087500", "092726.577500", "092728.067500", "092729.557500", "092731.047500", "092732.537500", "092734.027500", "092735.517500", "092737.007500", "092738.497500", "092739.987500", "092741.477500", "092742.967500", "092744.457500", "092745.947500", "092747.437500", "092748.927500", "092750.417500", "092751.907500", "092753.397500", "092754.887500", "092756.377500", "092757.867500", "092759.357500", "092800.847500", "092802.337500", "092803.827500", "092805.317500", "092806.807500", "092808.297500", "092809.787500", "092811.277500", "092812.767500", "092814.257500", "092815.747500", "092817.237500", "092818.727500", "092820.217500", "092821.707500", "092823.197500", "092824.687500", "092826.177500", "092827.667500", "092829.157500", "092830.647500", "092832.137500", "092833.627500", "092835.117500", "092836.607500", "092838.097500", "092839.587500", "092841.077500", "092842.567500", "092844.057500", "092845.547500", "092847.037500", "092848.527500", "092850.017500", "092851.507500", "092852.997500", "092854.487500", "092855.977500", "092857.467500", "092858.957500", "092900.447500", "092901.937500", "092903.427500", "092904.917500", "092906.407500", "092907.897500", "092909.387500", "092910.877500", "092912.367500", "092913.857500", "092915.347500", "092916.837500", "092918.327500", "092919.817500", "092921.307500", "092922.797500", "092924.287500", "092925.777500", "092927.267500", "092928.757500", "092930.247500", "092931.737500"],
      "ContentTime": ["091605.565000", "091605.569000", "091605.572000", "091605.575000", "091605.578000", "091605.581000", "091605.584000", "091605.588000", "091605.591000", "091605.594000", "091605.597000", "091605.624000", "091605.627000", "091605.630000", "091605.633000", "091605.635000", "091605.638000", "091605.641000", "091605.644000", "091605.647000", "091605.650000", "091605.653000", "091605.656000", "091605.659000", "091605.661000", "091605.664000", "091605.667000", "091605.670000", "091605.673000", "091605.676000", "091605.679000", "091605.682000", "091605.688000", "091625.529000", "091625.532000", "091625.535000", "091625.538000", "091625.541000", "091625.544000", "091625.547000", "091625.549000", "091625.552000", "091625.556000", "091625.559000", "091625.562000", "091625.565000", "091625.568000", "091625.571000", "091625.574000", "091625.598000", "091625.601000", "091625.604000", "091625.607000", "091645.528000", "091645.531000", "091645.534000", "091645.537000", "091645.540000", "091645.542000", "091645.545000", "091645.548000", "091645.551000", "091645.554000", "091645.557000", "091645.560000", "091645.563000", "091645.565000", "091645.568000", "091645.571000", "091645.574000", "091645.577000", "091645.580000", "091645.583000", "091645.586000", "091705.529000", "091705.532000", "091705.535000", "091705.538000", "091705.541000", "091705.543000", "091705.548000", "091705.551000", "091705.553000", "091705.556000", "091705.559000", "091705.562000", "091705.565000", "091705.568000", "091705.571000", "091705.574000", "091705.577000", "091705.579000", "091705.582000", "091705.585000", "091745.529000", "091745.532000", "091745.535000", "091745.538000", "091745.540000", "091745.543000", "091745.546000", "091745.549000", "091745.552000", "091745.555000", "091745.558000", "091745.561000", "091745.563000", "091745.566000", "091745.569000", "091745.572000", "091745.575000", "091745.578000", "091745.581000", "091745.583000", "091745.586000", "091745.589000", "091745.592000", "091745.595000", "091745.598000", "091745.601000", "091745.604000", "091745.607000", "091745.610000", "091745.612000", "091825.529000", "091825.532000", "091825.535000", "091825.538000", "091825.541000", "091825.558000", "091825.562000", "091825.565000", "091825.567000", "091825.571000", "091825.574000", "091825.577000", "091825.580000", "091825.582000", "091825.585000", "091825.588000", "091825.591000", "091825.594000", "091825.597000", "091825.600000", "091825.603000", "091825.605000", "091825.608000", "091825.611000", "091825.614000", "091825.617000", "091825.620000", "091905.528000", "091905.532000", "091905.535000", "091905.538000", "091905.541000", "091905.544000", "091905.547000", "091905.549000", "091905.552000", "091905.555000", "091905.558000", "091905.561000", "091905.565000", "091905.568000", "091905.571000", "091905.574000", "091905.577000", "091905.580000", "091905.583000", "091905.586000", "091905.588000", "091905.592000", "091905.594000", "091905.597000", "091905.600000", "091905.603000", "091905.606000", "091945.529000", "091945.532000", "091945.535000", "091945.538000", "091945.541000", "091945.544000", "091945.547000", "091945.550000", "091945.553000", "091945.555000", "091945.558000", "091945.561000", "091945.564000", "091945.567000", "091945.570000", "091945.573000", "091945.576000", "091945.579000", "091945.581000", "091945.584000", "091945.587000", "091945.590000", "091945.593000", "091945.596000", "091945.599000", "091945.602000", "091945.604000", "092025.529000", "092025.532000", "092025.535000", "092025.538000", "092025.541000", "092025.544000", "092025.546000", "092025.549000", "092025.552000", "092025.555000", "092025.558000", "092025.561000", "092025.564000", "092025.567000", "092025.569000", "092025.572000", "092025.575000", "092025.578000", "092025.581000", "092025.584000", "092025.587000", "092025.590000", "092025.592000", "092025.595000", "092025.598000", "092025.601000", "092025.604000", "092105.529000", "092105.532000", "092105.535000", "092105.538000", "092105.541000", "092105.544000", "092105.546000", "092105.549000", "092105.552000", "092105.555000", "092105.558000", "092105.561000", "092105.564000", "092105.567000", "092105.570000", "092105.573000", "092105.576000", "092105.579000", "092105.582000", "092105.585000", "092105.587000", "092105.590000", "092105.593000", "092105.596000", "092105.599000", "092105.602000", "092145.529000", "092145.532000", "092145.535000", "092145.538000", "092145.541000", "092145.544000", "092145.546000", "092145.549000", "092145.552000", "092145.555000", "092145.558000", "092145.561000", "092145.564000", "092145.566000", "092145.569000", "092145.572000", "092145.575000", "092145.578000", "092145.581000", "092145.584000", "092145.587000", "092145.590000", "092145.592000", "092145.595000", "092145.598000", "092145.601000", "092145.604000", "092225.529000", "092225.532000", "092225.535000", "092225.538000", "092225.541000", "092225.544000", "092225.547000", "092225.550000", "092225.552000", "092225.555000", "092225.558000", "092225.561000", "092225.564000", "092225.567000", "092225.569000", "092225.573000", "092225.575000", "092225.578000", "092225.581000", "092225.584000", "092225.587000", "092225.590000", "092225.592000", "092225.595000", "092225.598000", "092225.601000", "092225.604000", "092305.529000", "092305.532000", "092305.535000", "092305.538000", "092305.541000", "092305.550000", "092305.553000", "092305.556000", "092305.558000", "092305.561000", "092305.564000", "092305.567000", "092305.570000", "092305.573000", "092305.587000", "092305.589000", "092305.592000", "092305.595000", "092305.598000", "092305.601000", "092305.604000", "092305.607000", "092305.610000", "092305.612000", "092305.615000", "092305.618000", "092305.621000", "092345.528000", "092345.531000", "092345.534000", "092345.537000", "092345.540000", "092345.543000", "092345.546000", "092345.549000", "092345.551000", "092345.554000", "092345.557000", "092345.560000", "092345.563000", "092345.566000", "092345.569000", "092345.572000", "092345.574000", "092345.578000", "092345.580000", "092345.583000", "092345.586000", "092345.589000", "092345.592000", "092345.595000", "092345.598000", "092345.600000", "092345.603000", "092425.529000", "092425.532000", "092425.535000", "092425.538000", "092425.541000", "092425.543000", "092425.546000", "092425.549000", "092425.552000", "092425.555000", "092425.558000", "092425.561000", "092425.564000", "092425.567000", "092425.569000", "092425.572000", "092425.575000", "092425.578000", "092425.581000", "092425.584000", "092425.587000", "092425.589000", "092425.592000", "092425.595000", "092425.598000", "092425.601000", "092425.604000", "092505.529000", "092505.532000", "092505.535000", "092505.538000", "092505.541000", "092505.544000", "092505.547000", "092505.550000", "092505.553000", "092505.555000", "092505.558000", "092505.561000", "092505.564000", "092505.567000", "092505.570000", "092505.573000", "092505.576000", "092505.579000", "092505.581000", "092505.584000", "092505.587000", "092505.590000", "092505.593000", "092505.596000", "092505.599000", "092505.602000", "092505.604000", "092545.529000", "092545.532000", "092545.535000", "092545.538000", "092545.541000", "092545.543000", "092545.547000", "092545.550000", "092545.553000", "092545.556000", "092545.559000", "092545.562000", "092545.565000", "092545.567000", "092545.570000", "092545.573000", "092545.576000", "092545.579000", "092545.582000", "092545.585000", "092545.588000", "092545.590000", "092545.593000", "092545.596000", "092545.599000", "092545.602000", "092625.529000", "092625.532000", "092625.535000", "092625.538000", "092625.541000", "092625.544000", "092625.546000", "092625.549000", "092625.552000", "092625.555000", "092625.558000", "092625.561000", "092625.564000", "092625.567000", "092625.569000", "092625.572000", "092625.575000", "092625.578000", "092625.581000", "092625.584000", "092625.587000", "092625.590000", "092625.592000", "092625.595000", "092625.598000", "092625.601000", "092625.604000", "092705.529000", "092705.532000", "092705.535000", "092705.538000", "092705.541000", "092705.544000", "092705.547000", "092705.550000", "092705.552000", "092705.555000", "092705.558000", "092705.561000", "092705.564000", "092705.567000", "092705.570000", "092705.573000", "092705.576000", "092705.579000", "092705.582000", "092705.585000", "092705.588000", "092705.591000", "092705.593000", "092705.611000", "092705.613000", "092705.616000", "092705.619000", "092745.529000", "092745.532000", "092745.535000", "092745.538000", "092745.541000", "092745.544000", "092745.547000", "092745.549000", "092745.552000", "092745.555000", "092745.558000", "092745.561000", "092745.564000", "092745.567000", "092745.570000", "092745.573000", "092745.575000", "092745.578000", "092745.581000", "092745.584000", "092745.587000", "092745.590000", "092745.593000", "092745.596000", "092745.598000", "092745.601000", "092745.604000", "092825.528000", "092825.531000", "092825.534000", "092825.537000", "092825.540000", "092825.543000", "092825.546000", "092825.548000", "092825.551000", "092825.554000", "092825.557000", "092825.560000", "092825.563000", "092825.566000", "092825.569000", "092825.572000", "092825.574000", "092825.577000", "092825.580000", "092825.583000", "092825.586000", "092825.589000", "092825.592000", "092825.595000", "092825.598000", "092825.601000", "092825.603000", "092905.529000", "092905.532000", "092905.535000", "092905.538000", "092905.541000", "092905.544000", "092905.546000", "092905.549000", "092905.552000", "092905.555000", "092905.558000", "092905.561000", "092905.564000", "092905.567000", "092905.570000", "092905.572000", "092905.575000", "092905.578000", "092905.581000", "092905.584000", "092905.587000", "092905.590000", "092905.593000", "092905.596000", "092905.599000", "092905.601000", "092905.604000", "092933.730000", "092933.733000", "092933.736000", "092933.743000", "092933.746000", "092933.749000", "092933.752000", "092933.755000", "092933.758000", "092933.761000", "092933.764000", "092933.767000", "092933.770000", "092933.792000", "092933.795000", "092933.798000", "092933.801000", "092933.804000", "092933.807000"],
