{
  "AcquisitionMatrixPE": 104,
  "AcquisitionNumber": 1,
  "AcquisitionTime": "10:55:40.447500",
  "BandwidthPerPixelPhaseEncode": 17.17,
  "BaseResolution": 104,
  "BodyPartExamined": "BRAIN",
  "CoilString": "HC1-7;NC1_2",
  "ConsistencyInfo": "N4_VE11C_LATEST_20160120",
  "ConversionSoftware": "dcm2niix",
  "ConversionSoftwareVersion": "v1.0.20190720  (JP2:OpenJPEG) GCC7.3.0",
  "DerivedVendorReportedEchoSpacing": 0.000560011,
  "DeviceSerialNumber": "167006",
  "DwellTime": 2.1e-06,
  "EchoTime": 0.037,
  "EchoTrainLength": 104,
  "EffectiveEchoSpacing": 0.000560011,
  "FlipAngle": 52,
  "ImageComments": "Unaliased_MB4_PE3_LB",
  "ImageOrientationPatientDICOM": [0.999716, -0.0102761, 0.0214933, 0.0172755, 0.93394, -0.357011],
  "ImageType": [
    "ORIGINAL",
    "PRIMARY",
    "M",
    "MB",
    "ND",
    "MOSAIC"
],
  "ImagingFrequency": 123.259,
  "InPlanePhaseEncodingDirectionDICOM": "COL",
  "InstitutionAddress": "Chemin_Queen-Mary_4565_Montreal_District_CA_H3W_1W5",
  "InstitutionName": "IUGM",
  "InstitutionalDepartmentName": "Department",
  "MRAcquisitionType": "2D",
  "MagneticFieldStrength": 3,
  "Manufacturer": "Siemens",
  "ManufacturersModelName": "Prisma_fit",
  "Modality": "MR",
  "MultibandAccelerationFactor": 4,
  "PartialFourier": 1,
  "PatientPosition": "HFS",
  "PercentPhaseFOV": 100,
  "PhaseEncodingDirection": "j",
  "PhaseEncodingSteps": 104,
  "PhaseResolution": 1,
  "PixelBandwidth": 2290,
  "ProcedureStepDescription": "hcptrt_generic",
  "ProtocolName": "func_task-social_run-2",
  "PulseSequenceDetails": "%CustomerSeq%_cmrr_mbep2d_bold",
  "ReceiveCoilActiveElements": "HC1-7;NC1,2",
  "ReceiveCoilName": "HeadNeck_64",
  "ReconMatrixPE": 104,
  "RepetitionTime": 1.49,
  "SAR": 0.0378871,
  "ScanOptions": "FS",
  "ScanningSequence": "EP",
  "SequenceName": "epfid2d1_104",
  "SequenceVariant": "SK_SS",
  "SeriesDescription": "func_task-social_run-2",
  "SeriesNumber": 28,
  "ShimSetting": [636, -7189, -8818, 668, 93, -4, -62, -25],
  "SliceThickness": 2,
  "SliceTiming": [0, 0.785, 0.0975, 0.8825, 0.195, 0.98, 0.295, 1.0775, 0.3925, 1.175, 0.49, 1.275, 0.5875, 1.3725, 0.685, 0, 0.785, 0.0975, 0.8825, 0.195, 0.98, 0.295, 1.0775, 0.3925, 1.175, 0.49, 1.275, 0.5875, 1.3725, 0.685, 0, 0.785, 0.0975, 0.8825, 0.195, 0.98, 0.295, 1.0775, 0.3925, 1.175, 0.49, 1.275, 0.5875, 1.3725, 0.685, 0, 0.785, 0.0975, 0.8825, 0.195, 0.98, 0.295, 1.0775, 0.3925, 1.175, 0.49, 1.275, 0.5875, 1.3725, 0.685],
  "SoftwareVersions": "syngo_MR_E11",
  "SpacingBetweenSlices": 2,
  "StationName": "MRC35049",
  "TaskName": "social",
  "TotalReadoutTime": 0.0576811,
  "TxRefAmp": 250.119,
  "WipMemBlock": "dfef3aae-bbf6-485d-8eb7-f79cfa2d08b9||Sequence: R016 ve11c/master r/e634e98; Dec 19 2017 11:00:25 by eja",
  "dcmmeta_affine": [
    [-1.9994323253631592, 0.03455103561282158, 0.03280960023403168, 105.41395568847656],
    [0.020552193745970726, 1.8678808212280273, -0.7145620584487915, -59.63142395019531],
    [0.042986638844013214, 0.7140220999717712, 1.8677057027816772, -61.53466033935547],
    [0.0, 0.0, 0.0, 1.0]
],
  "dcmmeta_reorient_transform": [
    [0.0, -1.0, 0.0, 103.0],
    [1.0, 0.0, 0.0, 0.0],
    [0.0, 0.0, 1.0, 0.0],
    [0.0, 0.0, 0.0, 1.0]
],
  "dcmmeta_shape": [104, 104, 60, 139],
  "dcmmeta_slice_dim": 2,
  "dcmmeta_version": 0.6,
  "global": {
    "const": {
      "AcquisitionMatrix": [104, 0, 0, 104],
      "AngioFlag": "N",
      "BitsAllocated": 16,
      "BitsStored": 16,
      "BodyPartExamined": "BRAIN",
      "Columns": 832,
      "EchoNumbers": 1,
      "EchoTime": 37.0,
      "EchoTrainLength": 104,
      "FlipAngle": 52.0,
      "HighBit": 15,
      "ImageOrientationPatient": [0.99971617924965, -0.0102760964261, 0.02149331963035, 0.01727551739324, 0.9339403967406, -0.3570110528188],
      "ImagePositionPatient": [-849.3426704109, -805.18790898228, 256.26652816748],
      "ImageType": [
        "ORIGINAL",
        "PRIMARY",
        "M",
        "MB",
        "ND",
        "MOSAIC"
],
      "ImagedNucleus": "1H",
      "ImagingFrequency": 123.259475,
      "InPlanePhaseEncodingDirection": "COL",
      "MRAcquisitionType": "2D",
      "MagneticFieldStrength": 3.0,
      "Manufacturer": "SIEMENS",
      "ManufacturerModelName": "Prisma_fit",
      "Modality": "MR",
      "NumberOfAverages": 1.0,
      "NumberOfPhaseEncodingSteps": 104,
      "PercentPhaseFieldOfView": 100.0,
      "PercentSampling": 100.0,
      "PerformedProcedureStepStartTime": "100328.993000",
      "PhotometricInterpretation": "MONOCHROME2",
      "PixelBandwidth": 2290.0,
      "PixelRepresentation": 0,
      "PixelSpacing": [2.0, 2.0],
      "ProtocolName": "func_task-social_run-2",
      "RepetitionTime": 1490.0,
      "Rows": 832,
      "SAR": 0.03788713398638,
      "SamplesPerPixel": 1,
      "ScanOptions": "FS",
      "ScanningSequence": "EP",
      "SequenceName": "epfid2d1_104",
      "SequenceVariant": [
        "SK",
        "SS"
],
      "SeriesDescription": "func_task-social_run-2",
      "SeriesNumber": 28,
      "SeriesTime": "105710.015000",
      "SliceLocation": -34.429844739498,
      "SliceThickness": 2.0,
      "SmallestImagePixelValue": 0,
      "SoftwareVersions": "syngo MR E11",
      "SpacingBetweenSlices": 1.9999999796299,
      "SpecificCharacterSet": "ISO_IR 100",
      "StudyID": "1",
      "StudyTime": "100328.868000",
      "TransmitCoilName": "Body",
      "VariableFlipAngleFlag": "N",
      "WindowCenterWidthExplanation": "Algo1",
      "dBdt": 0.0},
    "slices": {}
  },
  "time": {
    "samples": {
      "AcquisitionNumber": [1, 2, 3, 4, 5, 6, 7, 8, 9, 10, 11, 12, 13, 14, 15, 16, 17, 18, 19, 20, 21, 22, 23, 24, 25, 26, 27, 28, 29, 30, 31, 32, 33, 34, 35, 36, 37, 38, 39, 40, 41, 42, 43, 44, 45, 46, 47, 48, 49, 50, 51, 52, 53, 54, 55, 56, 57, 58, 59, 60, 61, 62, 63, 64, 65, 66, 67, 68, 69, 70, 71, 72, 73, 74, 75, 76, 77, 78, 79, 80, 81, 82, 83, 84, 85, 86, 87, 88, 89, 90, 91, 92, 93, 94, 95, 96, 97, 98, 99, 100, 101, 102, 103, 104, 105, 106, 107, 108, 109, 110, 111, 112, 113, 114, 115, 116, 117, 118, 119, 120, 121, 122, 123, 124, 125, 126, 127, 128, 129, 130, 131, 132, 133, 134, 135, 136, 137, 138, 139],
      "AcquisitionTime": ["105540.447500", "105541.937500", "105543.427500", "105544.917500", "105546.407500", "105547.897500", "105549.387500", "105550.877500", "105552.367500", "105553.857500", "105555.347500", "105556.837500", "105558.327500", "105559.817500", "105601.307500", "105602.797500", "105604.287500", "105605.777500", "105607.267500", "105608.757500", "105610.247500", "105611.737500", "105613.227500", "105614.717500", "105616.207500", "105617.697500", "105619.187500", "105620.677500", "105622.167500", "105623.657500", "105625.147500", "105626.637500", "105628.127500", "105629.617500", "105631.107500", "105632.597500", "105634.087500", "105635.577500", "105637.067500", "105638.557500", "105640.047500", "105641.537500", "105643.027500", "105644.517500", "105646.007500", "105647.497500", "105648.987500", "105650.477500", "105651.967500", "105653.457500", "105654.947500", "105656.437500", "105657.927500", "105659.417500", "105700.907500", "105702.397500", "105703.887500", "105705.377500", "105706.867500", "105708.357500", "105709.847500", "105711.337500", "105712.827500", "105714.317500", "105715.807500", "105717.297500", "105718.787500", "105720.277500", "105721.767500", "105723.257500", "105724.747500", "105726.237500", "105727.727500", "105729.217500", "105730.707500", "105732.197500", "105733.687500", "105735.177500", "105736.667500", "105738.157500", "105739.647500", "105741.137500", "105742.627500", "105744.117500", "105745.607500", "105747.097500", "105748.587500", "105750.077500", "105751.567500", "105753.057500", "105754.547500", "105756.037500", "105757.527500", "105759.017500", "105800.507500", "105801.997500", "105803.487500", "105804.977500", "105806.467500", "105807.957500", "105809.447500", "105810.937500", "105812.427500", "105813.917500", "105815.407500", "105816.897500", "105818.387500", "105819.877500", "105821.367500", "105822.857500", "105824.347500", "105825.837500", "105827.327500", "105828.817500", "105830.307500", "105831.797500", "105833.287500", "105834.777500", "105836.267500", "105837.757500", "105839.247500", "105840.737500", "105842.227500", "105843.717500", "105845.207500", "105846.697500", "105848.187500", "105849.677500", "105851.167500", "105852.657500", "105854.147500", "105855.637500", "105857.127500", "105858.617500", "105900.107500", "105901.597500", "105903.087500", "105904.577500", "105906.067500"],
      "ContentTime": ["105710.018000", "105710.021000", "105710.024000", "105710.027000", "105710.030000", "105710.033000", "105710.035000", "105710.038000", "105710.041000", "105710.044000", "105710.047000", "105710.050000", "105710.053000", "105710.056000", "105710.059000", "105710.062000", "105710.065000", "105710.067000", "105710.070000", "105710.073000", "105710.076000", "105710.079000", "105710.082000", "105710.085000", "105710.088000", "105710.091000", "105710.094000", "105710.097000", "105710.100000", "105710.102000", "105710.105000", "105710.108000", "105710.111000", "105710.114000", "105710.117000", "105710.120000", "105729.980000", "105729.983000", "105729.986000", "105729.989000", "105729.992000", "105729.995000", "105730.002000", "105730.005000", "105730.008000", "105730.010000", "105730.013000", "105730.016000", "105730.019000", "105730.022000", "105730.025000", "105730.028000", "105730.031000", "105730.034000", "105730.037000", "105730.040000", "105730.042000", "105749.980000", "105749.983000", "105749.986000", "105749.989000", "105749.992000", "105749.995000", "105749.998000", "105750.002000", "105750.005000", "105750.008000", "105750.011000", "105750.014000", "105750.017000", "105750.020000", "105750.023000", "105750.026000", "105750.029000", "105750.032000", "105750.035000", "105750.038000", "105809.980000", "105809.983000", "105809.986000", "105809.989000", "105809.992000", "105809.995000", "105809.998000", "105810.002000", "105810.005000", "105810.007000", "105810.010000", "105810.013000", "105810.016000", "105810.027000", "105810.030000", "105810.033000", "105810.036000", "105810.039000", "105810.042000", "105810.045000", "105849.980000", "105849.983000", "105849.986000", "105849.989000", "105849.992000", "105849.995000", "105849.998000", "105850.002000", "105850.005000", "105850.008000", "105850.011000", "105850.014000", "105850.016000", "105850.019000", "105850.022000", "105850.025000", "105850.028000", "105850.031000", "105850.034000", "105850.037000", "105850.040000", "105850.043000", "105850.046000", "105850.048000", "105850.051000", "105850.054000", "105850.057000", "105850.060000", "105850.068000", "105908.219000", "105908.223000", "105908.226000", "105908.229000", "105908.232000", "105908.235000", "105908.238000", "105908.241000", "105908.244000", "105908.247000", "105908.250000", "105908.253000", "105908.256000"],
      "InstanceCreationTime": ["105710.018000", "105710.021000", "105710.024000", "105710.027000", "105710.030000", "105710.033000", "105710.035000", "105710.038000", "105710.041000", "105710.044000", "105710.047000", "105710.050000", "105710.053000", "105710.056000", "105710.059000", "105710.062000", "105710.065000", "105710.067000", "105710.070000", "105710.073000", "105710.076000", "105710.079000", "105710.082000", "105710.085000", "105710.088000", "105710.091000", "105710.094000", "105710.097000", "105710.100000", "105710.102000", "105710.105000", "105710.108000", "105710.111000", "105710.114000", "105710.117000", "105710.120000", "105729.980000", "105729.983000", "105729.986000", "105729.989000", "105729.992000", "105729.995000", "105730.002000", "105730.005000", "105730.008000", "105730.010000", "105730.013000", "105730.016000", "105730.019000", "105730.022000", "105730.025000", "105730.028000", "105730.031000", "105730.034000", "105730.037000", "105730.040000", "105730.042000", "105749.980000", "105749.983000", "105749.986000", "105749.989000", "105749.992000", "105749.995000", "105749.998000", "105750.002000", "105750.005000", "105750.008000", "105750.011000", "105750.014000", "105750.017000", "105750.020000", "105750.023000", "105750.026000", "105750.029000", "105750.032000", "105750.035000", "105750.038000", "105809.980000", "105809.983000", "105809.986000", "105809.989000", "105809.992000", "105809.995000", "105809.998000", "105810.002000", "105810.005000", "105810.007000", "105810.010000", "105810.013000", "105810.016000", "105810.027000", "105810.030000", "105810.033000", "105810.036000", "105810.039000", "105810.042000", "105810.045000", "105849.980000", "105849.983000", "105849.986000", "105849.989000", "105849.992000", "105849.995000", "105849.998000", "105850.002000", "105850.005000", "105850.008000", "105850.011000", "105850.014000", "105850.016000", "105850.019000", "105850.022000", "105850.025000", "105850.028000", "105850.031000", "105850.034000", "105850.037000", "105850.040000", "105850.043000", "105850.046000", "105850.048000", "105850.051000", "105850.054000", "105850.057000", "105850.060000", "105850.068000", "105908.219000", "105908.223000", "105908.226000", "105908.229000", "105908.232000", "105908.235000", "105908.238000", "105908.241000", "105908.244000", "105908.247000", "105908.250000", "105908.253000", "105908.256000"],
      "InstanceNumber": [1, 2, 3, 4, 5, 6, 7, 8, 9, 10, 11, 12, 13, 14, 15, 16, 17, 18, 19, 20, 21, 22, 23, 24, 25, 26, 27, 28, 29, 30, 31, 32, 33, 34, 35, 36, 37, 38, 39, 40, 41, 42, 43, 44, 45, 46, 47, 48, 49, 50, 51, 52, 53, 54, 55, 56, 57, 58, 59, 60, 61, 62, 63, 64, 65, 66, 67, 68, 69, 70, 71, 72, 73, 74, 75, 76, 77, 78, 79, 80, 81, 82, 83, 84, 85, 86, 87, 88, 89, 90, 91, 92, 93, 94, 95, 96, 97, 98, 99, 100, 101, 102, 103, 104, 105, 106, 107, 108, 109, 110, 111, 112, 113, 114, 115, 116, 117, 118, 119, 120, 121, 122, 123, 124, 125, 126, 127, 128, 129, 130, 131, 132, 133, 134, 135, 136, 137, 138, 139],
      "LargestImagePixelValue": [40893, 40614, 39813, 39395, 39000, 38834, 39204, 39905, 39993, 40108, 39529, 39027, 38790, 39139, 39749, 40025, 39807, 39344, 39236, 38743, 39584, 39638, 39879, 38551, 38690, 39064, 39675, 40001, 40223, 39679, 39313, 38818, 38915, 40318, 40885, 40631, 39496, 39130, 39944, 40643, 40358, 40452, 39076, 39334, 40152, 40909, 40496, 40026, 39682, 39412, 40400, 40781, 39698, 38760, 38893, 39283, 40356, 40667, 40848, 40428, 40028, 39696, 39896, 39850, 40803, 41829, 41996, 41691, 40724, 40011, 40862, 42013, 41889, 41336, 41006, 39675, 39214, 40331, 40975, 40695, 40820, 40797, 40880, 39327, 40919, 40874, 41044, 41364, 40457, 40759, 41611, 41630, 41321, 41353, 39700, 39261, 42074, 42118, 41493, 40565, 39808, 40247, 40217, 41973, 42216, 41599, 41383, 41199, 40670, 41849, 41378, 41687, 40207, 40396, 40653, 40385, 40544, 39780, 39358, 41029, 40591, 40584, 39448, 40238, 40406, 41359, 41024, 40193, 39187, 39656, 41068, 41121, 40824, 40074, 40429, 41412, 41466, 40325, 40512],
      "WindowCenter": [10210.0, 10170.0, 10147.0, 10128.0, 10110.0, 10101.0, 10124.0, 10168.0, 10182.0, 10167.0, 10139.0, 10119.0, 10101.0, 10106.0, 10140.0, 10166.0, 10152.0, 10129.0, 10125.0, 10112.0, 10131.0, 10168.0, 10182.0, 10156.0, 10136.0, 10119.0, 10134.0, 10159.0, 10161.0, 10137.0, 10123.0, 10113.0, 10119.0, 10153.0, 10172.0, 10159.0, 10128.0, 10103.0, 10108.0, 10149.0, 10165.0, 10167.0, 10140.0, 10129.0, 10136.0, 10169.0, 10171.0, 10152.0, 10121.0, 10108.0, 10138.0, 10164.0, 10133.0, 10108.0, 10083.0, 10070.0, 10098.0, 10127.0, 10137.0, 10121.0, 10097.0, 10100.0, 10105.0, 10102.0, 10114.0, 10137.0, 10150.0, 10142.0, 10129.0, 10122.0, 10142.0, 10175.0, 10178.0, 10173.0, 10144.0, 10109.0, 10091.0, 10111.0, 10155.0, 10167.0, 10157.0, 10134.0, 10127.0, 10092.0, 10100.0, 10124.0, 10146.0, 10152.0, 10132.0, 10120.0, 10139.0, 10159.0, 10163.0, 10154.0, 10134.0, 10111.0, 10149.0, 10185.0, 10197.0, 10169.0, 10136.0, 10115.0, 10110.0, 10138.0, 10174.0, 10171.0, 10149.0, 10129.0, 10112.0, 10128.0, 10144.0, 10161.0, 10144.0, 10121.0, 10117.0, 10137.0, 10146.0, 10135.0, 10126.0, 10143.0, 10154.0, 10158.0, 10137.0, 10130.0, 10131.0, 10170.0, 10160.0, 10135.0, 10089.0, 10071.0, 10088.0, 10125.0, 10140.0, 10117.0, 10097.0, 10099.0, 10123.0, 10132.0, 10135.0],
      "WindowWidth": [21595.0, 21490.0, 21437.0, 21390.0, 21345.0, 21326.0, 21376.0, 21478.0, 21508.0, 21470.0, 21408.0, 21360.0, 21321.0, 21333.0, 21411.0, 21467.0, 21434.0, 21384.0, 21378.0, 21348.0, 21390.0, 21476.0, 21508.0, 21455.0, 21405.0, 21362.0, 21398.0, 21458.0, 21457.0, 21406.0, 21381.0, 21357.0, 21366.0, 21435.0, 21479.0, 21451.0, 21384.0, 21328.0, 21331.0, 21427.0, 21468.0, 21470.0, 21412.0, 21391.0, 21393.0, 21471.0, 21475.0, 21435.0, 21372.0, 21333.0, 21399.0, 21459.0, 21394.0, 21342.0, 21277.0, 21249.0, 21310.0, 21376.0, 21397.0, 21359.0, 21306.0, 21318.0, 21324.0, 21317.0, 21343.0, 21392.0, 21425.0, 21403.0, 21378.0, 21367.0, 21405.0, 21480.0, 21486.0, 21483.0, 21403.0, 21338.0, 21296.0, 21338.0, 21441.0, 21464.0, 21436.0, 21385.0, 21367.0, 21296.0, 21307.0, 21362.0, 21414.0, 21423.0, 21388.0, 21357.0, 21395.0, 21446.0, 21458.0, 21431.0, 21394.0, 21343.0, 21421.0, 21504.0, 21529.0, 21466.0, 21394.0, 21345.0, 21332.0, 21395.0, 21478.0, 21474.0, 21425.0, 21375.0, 21339.0, 21368.0, 21411.0, 21445.0, 21418.0, 21356.0, 21347.0, 21395.0, 21416.0, 21395.0, 21374.0, 21405.0, 21433.0, 21442.0, 21401.0, 21377.0, 21383.0, 21468.0, 21448.0, 21389.0, 21291.0, 21245.0, 21278.0, 21365.0, 21412.0, 21354.0, 21304.0, 21306.0, 21362.0, 21396.0, 21405.0]
    },
    "slices": {}
  }
}