{
  "AcquisitionMatrixPE": 104,
  "AcquisitionNumber": 1,
  "AcquisitionTime": "11:17:38.750000",
  "BandwidthPerPixelPhaseEncode": 17.17,
  "BaseResolution": 104,
  "BodyPartExamined": "BRAIN",
  "CoilString": "HC1-7;NC1_2",
  "ConsistencyInfo": "N4_VE11C_LATEST_20160120",
  "ConversionSoftware": "dcm2niix",
  "ConversionSoftwareVersion": "v1.0.20190720  (JP2:OpenJPEG) GCC7.3.0",
  "DerivedVendorReportedEchoSpacing": 0.000560011,
  "DeviceSerialNumber": "167006",
  "DwellTime": 2.1e-06,
  "EchoTime": 0.037,
  "EchoTrainLength": 104,
  "EffectiveEchoSpacing": 0.000560011,
  "FlipAngle": 52,
  "ImageComments": "Unaliased_MB4_PE3_LB",
  "ImageOrientationPatientDICOM": [0.999716, -0.0102761, 0.0214933, 0.0172755, 0.93394, -0.357011],
  "ImageType": [
    "ORIGINAL",
    "PRIMARY",
    "M",
    "MB",
    "ND",
    "MOSAIC"
],
  "ImagingFrequency": 123.259,
  "InPlanePhaseEncodingDirectionDICOM": "COL",
  "InstitutionAddress": "Chemin_Queen-Mary_4565_Montreal_District_CA_H3W_1W5",
  "InstitutionName": "IUGM",
  "InstitutionalDepartmentName": "Department",
  "MRAcquisitionType": "2D",
  "MagneticFieldStrength": 3,
  "Manufacturer": "Siemens",
  "ManufacturersModelName": "Prisma_fit",
  "Modality": "MR",
  "MultibandAccelerationFactor": 4,
  "PartialFourier": 1,
  "PatientPosition": "HFS",
  "PercentPhaseFOV": 100,
  "PhaseEncodingDirection": "j",
  "PhaseEncodingSteps": 104,
  "PhaseResolution": 1,
  "PixelBandwidth": 2290,
  "ProcedureStepDescription": "hcptrt_generic",
  "ProtocolName": "func_task-language_run-2",
  "PulseSequenceDetails": "%CustomerSeq%_cmrr_mbep2d_bold",
  "ReceiveCoilActiveElements": "HC1-7;NC1,2",
  "ReceiveCoilName": "HeadNeck_64",
  "ReconMatrixPE": 104,
  "RepetitionTime": 1.49,
  "SAR": 0.0379514,
  "ScanOptions": "FS",
  "ScanningSequence": "EP",
  "SequenceName": "epfid2d1_104",
  "SequenceVariant": "SK_SS",
  "SeriesDescription": "func_task-language_run-2",
  "SeriesNumber": 38,
  "ShimSetting": [636, -7189, -8818, 668, 93, -4, -62, -25],
  "SliceThickness": 2,
  "SliceTiming": [0, 0.7825, 0.0975, 0.8825, 0.195, 0.98, 0.295, 1.0775, 0.3925, 1.175, 0.49, 1.2725, 0.5875, 1.3725, 0.685, 0, 0.7825, 0.0975, 0.8825, 0.195, 0.98, 0.295, 1.0775, 0.3925, 1.175, 0.49, 1.2725, 0.5875, 1.3725, 0.685, 0, 0.7825, 0.0975, 0.8825, 0.195, 0.98, 0.295, 1.0775, 0.3925, 1.175, 0.49, 1.2725, 0.5875, 1.3725, 0.685, 0, 0.7825, 0.0975, 0.8825, 0.195, 0.98, 0.295, 1.0775, 0.3925, 1.175, 0.49, 1.2725, 0.5875, 1.3725, 0.685],
  "SoftwareVersions": "syngo_MR_E11",
  "SpacingBetweenSlices": 2,
  "StationName": "MRC35049",
  "TaskName": "language",
  "TotalReadoutTime": 0.0576811,
  "TxRefAmp": 250.119,
  "WipMemBlock": "ac57316b-d10f-4d48-b49a-3e5269f752c0||Sequence: R016 ve11c/master r/e634e98; Dec 19 2017 11:00:25 by eja",
  "dcmmeta_affine": [
    [-1.9994323253631592, 0.03455103561282158, 0.03280960023403168, 105.41395568847656],
    [0.020552193745970726, 1.8678808212280273, -0.7145620584487915, -59.63142395019531],
    [0.042986638844013214, 0.7140220999717712, 1.8677057027816772, -61.53466033935547],
    [0.0, 0.0, 0.0, 1.0]
],
  "dcmmeta_reorient_transform": [
    [0.0, -1.0, 0.0, 103.0],
    [1.0, 0.0, 0.0, 0.0],
    [0.0, 0.0, 1.0, 0.0],
    [0.0, 0.0, 0.0, 1.0]
],
  "dcmmeta_shape": [104, 104, 60, 159],
  "dcmmeta_slice_dim": 2,
  "dcmmeta_version": 0.6,
  "global": {
    "const": {
      "AcquisitionMatrix": [104, 0, 0, 104],
      "AngioFlag": "N",
      "BitsAllocated": 16,
      "BitsStored": 16,
      "BodyPartExamined": "BRAIN",
      "Columns": 832,
      "EchoNumbers": 1,
      "EchoTime": 37.0,
      "EchoTrainLength": 104,
      "FlipAngle": 52.0,
      "HighBit": 15,
      "ImageOrientationPatient": [0.99971617924965, -0.0102760964261, 0.02149331963035, 0.01727551739324, 0.9339403967406, -0.3570110528188],
      "ImagePositionPatient": [-849.3426704109, -805.18790898228, 256.26652816748],
      "ImageType": [
        "ORIGINAL",
        "PRIMARY",
        "M",
        "MB",
        "ND",
        "MOSAIC"
],
      "ImagedNucleus": "1H",
      "ImagingFrequency": 123.259481,
      "InPlanePhaseEncodingDirection": "COL",
      "MRAcquisitionType": "2D",
      "MagneticFieldStrength": 3.0,
      "Manufacturer": "SIEMENS",
      "ManufacturerModelName": "Prisma_fit",
      "Modality": "MR",
      "NumberOfAverages": 1.0,
      "NumberOfPhaseEncodingSteps": 104,
      "PercentPhaseFieldOfView": 100.0,
      "PercentSampling": 100.0,
      "PerformedProcedureStepStartTime": "100328.993000",
      "PhotometricInterpretation": "MONOCHROME2",
      "PixelBandwidth": 2290.0,
      "PixelRepresentation": 0,
      "PixelSpacing": [2.0, 2.0],
      "ProtocolName": "func_task-language_run-2",
      "RepetitionTime": 1490.0,
      "Rows": 832,
      "SAR": 0.03795137182652,
      "SamplesPerPixel": 1,
      "ScanOptions": "FS",
      "ScanningSequence": "EP",
      "SequenceName": "epfid2d1_104",
      "SequenceVariant": [
        "SK",
        "SS"
],
      "SeriesDescription": "func_task-language_run-2",
      "SeriesNumber": 38,
      "SeriesTime": "111901.457000",
      "SliceLocation": -34.429844739498,
      "SliceThickness": 2.0,
      "SmallestImagePixelValue": 0,
      "SoftwareVersions": "syngo MR E11",
      "SpacingBetweenSlices": 1.9999999796299,
      "SpecificCharacterSet": "ISO_IR 100",
      "StudyID": "1",
      "StudyTime": "100328.868000",
      "TransmitCoilName": "Body",
      "VariableFlipAngleFlag": "N",
      "WindowCenterWidthExplanation": "Algo1",
      "dBdt": 0.0},
    "slices": {}
  },
  "time": {
    "samples": {
      "AcquisitionNumber": [1, 2, 3, 4, 5, 6, 7, 8, 9, 10, 11, 12, 13, 14, 15, 16, 17, 18, 19, 20, 21, 22, 23, 24, 25, 26, 27, 28, 29, 30, 31, 32, 33, 34, 35, 36, 37, 38, 39, 40, 41, 42, 43, 44, 45, 46, 47, 48, 49, 50, 51, 52, 53, 54, 55, 56, 57, 58, 59, 60, 61, 62, 63, 64, 65, 66, 67, 68, 69, 70, 71, 72, 73, 74, 75, 76, 77, 78, 79, 80, 81, 82, 83, 84, 85, 86, 87, 88, 89, 90, 91, 92, 93, 94, 95, 96, 97, 98, 99, 100, 101, 102, 103, 104, 105, 106, 107, 108, 109, 110, 111, 112, 113, 114, 115, 116, 117, 118, 119, 120, 121, 122, 123, 124, 125, 126, 127, 128, 129, 130, 131, 132, 133, 134, 135, 136, 137, 138, 139, 140, 141, 142, 143, 144, 145, 146, 147, 148, 149, 150, 151, 152, 153, 154, 155, 156, 157, 158, 159],
      "AcquisitionTime": ["111738.750000", "111740.240000", "111741.730000", "111743.220000", "111744.710000", "111746.200000", "111747.690000", "111749.180000", "111750.670000", "111752.160000", "111753.650000", "111755.140000", "111756.630000", "111758.120000", "111759.610000", "111801.100000", "111802.590000", "111804.080000", "111805.570000", "111807.060000", "111808.550000", "111810.040000", "111811.530000", "111813.020000", "111814.510000", "111816.000000", "111817.490000", "111818.980000", "111820.470000", "111821.960000", "111823.450000", "111824.940000", "111826.430000", "111827.920000", "111829.410000", "111830.900000", "111832.390000", "111833.880000", "111835.370000", "111836.860000", "111838.350000", "111839.840000", "111841.330000", "111842.820000", "111844.310000", "111845.800000", "111847.290000", "111848.780000", "111850.270000", "111851.760000", "111853.250000", "111854.740000", "111856.230000", "111857.720000", "111859.210000", "111900.700000", "111902.190000", "111903.680000", "111905.170000", "111906.660000", "111908.150000", "111909.640000", "111911.130000", "111912.620000", "111914.110000", "111915.600000", "111917.090000", "111918.580000", "111920.070000", "111921.560000", "111923.050000", "111924.540000", "111926.030000", "111927.520000", "111929.010000", "111930.500000", "111931.990000", "111933.480000", "111934.970000", "111936.460000", "111937.950000", "111939.440000", "111940.930000", "111942.420000", "111943.910000", "111945.400000", "111946.890000", "111948.380000", "111949.870000", "111951.360000", "111952.850000", "111954.340000", "111955.830000", "111957.320000", "111958.810000", "112000.300000", "112001.790000", "112003.280000", "112004.770000", "112006.260000", "112007.750000", "112009.240000", "112010.730000", "112012.220000", "112013.710000", "112015.200000", "112016.690000", "112018.180000", "112019.670000", "112021.160000", "112022.650000", "112024.140000", "112025.630000", "112027.120000", "112028.610000", "112030.100000", "112031.590000", "112033.080000", "112034.570000", "112036.060000", "112037.550000", "112039.040000", "112040.530000", "112042.020000", "112043.510000", "112045.000000", "112046.490000", "112047.980000", "112049.470000", "112050.960000", "112052.450000", "112053.940000", "112055.430000", "112056.920000", "112058.410000", "112059.900000", "112101.390000", "112102.880000", "112104.370000", "112105.860000", "112107.350000", "112108.840000", "112110.330000", "112111.820000", "112113.310000", "112114.800000", "112116.290000", "112117.780000", "112119.270000", "112120.760000", "112122.250000", "112123.740000", "112125.230000", "112126.720000", "112128.210000", "112129.700000", "112131.190000", "112132.680000", "112134.170000"],
      "ContentTime": ["111901.460000", "111901.464000", "111901.467000", "111901.470000", "111901.473000", "111901.476000", "111901.479000", "111901.482000", "111901.485000", "111901.493000", "111901.496000", "111901.499000", "111901.502000", "111901.523000", "111901.526000", "111901.529000", "111901.532000", "111901.535000", "111901.538000", "111901.541000", "111901.544000", "111901.547000", "111901.553000", "111901.556000", "111901.559000", "111921.418000", "111921.421000", "111921.424000", "111921.428000", "111921.431000", "111921.434000", "111921.437000", "111921.440000", "111921.443000", "111921.446000", "111921.448000", "111921.451000", "111921.460000", "111921.463000", "111921.466000", "111921.469000", "111921.472000", "111921.475000", "111921.478000", "111921.481000", "111921.484000", "111941.417000", "111941.420000", "111941.423000", "111941.426000", "111941.429000", "111941.432000", "111941.434000", "111941.437000", "111941.440000", "111941.443000", "111941.453000", "111941.456000", "111941.459000", "111941.462000", "111941.465000", "111941.468000", "111941.471000", "111941.474000", "111941.477000", "111941.480000", "112001.417000", "112001.420000", "112001.423000", "112001.426000", "112001.429000", "112001.432000", "112001.435000", "112001.438000", "112001.440000", "112001.443000", "112001.451000", "112001.454000", "112001.457000", "112001.460000", "112001.463000", "112001.466000", "112001.469000", "112001.472000", "112001.475000", "112001.478000", "112021.417000", "112021.420000", "112021.423000", "112021.426000", "112021.429000", "112021.432000", "112021.435000", "112021.438000", "112021.441000", "112021.443000", "112021.450000", "112021.453000", "112021.456000", "112021.460000", "112021.463000", "112021.466000", "112021.469000", "112021.472000", "112021.475000", "112021.478000", "112021.480000", "112101.418000", "112101.421000", "112101.424000", "112101.427000", "112101.430000", "112101.433000", "112101.436000", "112101.438000", "112101.441000", "112101.444000", "112101.447000", "112101.450000", "112101.462000", "112101.465000", "112101.467000", "112101.470000", "112101.473000", "112101.476000", "112101.479000", "112101.482000", "112101.485000", "112101.488000", "112101.491000", "112101.494000", "112101.497000", "112101.500000", "112101.503000", "112101.506000", "112136.137000", "112136.141000", "112136.144000", "112136.147000", "112136.149000", "112136.153000", "112136.156000", "112136.180000", "112136.183000", "112136.186000", "112136.189000", "112136.192000", "112136.195000", "112136.199000", "112136.202000", "112136.205000", "112136.208000", "112136.211000", "112136.214000", "112136.217000", "112136.220000", "112136.223000", "112136.226000", "112136.229000"],
      "InstanceCreationTime": ["111901.460000", "111901.464000", "111901.467000", "111901.470000", "111901.473000", "111901.476000", "111901.479000", "111901.482000", "111901.485000", "111901.493000", "111901.496000", "111901.499000", "111901.502000", "111901.523000", "111901.526000", "111901.529000", "111901.532000", "111901.535000", "111901.538000", "111901.541000", "111901.544000", "111901.547000", "111901.553000", "111901.556000", "111901.559000", "111921.418000", "111921.421000", "111921.424000", "111921.428000", "111921.431000", "111921.434000", "111921.437000", "111921.440000", "111921.443000", "111921.446000", "111921.448000", "111921.451000", "111921.460000", "111921.463000", "111921.466000", "111921.469000", "111921.472000", "111921.475000", "111921.478000", "111921.481000", "111921.484000", "111941.417000", "111941.420000", "111941.423000", "111941.426000", "111941.429000", "111941.432000", "111941.434000", "111941.437000", "111941.440000", "111941.443000", "111941.453000", "111941.456000", "111941.459000", "111941.462000", "111941.465000", "111941.468000", "111941.471000", "111941.474000", "111941.477000", "111941.480000", "112001.417000", "112001.420000", "112001.423000", "112001.426000", "112001.429000", "112001.432000", "112001.435000", "112001.438000", "112001.440000", "112001.443000", "112001.451000", "112001.454000", "112001.457000", "112001.460000", "112001.463000", "112001.466000", "112001.469000", "112001.472000", "112001.475000", "112001.478000", "112021.417000", "112021.420000", "112021.423000", "112021.426000", "112021.429000", "112021.432000", "112021.435000", "112021.438000", "112021.441000", "112021.443000", "112021.450000", "112021.453000", "112021.456000", "112021.460000", "112021.463000", "112021.466000", "112021.469000", "112021.472000", "112021.475000", "112021.478000", "112021.480000", "112101.418000", "112101.421000", "112101.424000", "112101.427000", "112101.430000", "112101.433000", "112101.436000", "112101.438000", "112101.441000", "112101.444000", "112101.447000", "112101.450000", "112101.462000", "112101.465000", "112101.467000", "112101.470000", "112101.473000", "112101.476000", "112101.479000", "112101.482000", "112101.485000", "112101.488000", "112101.491000", "112101.494000", "112101.497000", "112101.500000", "112101.503000", "112101.506000", "112136.137000", "112136.141000", "112136.144000", "112136.147000", "112136.149000", "112136.153000", "112136.156000", "112136.180000", "112136.183000", "112136.186000", "112136.189000", "112136.192000", "112136.195000", "112136.199000", "112136.202000", "112136.205000", "112136.208000", "112136.211000", "112136.214000", "112136.217000", "112136.220000", "112136.223000", "112136.226000", "112136.229000"],
      "InstanceNumber": [1, 2, 3, 4, 5, 6, 7, 8, 9, 10, 11, 12, 13, 14, 15, 16, 17, 18, 19, 20, 21, 22, 23, 24, 25, 26, 27, 28, 29, 30, 31, 32, 33, 34, 35, 36, 37, 38, 39, 40, 41, 42, 43, 44, 45, 46, 47, 48, 49, 50, 51, 52, 53, 54, 55, 56, 57, 58, 59, 60, 61, 62, 63, 64, 65, 66, 67, 68, 69, 70, 71, 72, 73, 74, 75, 76, 77, 78, 79, 80, 81, 82, 83, 84, 85, 86, 87, 88, 89, 90, 91, 92, 93, 94, 95, 96, 97, 98, 99, 100, 101, 102, 103, 104, 105, 106, 107, 108, 109, 110, 111, 112, 113, 114, 115, 116, 117, 118, 119, 120, 121, 122, 123, 124, 125, 126, 127, 128, 129, 130, 131, 132, 133, 134, 135, 136, 137, 138, 139, 140, 141, 142, 143, 144, 145, 146, 147, 148, 149, 150, 151, 152, 153, 154, 155, 156, 157, 158, 159],
      "LargestImagePixelValue": [41794, 41314, 40476, 39619, 39078, 38482, 38738, 38717, 39452, 38851, 39253, 38378, 38716, 38585, 39224, 39140, 38382, 39446, 39170, 39979, 39324, 38736, 38691, 39280, 38120, 39304, 38627, 38788, 38135, 38687, 38185, 38710, 38053, 37694, 39109, 38508, 38788, 37965, 37957, 37615, 38225, 37843, 38380, 38062, 38319, 40143, 37719, 37736, 38261, 37858, 38082, 38306, 38775, 37967, 37749, 38206, 37920, 38763, 38906, 38982, 38258, 38479, 38066, 38721, 38130, 38180, 38722, 38025, 38577, 38687, 38160, 38625, 38530, 38598, 38175, 38773, 38426, 38528, 39001, 38272, 38418, 39071, 38198, 38494, 39043, 38705, 38222, 38046, 37452, 38135, 38109, 39382, 38605, 38141, 38260, 38597, 38659, 38326, 37676, 38159, 39214, 38902, 38027, 38089, 38487, 39556, 39314, 38132, 38008, 38647, 39190, 38515, 38198, 38741, 38647, 38370, 39388, 38713, 39135, 39269, 37465, 38550, 38282, 39099, 39347, 38103, 37806, 38884, 39111, 42381, 39393, 38398, 38403, 38634, 39081, 39241, 38050, 38540, 39062, 39729, 38478, 38301, 41317, 39226, 39247, 39031, 38164, 38424, 38496, 38713, 38642, 38940, 38969, 38381, 39206, 38739, 37922, 42264, 38553],
      "WindowCenter": [10166.0, 10109.0, 10066.0, 10046.0, 10053.0, 10079.0, 10081.0, 10053.0, 10036.0, 10042.0, 10058.0, 10037.0, 10031.0, 10029.0, 10042.0, 10065.0, 10063.0, 10057.0, 10038.0, 10049.0, 10056.0, 10058.0, 10056.0, 10075.0, 10054.0, 10047.0, 10033.0, 10041.0, 10044.0, 10049.0, 10046.0, 10061.0, 10047.0, 10029.0, 10040.0, 10039.0, 10050.0, 10044.0, 10053.0, 10067.0, 10058.0, 10039.0, 10034.0, 10025.0, 10048.0, 10079.0, 10063.0, 10059.0, 10064.0, 10030.0, 10035.0, 10043.0, 10050.0, 10054.0, 10068.0, 10076.0, 10058.0, 10045.0, 10057.0, 10057.0, 10046.0, 10053.0, 10047.0, 10042.0, 10038.0, 10072.0, 10088.0, 10083.0, 10091.0, 10081.0, 10055.0, 10064.0, 10063.0, 10055.0, 10061.0, 10077.0, 10064.0, 10061.0, 10055.0, 10044.0, 10044.0, 10051.0, 10049.0, 10054.0, 10059.0, 10043.0, 10045.0, 10054.0, 10060.0, 10059.0, 10039.0, 10040.0, 10041.0, 10063.0, 10090.0, 10074.0, 10055.0, 10027.0, 10027.0, 10046.0, 10055.0, 10033.0, 10015.0, 10033.0, 10043.0, 10054.0, 10037.0, 10025.0, 10058.0, 10080.0, 10061.0, 10028.0, 10009.0, 10020.0, 10030.0, 10022.0, 10027.0, 10037.0, 10057.0, 10066.0, 10043.0, 10051.0, 10046.0, 10040.0, 10044.0, 10043.0, 10066.0, 10089.0, 10071.0, 10091.0, 10054.0, 10049.0, 10066.0, 10074.0, 10066.0, 10053.0, 10045.0, 10063.0, 10068.0, 10065.0, 10051.0, 10071.0, 10116.0, 10079.0, 10067.0, 10052.0, 10057.0, 10090.0, 10085.0, 10071.0, 10053.0, 10051.0, 10049.0, 10043.0, 10079.0, 10082.0, 10065.0, 10109.0, 10078.0],
      "WindowWidth": [21481.0, 21337.0, 21237.0, 21189.0, 21205.0, 21265.0, 21273.0, 21206.0, 21159.0, 21182.0, 21215.0, 21169.0, 21152.0, 21151.0, 21176.0, 21230.0, 21233.0, 21210.0, 21170.0, 21188.0, 21215.0, 21213.0, 21207.0, 21252.0, 21209.0, 21186.0, 21167.0, 21183.0, 21189.0, 21196.0, 21195.0, 21225.0, 21197.0, 21154.0, 21181.0, 21176.0, 21205.0, 21192.0, 21209.0, 21250.0, 21222.0, 21175.0, 21162.0, 21141.0, 21192.0, 21267.0, 21236.0, 21231.0, 21240.0, 21160.0, 21170.0, 21187.0, 21201.0, 21214.0, 21252.0, 21264.0, 21218.0, 21191.0, 21212.0, 21213.0, 21194.0, 21210.0, 21196.0, 21180.0, 21179.0, 21253.0, 21287.0, 21279.0, 21298.0, 21272.0, 21210.0, 21236.0, 21231.0, 21211.0, 21224.0, 21256.0, 21232.0, 21221.0, 21205.0, 21190.0, 21195.0, 21208.0, 21213.0, 21215.0, 21217.0, 21183.0, 21193.0, 21211.0, 21233.0, 21227.0, 21179.0, 21172.0, 21184.0, 21233.0, 21293.0, 21253.0, 21212.0, 21147.0, 21149.0, 21194.0, 21202.0, 21156.0, 21119.0, 21159.0, 21183.0, 21206.0, 21165.0, 21148.0, 21226.0, 21264.0, 21215.0, 21144.0, 21104.0, 21127.0, 21157.0, 21133.0, 21142.0, 21166.0, 21212.0, 21233.0, 21191.0, 21208.0, 21190.0, 21174.0, 21178.0, 21186.0, 21243.0, 21288.0, 21244.0, 21288.0, 21200.0, 21196.0, 21240.0, 21256.0, 21235.0, 21205.0, 21190.0, 21230.0, 21235.0, 21225.0, 21199.0, 21249.0, 21355.0, 21266.0, 21232.0, 21204.0, 21222.0, 21292.0, 21277.0, 21240.0, 21200.0, 21198.0, 21192.0, 21183.0, 21278.0, 21278.0, 21237.0, 21331.0, 21275.0]
    },
    "slices": {}
  }
}