{
  "AcquisitionMatrixPE": 104,
  "AcquisitionNumber": 1,
  "AcquisitionTime": "10:39:12.905000",
  "BandwidthPerPixelPhaseEncode": 17.17,
  "BaseResolution": 104,
  "BodyPartExamined": "BRAIN",
  "CoilString": "HC1-7;NC1_2",
  "ConsistencyInfo": "N4_VE11C_LATEST_20160120",
  "ConversionSoftware": "dcm2niix",
  "ConversionSoftwareVersion": "v1.0.20190720  (JP2:OpenJPEG) GCC7.3.0",
  "DerivedVendorReportedEchoSpacing": 0.000560011,
  "DeviceSerialNumber": "167006",
  "DwellTime": 2.1e-06,
  "EchoTime": 0.037,
  "EchoTrainLength": 104,
  "EffectiveEchoSpacing": 0.000560011,
  "FlipAngle": 52,
  "ImageComments": "Unaliased_MB4_PE3_LB",
  "ImageOrientationPatientDICOM": [0.999661, -0.00175887, 0.0259951, 0.00907287, 0.958772, -0.284031],
  "ImageType": [
    "ORIGINAL",
    "PRIMARY",
    "M",
    "MB",
    "ND",
    "MOSAIC"
],
  "ImagingFrequency": 123.259,
  "InPlanePhaseEncodingDirectionDICOM": "COL",
  "InstitutionAddress": "Chemin_Queen-Mary_4565_Montreal_District_CA_H3W_1W5",
  "InstitutionName": "IUGM",
  "InstitutionalDepartmentName": "Department",
  "MRAcquisitionType": "2D",
  "MagneticFieldStrength": 3,
  "Manufacturer": "Siemens",
  "ManufacturersModelName": "Prisma_fit",
  "Modality": "MR",
  "MultibandAccelerationFactor": 4,
  "PartialFourier": 1,
  "PatientPosition": "HFS",
  "PercentPhaseFOV": 100,
  "PhaseEncodingDirection": "j",
  "PhaseEncodingSteps": 104,
  "PhaseResolution": 1,
  "PixelBandwidth": 2290,
  "ProcedureStepDescription": "hcptrt_generic",
  "ProtocolName": "func_task-motor_run-1",
  "PulseSequenceDetails": "%CustomerSeq%_cmrr_mbep2d_bold",
  "ReceiveCoilActiveElements": "HC1-7;NC1,2",
  "ReceiveCoilName": "HeadNeck_64",
  "ReconMatrixPE": 104,
  "RepetitionTime": 1.49,
  "SAR": 0.0383593,
  "ScanOptions": "FS",
  "ScanningSequence": "EP",
  "SequenceName": "epfid2d1_104",
  "SequenceVariant": "SK_SS",
  "SeriesDescription": "func_task-motor_run-1",
  "SeriesNumber": 19,
  "ShimSetting": [630, -7205, -8827, 723, 80, -3, 15, -12],
  "SliceThickness": 2,
  "SliceTiming": [0, 0.7825, 0.0975, 0.88, 0.195, 0.9775, 0.2925, 1.0775, 0.39, 1.175, 0.49, 1.2725, 0.5875, 1.37, 0.685, 0, 0.7825, 0.0975, 0.88, 0.195, 0.9775, 0.2925, 1.0775, 0.39, 1.175, 0.49, 1.2725, 0.5875, 1.37, 0.685, 0, 0.7825, 0.0975, 0.88, 0.195, 0.9775, 0.2925, 1.0775, 0.39, 1.175, 0.49, 1.2725, 0.5875, 1.37, 0.685, 0, 0.7825, 0.0975, 0.88, 0.195, 0.9775, 0.2925, 1.0775, 0.39, 1.175, 0.49, 1.2725, 0.5875, 1.37, 0.685],
  "SoftwareVersions": "syngo_MR_E11",
  "SpacingBetweenSlices": 2,
  "StationName": "MRC35049",
  "TaskName": "motor",
  "TotalReadoutTime": 0.0576811,
  "TxRefAmp": 252.034,
  "WipMemBlock": "778d374c-bd3a-4f40-b7bd-fcaa31e2e00d||Sequence: R016 ve11c/master r/e634e98; Dec 19 2017 11:00:25 by eja",
  "dcmmeta_affine": [
    [-1.9993211030960083, 0.018145732581615448, 0.04884767159819603, 105.95870971679688],
    [0.0035177418030798435, 1.9175442457199097, -0.5683413147926331, -63.870731353759766],
    [0.051990266889333725, 0.5680624842643738, 1.9169251918792725, -58.5931510925293],
    [0.0, 0.0, 0.0, 1.0]
],
  "dcmmeta_reorient_transform": [
    [0.0, -1.0, 0.0, 103.0],
    [1.0, 0.0, 0.0, 0.0],
    [0.0, 0.0, 1.0, 0.0],
    [0.0, 0.0, 0.0, 1.0]
],
  "dcmmeta_shape": [104, 104, 60, 144],
  "dcmmeta_slice_dim": 2,
  "dcmmeta_version": 0.6,
  "global": {
    "const": {
      "AcquisitionMatrix": [104, 0, 0, 104],
      "AngioFlag": "N",
      "BitsAllocated": 16,
      "BitsStored": 16,
      "BodyPartExamined": "BRAIN",
      "Columns": 832,
      "EchoNumbers": 1,
      "EchoTime": 37.0,
      "EchoTrainLength": 104,
      "FlipAngle": 52.0,
      "HighBit": 15,
      "ImageOrientationPatient": [0.99966052206265, -0.0017588709379, 0.02599513420748, 0.0090728663472, 0.95877210218284, -0.2840312292199],
      "ImagePositionPatient": [-842.18562920163, -830.34195343367, 187.76756066762],
      "ImageType": [
        "ORIGINAL",
        "PRIMARY",
        "M",
        "MB",
        "ND",
        "MOSAIC"
],
      "ImagedNucleus": "1H",
      "ImagingFrequency": 123.259482,
      "InPlanePhaseEncodingDirection": "COL",
      "MRAcquisitionType": "2D",
      "MagneticFieldStrength": 3.0,
      "Manufacturer": "SIEMENS",
      "ManufacturerModelName": "Prisma_fit",
      "Modality": "MR",
      "NumberOfAverages": 1.0,
      "NumberOfPhaseEncodingSteps": 104,
      "PercentPhaseFieldOfView": 100.0,
      "PercentSampling": 100.0,
      "PerformedProcedureStepStartTime": "100328.993000",
      "PhotometricInterpretation": "MONOCHROME2",
      "PixelBandwidth": 2290.0,
      "PixelRepresentation": 0,
      "PixelSpacing": [2.0, 2.0],
      "ProtocolName": "func_task-motor_run-1",
      "RepetitionTime": 1490.0,
      "Rows": 832,
      "SAR": 0.03835930355946,
      "SamplesPerPixel": 1,
      "ScanOptions": "FS",
      "ScanningSequence": "EP",
      "SequenceName": "epfid2d1_104",
      "SequenceVariant": [
        "SK",
        "SS"
],
      "SeriesDescription": "func_task-motor_run-1",
      "SeriesNumber": 19,
      "SeriesTime": "104026.830000",
      "SliceLocation": -35.421235346275,
      "SliceThickness": 2.0,
      "SmallestImagePixelValue": 0,
      "SoftwareVersions": "syngo MR E11",
      "SpacingBetweenSlices": 2.0000000173956,
      "SpecificCharacterSet": "ISO_IR 100",
      "StudyID": "1",
      "StudyTime": "100328.868000",
      "TransmitCoilName": "Body",
      "VariableFlipAngleFlag": "N",
      "WindowCenterWidthExplanation": "Algo1",
      "dBdt": 0.0},
    "slices": {}
  },
  "time": {
    "samples": {
      "AcquisitionNumber": [1, 2, 3, 4, 5, 6, 7, 8, 9, 10, 11, 12, 13, 14, 15, 16, 17, 18, 19, 20, 21, 22, 23, 24, 25, 26, 27, 28, 29, 30, 31, 32, 33, 34, 35, 36, 37, 38, 39, 40, 41, 42, 43, 44, 45, 46, 47, 48, 49, 50, 51, 52, 53, 54, 55, 56, 57, 58, 59, 60, 61, 62, 63, 64, 65, 66, 67, 68, 69, 70, 71, 72, 73, 74, 75, 76, 77, 78, 79, 80, 81, 82, 83, 84, 85, 86, 87, 88, 89, 90, 91, 92, 93, 94, 95, 96, 97, 98, 99, 100, 101, 102, 103, 104, 105, 106, 107, 108, 109, 110, 111, 112, 113, 114, 115, 116, 117, 118, 119, 120, 121, 122, 123, 124, 125, 126, 127, 128, 129, 130, 131, 132, 133, 134, 135, 136, 137, 138, 139, 140, 141, 142, 143, 144],
      "AcquisitionTime": ["103912.905000", "103914.395000", "103915.885000", "103917.375000", "103918.865000", "103920.355000", "103921.845000", "103923.335000", "103924.825000", "103926.315000", "103927.805000", "103929.295000", "103930.785000", "103932.275000", "103933.765000", "103935.255000", "103936.745000", "103938.235000", "103939.725000", "103941.215000", "103942.705000", "103944.195000", "103945.685000", "103947.175000", "103948.665000", "103950.155000", "103951.645000", "103953.135000", "103954.625000", "103956.115000", "103957.605000", "103959.095000", "104000.585000", "104002.075000", "104003.565000", "104005.055000", "104006.545000", "104008.035000", "104009.525000", "104011.015000", "104012.505000", "104013.995000", "104015.485000", "104016.975000", "104018.465000", "104019.955000", "104021.445000", "104022.935000", "104024.425000", "104025.915000", "104027.405000", "104028.895000", "104030.385000", "104031.875000", "104033.365000", "104034.855000", "104036.345000", "104037.835000", "104039.325000", "104040.815000", "104042.305000", "104043.795000", "104045.285000", "104046.775000", "104048.265000", "104049.755000", "104051.245000", "104052.735000", "104054.225000", "104055.715000", "104057.205000", "104058.695000", "104100.185000", "104101.675000", "104103.165000", "104104.655000", "104106.145000", "104107.635000", "104109.125000", "104110.615000", "104112.105000", "104113.595000", "104115.085000", "104116.575000", "104118.065000", "104119.555000", "104121.045000", "104122.535000", "104124.025000", "104125.515000", "104127.005000", "104128.495000", "104129.985000", "104131.475000", "104132.965000", "104134.455000", "104135.945000", "104137.435000", "104138.925000", "104140.415000", "104141.905000", "104143.395000", "104144.885000", "104146.375000", "104147.865000", "104149.355000", "104150.845000", "104152.335000", "104153.825000", "104155.315000", "104156.805000", "104158.295000", "104159.785000", "104201.275000", "104202.765000", "104204.255000", "104205.745000", "104207.235000", "104208.725000", "104210.215000", "104211.705000", "104213.195000", "104214.685000", "104216.175000", "104217.665000", "104219.155000", "104220.645000", "104222.135000", "104223.625000", "104225.115000", "104226.605000", "104228.095000", "104229.585000", "104231.075000", "104232.565000", "104234.055000", "104235.545000", "104237.035000", "104238.525000", "104240.015000", "104241.505000", "104242.995000", "104244.485000", "104245.975000"],
      "ContentTime": ["104026.833000", "104026.837000", "104026.839000", "104026.842000", "104026.845000", "104026.848000", "104026.851000", "104026.854000", "104026.865000", "104026.868000", "104026.870000", "104026.873000", "104026.876000", "104026.879000", "104026.885000", "104026.888000", "104026.891000", "104026.894000", "104026.897000", "104026.900000", "104046.795000", "104046.798000", "104046.801000", "104046.804000", "104046.807000", "104046.810000", "104046.813000", "104046.816000", "104046.819000", "104046.822000", "104046.825000", "104046.828000", "104046.831000", "104046.834000", "104046.837000", "104046.839000", "104046.842000", "104046.845000", "104046.848000", "104046.851000", "104106.796000", "104106.799000", "104106.802000", "104106.805000", "104106.808000", "104106.811000", "104106.814000", "104106.817000", "104106.820000", "104106.823000", "104106.826000", "104106.829000", "104106.832000", "104106.844000", "104106.847000", "104106.850000", "104106.853000", "104106.855000", "104106.858000", "104106.861000", "104126.796000", "104126.799000", "104126.802000", "104126.805000", "104126.808000", "104126.812000", "104126.814000", "104126.817000", "104126.820000", "104126.823000", "104126.826000", "104126.829000", "104126.832000", "104126.835000", "104126.838000", "104126.841000", "104126.844000", "104126.847000", "104126.850000", "104126.853000", "104126.855000", "104146.796000", "104146.799000", "104146.802000", "104146.805000", "104146.808000", "104146.810000", "104146.813000", "104146.816000", "104146.819000", "104146.822000", "104146.825000", "104146.828000", "104146.831000", "104146.834000", "104146.837000", "104146.839000", "104146.843000", "104146.845000", "104146.848000", "104146.851000", "104226.796000", "104226.799000", "104226.810000", "104226.813000", "104226.815000", "104226.818000", "104226.822000", "104226.825000", "104226.828000", "104226.831000", "104226.834000", "104226.837000", "104226.840000", "104226.842000", "104226.846000", "104226.849000", "104226.851000", "104226.854000", "104226.857000", "104226.860000", "104226.869000", "104226.872000", "104226.875000", "104226.877000", "104226.880000", "104226.883000", "104226.886000", "104226.889000", "104226.892000", "104247.661000", "104247.664000", "104247.668000", "104247.671000", "104247.674000", "104247.677000", "104247.680000", "104247.683000", "104247.686000", "104247.689000", "104247.692000", "104247.695000", "104247.698000", "104247.701000"],
      "InstanceCreationTime": ["104026.833000", "104026.837000", "104026.839000", "104026.842000", "104026.845000", "104026.848000", "104026.851000", "104026.854000", "104026.865000", "104026.868000", "104026.870000", "104026.873000", "104026.876000", "104026.879000", "104026.885000", "104026.888000", "104026.891000", "104026.894000", "104026.897000", "104026.900000", "104046.795000", "104046.798000", "104046.801000", "104046.804000", "104046.807000", "104046.810000", "104046.813000", "104046.816000", "104046.819000", "104046.822000", "104046.825000", "104046.828000", "104046.831000", "104046.834000", "104046.837000", "104046.839000", "104046.842000", "104046.845000", "104046.848000", "104046.851000", "104106.796000", "104106.799000", "104106.802000", "104106.805000", "104106.808000", "104106.811000", "104106.814000", "104106.817000", "104106.820000", "104106.823000", "104106.826000", "104106.829000", "104106.832000", "104106.844000", "104106.847000", "104106.850000", "104106.853000", "104106.855000", "104106.858000", "104106.861000", "104126.796000", "104126.799000", "104126.802000", "104126.805000", "104126.808000", "104126.812000", "104126.814000", "104126.817000", "104126.820000", "104126.823000", "104126.826000", "104126.829000", "104126.832000", "104126.835000", "104126.838000", "104126.841000", "104126.844000", "104126.847000", "104126.850000", "104126.853000", "104126.855000", "104146.796000", "104146.799000", "104146.802000", "104146.805000", "104146.808000", "104146.810000", "104146.813000", "104146.816000", "104146.819000", "104146.822000", "104146.825000", "104146.828000", "104146.831000", "104146.834000", "104146.837000", "104146.839000", "104146.843000", "104146.845000", "104146.848000", "104146.851000", "104226.796000", "104226.799000", "104226.810000", "104226.813000", "104226.815000", "104226.818000", "104226.822000", "104226.825000", "104226.828000", "104226.831000", "104226.834000", "104226.837000", "104226.840000", "104226.842000", "104226.846000", "104226.849000", "104226.851000", "104226.854000", "104226.857000", "104226.860000", "104226.869000", "104226.872000", "104226.875000", "104226.877000", "104226.880000", "104226.883000", "104226.886000", "104226.889000", "104226.892000", "104247.661000", "104247.664000", "104247.668000", "104247.671000", "104247.674000", "104247.677000", "104247.680000", "104247.683000", "104247.686000", "104247.689000", "104247.692000", "104247.695000", "104247.698000", "104247.701000"],
      "InstanceNumber": [1, 2, 3, 4, 5, 6, 7, 8, 9, 10, 11, 12, 13, 14, 15, 16, 17, 18, 19, 20, 21, 22, 23, 24, 25, 26, 27, 28, 29, 30, 31, 32, 33, 34, 35, 36, 37, 38, 39, 40, 41, 42, 43, 44, 45, 46, 47, 48, 49, 50, 51, 52, 53, 54, 55, 56, 57, 58, 59, 60, 61, 62, 63, 64, 65, 66, 67, 68, 69, 70, 71, 72, 73, 74, 75, 76, 77, 78, 79, 80, 81, 82, 83, 84, 85, 86, 87, 88, 89, 90, 91, 92, 93, 94, 95, 96, 97, 98, 99, 100, 101, 102, 103, 104, 105, 106, 107, 108, 109, 110, 111, 112, 113, 114, 115, 116, 117, 118, 119, 120, 121, 122, 123, 124, 125, 126, 127, 128, 129, 130, 131, 132, 133, 134, 135, 136, 137, 138, 139, 140, 141, 142, 143, 144],
      "LargestImagePixelValue": [45498, 44007, 42830, 43171, 43264, 43479, 43492, 42661, 42380, 42768, 42301, 42858, 43284, 42844, 42925, 42692, 42625, 43083, 42346, 42142, 42687, 42436, 42766, 43395, 43240, 43073, 42479, 42701, 42677, 42403, 41968, 41891, 42467, 43101, 43357, 42356, 41643, 41889, 43379, 42876, 43265, 43118, 43146, 43124, 43321, 43189, 41480, 42360, 43200, 43003, 43413, 42543, 42418, 42857, 43374, 43144, 42520, 42318, 42922, 42973, 42878, 42748, 43149, 42798, 43289, 42785, 42722, 42262, 42184, 43238, 43039, 43813, 42289, 40954, 41348, 41918, 42537, 42843, 43255, 43147, 43480, 43067, 42595, 42499, 42645, 42017, 42770, 42653, 42338, 43245, 43111, 43561, 43647, 43227, 43182, 43081, 43170, 42374, 42033, 42162, 42601, 43185, 42953, 42545, 42852, 42747, 42783, 42917, 42992, 42405, 42577, 42824, 42770, 42302, 42432, 42107, 41763, 42236, 42669, 42729, 42135, 42599, 43444, 42944, 43369, 42974, 42293, 42467, 43013, 42958, 42912, 42511, 42771, 43158, 42891, 42813, 41679, 41647, 43677, 43150, 42943, 42204, 42200, 42522],
      "WindowCenter": [10288.0, 10228.0, 10212.0, 10223.0, 10213.0, 10202.0, 10199.0, 10202.0, 10231.0, 10238.0, 10213.0, 10207.0, 10206.0, 10224.0, 10239.0, 10228.0, 10201.0, 10190.0, 10177.0, 10209.0, 10221.0, 10213.0, 10196.0, 10207.0, 10214.0, 10214.0, 10203.0, 10218.0, 10210.0, 10195.0, 10184.0, 10203.0, 10231.0, 10234.0, 10225.0, 10206.0, 10218.0, 10226.0, 10227.0, 10210.0, 10207.0, 10214.0, 10225.0, 10229.0, 10221.0, 10211.0, 10189.0, 10213.0, 10253.0, 10250.0, 10246.0, 10230.0, 10232.0, 10239.0, 10236.0, 10228.0, 10233.0, 10261.0, 10269.0, 10243.0, 10214.0, 10210.0, 10226.0, 10221.0, 10219.0, 10212.0, 10218.0, 10214.0, 10214.0, 10220.0, 10220.0, 10220.0, 10215.0, 10195.0, 10184.0, 10169.0, 10164.0, 10180.0, 10221.0, 10262.0, 10279.0, 10249.0, 10208.0, 10195.0, 10191.0, 10205.0, 10247.0, 10240.0, 10224.0, 10230.0, 10245.0, 10253.0, 10255.0, 10248.0, 10255.0, 10249.0, 10245.0, 10219.0, 10227.0, 10245.0, 10250.0, 10245.0, 10239.0, 10242.0, 10287.0, 10296.0, 10279.0, 10259.0, 10241.0, 10241.0, 10258.0, 10276.0, 10269.0, 10238.0, 10209.0, 10197.0, 10215.0, 10225.0, 10217.0, 10218.0, 10222.0, 10265.0, 10271.0, 10242.0, 10226.0, 10209.0, 10214.0, 10221.0, 10219.0, 10210.0, 10212.0, 10213.0, 10230.0, 10228.0, 10218.0, 10202.0, 10203.0, 10225.0, 10245.0, 10222.0, 10210.0, 10231.0, 10261.0, 10252.0],
      "WindowWidth": [21769.0, 21620.0, 21580.0, 21605.0, 21576.0, 21549.0, 21538.0, 21548.0, 21617.0, 21628.0, 21570.0, 21553.0, 21552.0, 21598.0, 21634.0, 21609.0, 21557.0, 21517.0, 21491.0, 21565.0, 21591.0, 21571.0, 21535.0, 21554.0, 21572.0, 21568.0, 21547.0, 21583.0, 21565.0, 21530.0, 21508.0, 21559.0, 21622.0, 21620.0, 21598.0, 21556.0, 21591.0, 21608.0, 21601.0, 21563.0, 21554.0, 21573.0, 21598.0, 21616.0, 21592.0, 21564.0, 21523.0, 21579.0, 21664.0, 21658.0, 21645.0, 21610.0, 21617.0, 21631.0, 21621.0, 21606.0, 21624.0, 21690.0, 21703.0, 21640.0, 21572.0, 21562.0, 21599.0, 21589.0, 21588.0, 21575.0, 21583.0, 21578.0, 21575.0, 21581.0, 21591.0, 21577.0, 21573.0, 21536.0, 21511.0, 21471.0, 21458.0, 21495.0, 21586.0, 21683.0, 21720.0, 21650.0, 21554.0, 21528.0, 21517.0, 21559.0, 21658.0, 21636.0, 21598.0, 21610.0, 21644.0, 21659.0, 21669.0, 21651.0, 21664.0, 21653.0, 21645.0, 21588.0, 21611.0, 21652.0, 21660.0, 21641.0, 21633.0, 21642.0, 21749.0, 21765.0, 21724.0, 21676.0, 21635.0, 21640.0, 21681.0, 21718.0, 21700.0, 21631.0, 21561.0, 21534.0, 21582.0, 21604.0, 21584.0, 21581.0, 21595.0, 21693.0, 21700.0, 21635.0, 21587.0, 21554.0, 21575.0, 21588.0, 21584.0, 21563.0, 21575.0, 21578.0, 21613.0, 21603.0, 21575.0, 21543.0, 21551.0, 21603.0, 21657.0, 21602.0, 21572.0, 21623.0, 21697.0, 21668.0]
    },
    "slices": {}
  }
}