{
  "AcquisitionMatrixPE": 104,
  "AcquisitionNumber": 1,
  "AcquisitionTime": "11:07:46.762500",
  "BandwidthPerPixelPhaseEncode": 17.17,
  "BaseResolution": 104,
  "BodyPartExamined": "BRAIN",
  "CoilString": "HC1-7;NC1_2",
  "ConsistencyInfo": "N4_VE11C_LATEST_20160120",
  "ConversionSoftware": "dcm2niix",
  "ConversionSoftwareVersion": "v1.0.20190720  (JP2:OpenJPEG) GCC7.3.0",
  "DerivedVendorReportedEchoSpacing": 0.000560011,
  "DeviceSerialNumber": "167006",
  "DwellTime": 2.1e-06,
  "EchoTime": 0.037,
  "EchoTrainLength": 104,
  "EffectiveEchoSpacing": 0.000560011,
  "FlipAngle": 52,
  "ImageComments": "Unaliased_MB4_PE3_LB",
  "ImageOrientationPatientDICOM": [0.999716, -0.0102761, 0.0214933, 0.0172755, 0.93394, -0.357011],
  "ImageType": [
    "ORIGINAL",
    "PRIMARY",
    "M",
    "MB",
    "ND",
    "MOSAIC"
],
  "ImagingFrequency": 123.259,
  "InPlanePhaseEncodingDirectionDICOM": "COL",
  "InstitutionAddress": "Chemin_Queen-Mary_4565_Montreal_District_CA_H3W_1W5",
  "InstitutionName": "IUGM",
  "InstitutionalDepartmentName": "Department",
  "MRAcquisitionType": "2D",
  "MagneticFieldStrength": 3,
  "Manufacturer": "Siemens",
  "ManufacturersModelName": "Prisma_fit",
  "Modality": "MR",
  "MultibandAccelerationFactor": 4,
  "PartialFourier": 1,
  "PatientPosition": "HFS",
  "PercentPhaseFOV": 100,
  "PhaseEncodingDirection": "j",
  "PhaseEncodingSteps": 104,
  "PhaseResolution": 1,
  "PixelBandwidth": 2290,
  "ProcedureStepDescription": "hcptrt_generic",
  "ProtocolName": "func_task-wm_run-2",
  "PulseSequenceDetails": "%CustomerSeq%_cmrr_mbep2d_bold",
  "ReceiveCoilActiveElements": "HC1-7;NC1,2",
  "ReceiveCoilName": "HeadNeck_64",
  "ReconMatrixPE": 104,
  "RepetitionTime": 1.49,
  "SAR": 0.0380479,
  "ScanOptions": "FS",
  "ScanningSequence": "EP",
  "SequenceName": "epfid2d1_104",
  "SequenceVariant": "SK_SS",
  "SeriesDescription": "func_task-wm_run-2",
  "SeriesNumber": 34,
  "ShimSetting": [636, -7189, -8818, 668, 93, -3, -61, -25],
  "SliceThickness": 2,
  "SliceTiming": [0, 0.7825, 0.0975, 0.88, 0.195, 0.98, 0.2925, 1.0775, 0.39, 1.175, 0.49, 1.2725, 0.5875, 1.37, 0.685, 0, 0.7825, 0.0975, 0.88, 0.195, 0.98, 0.2925, 1.0775, 0.39, 1.175, 0.49, 1.2725, 0.5875, 1.37, 0.685, 0, 0.7825, 0.0975, 0.88, 0.195, 0.98, 0.2925, 1.0775, 0.39, 1.175, 0.49, 1.2725, 0.5875, 1.37, 0.685, 0, 0.7825, 0.0975, 0.88, 0.195, 0.98, 0.2925, 1.0775, 0.39, 1.175, 0.49, 1.2725, 0.5875, 1.37, 0.685],
  "SoftwareVersions": "syngo_MR_E11",
  "SpacingBetweenSlices": 2,
  "StationName": "MRC35049",
  "TaskName": "wm",
  "TotalReadoutTime": 0.0576811,
  "TxRefAmp": 250.119,
  "WipMemBlock": "444e3ac6-8178-4923-b8b9-5e909752b2c5||Sequence: R016 ve11c/master r/e634e98; Dec 19 2017 11:00:25 by eja",
  "dcmmeta_affine": [
    [-1.9994323253631592, 0.03455103561282158, 0.03280960023403168, 105.41395568847656],
    [0.020552193745970726, 1.8678808212280273, -0.7145620584487915, -59.63142395019531],
    [0.042986638844013214, 0.7140220999717712, 1.8677057027816772, -61.53466033935547],
    [0.0, 0.0, 0.0, 1.0]
],
  "dcmmeta_reorient_transform": [
    [0.0, -1.0, 0.0, 103.0],
    [1.0, 0.0, 0.0, 0.0],
    [0.0, 0.0, 1.0, 0.0],
    [0.0, 0.0, 0.0, 1.0]
],
  "dcmmeta_shape": [104, 104, 60, 202],
  "dcmmeta_slice_dim": 2,
  "dcmmeta_version": 0.6,
  "global": {
    "const": {
      "AcquisitionMatrix": [104, 0, 0, 104],
      "AngioFlag": "N",
      "BitsAllocated": 16,
      "BitsStored": 16,
      "BodyPartExamined": "BRAIN",
      "Columns": 832,
      "EchoNumbers": 1,
      "EchoTime": 37.0,
      "EchoTrainLength": 104,
      "FlipAngle": 52.0,
      "HighBit": 15,
      "ImageOrientationPatient": [0.99971617924965, -0.0102760964261, 0.02149331963035, 0.01727551739324, 0.9339403967406, -0.3570110528188],
      "ImagePositionPatient": [-849.3426704109, -805.18790898228, 256.26652816748],
      "ImageType": [
        "ORIGINAL",
        "PRIMARY",
        "M",
        "MB",
        "ND",
        "MOSAIC"
],
      "ImagedNucleus": "1H",
      "ImagingFrequency": 123.259479,
      "InPlanePhaseEncodingDirection": "COL",
      "MRAcquisitionType": "2D",
      "MagneticFieldStrength": 3.0,
      "Manufacturer": "SIEMENS",
      "ManufacturerModelName": "Prisma_fit",
      "Modality": "MR",
      "NumberOfAverages": 1.0,
      "NumberOfPhaseEncodingSteps": 104,
      "PercentPhaseFieldOfView": 100.0,
      "PercentSampling": 100.0,
      "PerformedProcedureStepStartTime": "100328.993000",
      "PhotometricInterpretation": "MONOCHROME2",
      "PixelBandwidth": 2290.0,
      "PixelRepresentation": 0,
      "PixelSpacing": [2.0, 2.0],
      "ProtocolName": "func_task-wm_run-2",
      "RepetitionTime": 1490.0,
      "Rows": 832,
      "SAR": 0.03804785690113,
      "SamplesPerPixel": 1,
      "ScanOptions": "FS",
      "ScanningSequence": "EP",
      "SequenceName": "epfid2d1_104",
      "SequenceVariant": [
        "SK",
        "SS"
],
      "SeriesDescription": "func_task-wm_run-2",
      "SeriesNumber": 34,
      "SeriesTime": "110910.006000",
      "SliceLocation": -34.429844739498,
      "SliceThickness": 2.0,
      "SmallestImagePixelValue": 0,
      "SoftwareVersions": "syngo MR E11",
      "SpacingBetweenSlices": 1.9999999796299,
      "SpecificCharacterSet": "ISO_IR 100",
      "StudyID": "1",
      "StudyTime": "100328.868000",
      "TransmitCoilName": "Body",
      "VariableFlipAngleFlag": "N",
      "WindowCenterWidthExplanation": "Algo1",
      "dBdt": 0.0},
    "slices": {}
  },
  "time": {
    "samples": {
      "AcquisitionNumber": [1, 2, 3, 4, 5, 6, 7, 8, 9, 10, 11, 12, 13, 14, 15, 16, 17, 18, 19, 20, 21, 22, 23, 24, 25, 26, 27, 28, 29, 30, 31, 32, 33, 34, 35, 36, 37, 38, 39, 40, 41, 42, 43, 44, 45, 46, 47, 48, 49, 50, 51, 52, 53, 54, 55, 56, 57, 58, 59, 60, 61, 62, 63, 64, 65, 66, 67, 68, 69, 70, 71, 72, 73, 74, 75, 76, 77, 78, 79, 80, 81, 82, 83, 84, 85, 86, 87, 88, 89, 90, 91, 92, 93, 94, 95, 96, 97, 98, 99, 100, 101, 102, 103, 104, 105, 106, 107, 108, 109, 110, 111, 112, 113, 114, 115, 116, 117, 118, 119, 120, 121, 122, 123, 124, 125, 126, 127, 128, 129, 130, 131, 132, 133, 134, 135, 136, 137, 138, 139, 140, 141, 142, 143, 144, 145, 146, 147, 148, 149, 150, 151, 152, 153, 154, 155, 156, 157, 158, 159, 160, 161, 162, 163, 164, 165, 166, 167, 168, 169, 170, 171, 172, 173, 174, 175, 176, 177, 178, 179, 180, 181, 182, 183, 184, 185, 186, 187, 188, 189, 190, 191, 192, 193, 194, 195, 196, 197, 198, 199, 200, 201, 202],
      "AcquisitionTime": ["110746.762500", "110748.252500", "110749.742500", "110751.232500", "110752.722500", "110754.212500", "110755.702500", "110757.192500", "110758.682500", "110800.172500", "110801.662500", "110803.152500", "110804.642500", "110806.132500", "110807.622500", "110809.112500", "110810.602500", "110812.092500", "110813.582500", "110815.072500", "110816.562500", "110818.052500", "110819.542500", "110821.032500", "110822.522500", "110824.012500", "110825.502500", "110826.992500", "110828.482500", "110829.972500", "110831.462500", "110832.952500", "110834.442500", "110835.932500", "110837.422500", "110838.912500", "110840.402500", "110841.892500", "110843.382500", "110844.872500", "110846.362500", "110847.852500", "110849.342500", "110850.832500", "110852.322500", "110853.812500", "110855.302500", "110856.792500", "110858.282500", "110859.772500", "110901.262500", "110902.752500", "110904.242500", "110905.732500", "110907.222500", "110908.712500", "110910.202500", "110911.692500", "110913.182500", "110914.672500", "110916.162500", "110917.652500", "110919.142500", "110920.632500", "110922.122500", "110923.612500", "110925.102500", "110926.592500", "110928.082500", "110929.572500", "110931.062500", "110932.552500", "110934.042500", "110935.532500", "110937.022500", "110938.512500", "110940.002500", "110941.492500", "110942.982500", "110944.472500", "110945.962500", "110947.452500", "110948.942500", "110950.432500", "110951.922500", "110953.412500", "110954.902500", "110956.392500", "110957.882500", "110959.372500", "111000.862500", "111002.352500", "111003.842500", "111005.332500", "111006.822500", "111008.312500", "111009.802500", "111011.292500", "111012.782500", "111014.272500", "111015.762500", "111017.252500", "111018.742500", "111020.232500", "111021.722500", "111023.212500", "111024.702500", "111026.192500", "111027.682500", "111029.172500", "111030.662500", "111032.152500", "111033.642500", "111035.132500", "111036.622500", "111038.112500", "111039.602500", "111041.092500", "111042.582500", "111044.072500", "111045.562500", "111047.052500", "111048.542500", "111050.032500", "111051.522500", "111053.012500", "111054.502500", "111055.992500", "111057.482500", "111058.972500", "111100.462500", "111101.952500", "111103.442500", "111104.932500", "111106.422500", "111107.912500", "111109.402500", "111110.892500", "111112.382500", "111113.872500", "111115.362500", "111116.852500", "111118.342500", "111119.832500", "111121.322500", "111122.812500", "111124.302500", "111125.792500", "111127.282500", "111128.772500", "111130.262500", "111131.752500", "111133.242500", "111134.732500", "111136.222500", "111137.712500", "111139.202500", "111140.692500", "111142.182500", "111143.672500", "111145.162500", "111146.652500", "111148.142500", "111149.632500", "111151.122500", "111152.612500", "111154.102500", "111155.592500", "111157.082500", "111158.572500", "111200.062500", "111201.552500", "111203.042500", "111204.532500", "111206.022500", "111207.512500", "111209.002500", "111210.492500", "111211.982500", "111213.472500", "111214.962500", "111216.452500", "111217.942500", "111219.432500", "111220.922500", "111222.412500", "111223.902500", "111225.392500", "111226.882500", "111228.372500", "111229.862500", "111231.352500", "111232.842500", "111234.332500", "111235.822500", "111237.312500", "111238.802500", "111240.292500", "111241.782500", "111243.272500", "111244.762500", "111246.252500"],
      "ContentTime": ["110910.009000", "110910.013000", "110910.016000", "110910.019000", "110910.022000", "110910.025000", "110910.028000", "110910.030000", "110910.033000", "110910.036000", "110910.039000", "110910.042000", "110910.045000", "110910.048000", "110910.051000", "110910.054000", "110910.059000", "110910.062000", "110910.065000", "110910.068000", "110910.079000", "110910.082000", "110910.085000", "110910.087000", "110910.091000", "110910.094000", "110910.096000", "110910.099000", "110910.102000", "110910.105000", "110929.980000", "110929.983000", "110929.986000", "110930.014000", "110930.017000", "110930.020000", "110930.023000", "110930.026000", "110930.029000", "110930.032000", "110930.035000", "110930.038000", "110930.041000", "110930.044000", "110930.047000", "110930.050000", "110930.053000", "110930.056000", "110930.059000", "110930.062000", "110949.980000", "110949.983000", "110949.995000", "110949.998000", "110950.002000", "110950.005000", "110950.008000", "110950.011000", "110950.014000", "110950.017000", "110950.020000", "110950.023000", "110950.025000", "110950.028000", "110950.031000", "110950.034000", "110950.037000", "110950.040000", "110950.043000", "110950.046000", "111009.980000", "111009.983000", "111009.991000", "111009.994000", "111009.997000", "111010.001000", "111010.004000", "111010.007000", "111010.010000", "111010.013000", "111010.016000", "111010.024000", "111010.027000", "111010.030000", "111010.033000", "111010.036000", "111010.039000", "111010.042000", "111010.045000", "111010.048000", "111049.995000", "111049.998000", "111050.002000", "111050.005000", "111050.008000", "111050.010000", "111050.013000", "111050.016000", "111050.019000", "111050.022000", "111050.025000", "111050.028000", "111050.031000", "111050.034000", "111050.037000", "111050.040000", "111050.043000", "111050.046000", "111050.048000", "111050.051000", "111050.054000", "111050.057000", "111050.060000", "111050.063000", "111050.066000", "111050.069000", "111050.072000", "111050.075000", "111050.078000", "111050.081000", "111050.083000", "111050.086000", "111129.980000", "111129.983000", "111129.986000", "111129.989000", "111130.000000", "111130.003000", "111130.006000", "111130.009000", "111130.012000", "111130.015000", "111130.018000", "111130.021000", "111130.024000", "111130.027000", "111130.030000", "111130.033000", "111130.036000", "111130.039000", "111130.042000", "111130.045000", "111130.048000", "111130.051000", "111130.053000", "111130.056000", "111130.059000", "111130.062000", "111130.065000", "111209.980000", "111209.983000", "111209.986000", "111209.989000", "111209.992000", "111209.995000", "111209.998000", "111210.002000", "111210.005000", "111210.008000", "111210.010000", "111210.013000", "111210.016000", "111210.019000", "111210.022000", "111210.025000", "111210.028000", "111210.031000", "111210.034000", "111210.037000", "111210.040000", "111210.043000", "111210.045000", "111210.048000", "111210.054000", "111210.057000", "111210.060000", "111248.633000", "111248.636000", "111248.639000", "111248.642000", "111248.645000", "111248.648000", "111248.651000", "111248.654000", "111248.657000", "111248.660000", "111248.663000", "111248.666000", "111248.669000", "111248.672000", "111248.675000", "111248.678000", "111248.681000", "111248.684000", "111248.687000", "111248.690000", "111248.693000", "111248.696000", "111248.699000", "111248.702000", "111248.705000", "111248.708000"],
      "InstanceCreationTime": ["110910.009000", "110910.013000", "110910.016000", "110910.019000", "110910.022000", "110910.025000", "110910.028000", "110910.030000", "110910.033000", "110910.036000", "110910.039000", "110910.042000", "110910.045000", "110910.048000", "110910.051000", "110910.054000", "110910.059000", "110910.062000", "110910.065000", "110910.068000", "110910.079000", "110910.082000", "110910.085000", "110910.087000", "110910.091000", "110910.094000", "110910.096000", "110910.099000", "110910.102000", "110910.105000", "110929.980000", "110929.983000", "110929.986000", "110930.014000", "110930.017000", "110930.020000", "110930.023000", "110930.026000", "110930.029000", "110930.032000", "110930.035000", "110930.038000", "110930.041000", "110930.044000", "110930.047000", "110930.050000", "110930.053000", "110930.056000", "110930.059000", "110930.062000", "110949.980000", "110949.983000", "110949.995000", "110949.998000", "110950.002000", "110950.005000", "110950.008000", "110950.011000", "110950.014000", "110950.017000", "110950.020000", "110950.023000", "110950.025000", "110950.028000", "110950.031000", "110950.034000", "110950.037000", "110950.040000", "110950.043000", "110950.046000", "111009.980000", "111009.983000", "111009.991000", "111009.994000", "111009.997000", "111010.001000", "111010.004000", "111010.007000", "111010.010000", "111010.013000", "111010.016000", "111010.024000", "111010.027000", "111010.030000", "111010.033000", "111010.036000", "111010.039000", "111010.042000", "111010.045000", "111010.048000", "111049.995000", "111049.998000", "111050.002000", "111050.005000", "111050.008000", "111050.010000", "111050.013000", "111050.016000", "111050.019000", "111050.022000", "111050.025000", "111050.028000", "111050.031000", "111050.034000", "111050.037000", "111050.040000", "111050.043000", "111050.046000", "111050.048000", "111050.051000", "111050.054000", "111050.057000", "111050.060000", "111050.063000", "111050.066000", "111050.069000", "111050.072000", "111050.075000", "111050.078000", "111050.081000", "111050.083000", "111050.086000", "111129.980000", "111129.983000", "111129.986000", "111129.989000", "111130.000000", "111130.003000", "111130.006000", "111130.009000", "111130.012000", "111130.015000", "111130.018000", "111130.021000", "111130.024000", "111130.027000", "111130.030000", "111130.033000", "111130.036000", "111130.039000", "111130.042000", "111130.045000", "111130.048000", "111130.051000", "111130.053000", "111130.056000", "111130.059000", "111130.062000", "111130.065000", "111209.980000", "111209.983000", "111209.986000", "111209.989000", "111209.992000", "111209.995000", "111209.998000", "111210.002000", "111210.005000", "111210.008000", "111210.010000", "111210.013000", "111210.016000", "111210.019000", "111210.022000", "111210.025000", "111210.028000", "111210.031000", "111210.034000", "111210.037000", "111210.040000", "111210.043000", "111210.045000", "111210.048000", "111210.054000", "111210.057000", "111210.060000", "111248.633000", "111248.636000", "111248.639000", "111248.642000", "111248.645000", "111248.648000", "111248.651000", "111248.654000", "111248.657000", "111248.660000", "111248.663000", "111248.666000", "111248.669000", "111248.672000", "111248.675000", "111248.678000", "111248.681000", "111248.684000", "111248.687000", "111248.690000", "111248.693000", "111248.696000", "111248.699000", "111248.702000", "111248.705000", "111248.708000"],
      "InstanceNumber": [1, 2, 3, 4, 5, 6, 7, 8, 9, 10, 11, 12, 13, 14, 15, 16, 17, 18, 19, 20, 21, 22, 23, 24, 25, 26, 27, 28, 29, 30, 31, 32, 33, 34, 35, 36, 37, 38, 39, 40, 41, 42, 43, 44, 45, 46, 47, 48, 49, 50, 51, 52, 53, 54, 55, 56, 57, 58, 59, 60, 61, 62, 63, 64, 65, 66, 67, 68, 69, 70, 71, 72, 73, 74, 75, 76, 77, 78, 79, 80, 81, 82, 83, 84, 85, 86, 87, 88, 89, 90, 91, 92, 93, 94, 95, 96, 97, 98, 99, 100, 101, 102, 103, 104, 105, 106, 107, 108, 109, 110, 111, 112, 113, 114, 115, 116, 117, 118, 119, 120, 121, 122, 123, 124, 125, 126, 127, 128, 129, 130, 131, 132, 133, 134, 135, 136, 137, 138, 139, 140, 141, 142, 143, 144, 145, 146, 147, 148, 149, 150, 151, 152, 153, 154, 155, 156, 157, 158, 159, 160, 161, 162, 163, 164, 165, 166, 167, 168, 169, 170, 171, 172, 173, 174, 175, 176, 177, 178, 179, 180, 181, 182, 183, 184, 185, 186, 187, 188, 189, 190, 191, 192, 193, 194, 195, 196, 197, 198, 199, 200, 201, 202],
      "LargestImagePixelValue": [45303, 44013, 43191, 42881, 42416, 42150, 42198, 42426, 42152, 42189, 42428, 41766, 41927, 42245, 41729, 41871, 41537, 41949, 41724, 41634, 41838, 41430, 42391, 42184, 41953, 42053, 41872, 41636, 42331, 41461, 41674, 41463, 41769, 41820, 41884, 41371, 41879, 40020, 40744, 40944, 40817, 40483, 40560, 40463, 40778, 40279, 40829, 40922, 40968, 41100, 41249, 41088, 41050, 41016, 41011, 40418, 40597, 42013, 40830, 41388, 40929, 41551, 41555, 41640, 41696, 42022, 41462, 41507, 41493, 40863, 41088, 41418, 41004, 41399, 41340, 40987, 41156, 40844, 40189, 39493, 40621, 40517, 40055, 40092, 39691, 39819, 40306, 39496, 39268, 39891, 39385, 39433, 39991, 39448, 39255, 39627, 39591, 39023, 39221, 39466, 39533, 39212, 38814, 39569, 38621, 38803, 39489, 39465, 38723, 39000, 39141, 38998, 38587, 38741, 39122, 39167, 38658, 38629, 39432, 38727, 38774, 39498, 39082, 38666, 38755, 38461, 38757, 38976, 38638, 39045, 38683, 39331, 38297, 38778, 38561, 38928, 38615, 38243, 38771, 40850, 38836, 38321, 38835, 38721, 39487, 39370, 38783, 38915, 38911, 38762, 38834, 39278, 38472, 38559, 38508, 38205, 38668, 38201, 38659, 38255, 39265, 38223, 38906, 38843, 38652, 38793, 38776, 38549, 38590, 38435, 39284, 39530, 39125, 38906, 38850, 39219, 38910, 39307, 39751, 39010, 38997, 39068, 39580, 39226, 39494, 39651, 39382, 39255, 39541, 39892, 39174, 39541, 39535, 39646, 39542, 39687, 39891, 38890, 39440, 42081, 39015, 38980],
      "WindowCenter": [10140.0, 10102.0, 10097.0, 10083.0, 10063.0, 10043.0, 10042.0, 10075.0, 10096.0, 10082.0, 10069.0, 10052.0, 10071.0, 10081.0, 10066.0, 10055.0, 10052.0, 10070.0, 10073.0, 10065.0, 10053.0, 10037.0, 10070.0, 10081.0, 10073.0, 10059.0, 10045.0, 10071.0, 10088.0, 10073.0, 10072.0, 10071.0, 10071.0, 10061.0, 10069.0, 10092.0, 10102.0, 10076.0, 10080.0, 10079.0, 10068.0, 10058.0, 10076.0, 10074.0, 10072.0, 10062.0, 10077.0, 10064.0, 10044.0, 10032.0, 10048.0, 10052.0, 10052.0, 10034.0, 10031.0, 10044.0, 10063.0, 10080.0, 10062.0, 10070.0, 10064.0, 10057.0, 10046.0, 10056.0, 10095.0, 10095.0, 10072.0, 10063.0, 10058.0, 10063.0, 10073.0, 10092.0, 10081.0, 10080.0, 10070.0, 10062.0, 10078.0, 10090.0, 10095.0, 10091.0, 10093.0, 10084.0, 10087.0, 10088.0, 10090.0, 10100.0, 10113.0, 10085.0, 10085.0, 10082.0, 10065.0, 10086.0, 10089.0, 10076.0, 10068.0, 10074.0, 10066.0, 10051.0, 10066.0, 10059.0, 10048.0, 10038.0, 10035.0, 10046.0, 10029.0, 10036.0, 10053.0, 10053.0, 10049.0, 10048.0, 10037.0, 10029.0, 10035.0, 10049.0, 10056.0, 10045.0, 10038.0, 10065.0, 10063.0, 10038.0, 10022.0, 10024.0, 10024.0, 10034.0, 10037.0, 10049.0, 10051.0, 10030.0, 10019.0, 10035.0, 10047.0, 10044.0, 10022.0, 10038.0, 10039.0, 10040.0, 10031.0, 10024.0, 10033.0, 10073.0, 10041.0, 10033.0, 10042.0, 10052.0, 10044.0, 10021.0, 10019.0, 10057.0, 10071.0, 10054.0, 10034.0, 10038.0, 10022.0, 10023.0, 10040.0, 10050.0, 10052.0, 10053.0, 10054.0, 10039.0, 10061.0, 10065.0, 10084.0, 10077.0, 10078.0, 10104.0, 10097.0, 10080.0, 10078.0, 10080.0, 10084.0, 10100.0, 10088.0, 10088.0, 10075.0, 10058.0, 10040.0, 10056.0, 10080.0, 10068.0, 10085.0, 10096.0, 10084.0, 10059.0, 10064.0, 10062.0, 10057.0, 10075.0, 10075.0, 10047.0, 10020.0, 10033.0, 10034.0, 10027.0, 10033.0, 10045.0, 10046.0, 10034.0, 10050.0, 10077.0, 10033.0, 10032.0],
      "WindowWidth": [21406.0, 21309.0, 21296.0, 21260.0, 21210.0, 21161.0, 21160.0, 21236.0, 21283.0, 21251.0, 21214.0, 21181.0, 21230.0, 21249.0, 21220.0, 21187.0, 21182.0, 21225.0, 21232.0, 21211.0, 21188.0, 21152.0, 21234.0, 21253.0, 21233.0, 21208.0, 21166.0, 21229.0, 21264.0, 21234.0, 21227.0, 21224.0, 21224.0, 21203.0, 21223.0, 21279.0, 21301.0, 21249.0, 21255.0, 21252.0, 21226.0, 21203.0, 21244.0, 21244.0, 21239.0, 21216.0, 21248.0, 21224.0, 21172.0, 21143.0, 21181.0, 21191.0, 21190.0, 21147.0, 21140.0, 21173.0, 21214.0, 21244.0, 21209.0, 21233.0, 21221.0, 21197.0, 21171.0, 21196.0, 21295.0, 21289.0, 21236.0, 21217.0, 21200.0, 21226.0, 21242.0, 21290.0, 21257.0, 21253.0, 21229.0, 21213.0, 21249.0, 21280.0, 21292.0, 21290.0, 21286.0, 21266.0, 21278.0, 21284.0, 21288.0, 21311.0, 21339.0, 21279.0, 21279.0, 21270.0, 21230.0, 21290.0, 21280.0, 21254.0, 21236.0, 21251.0, 21232.0, 21201.0, 21235.0, 21221.0, 21190.0, 21168.0, 21166.0, 21184.0, 21146.0, 21160.0, 21198.0, 21194.0, 21201.0, 21190.0, 21165.0, 21148.0, 21160.0, 21193.0, 21207.0, 21179.0, 21170.0, 21233.0, 21220.0, 21165.0, 21128.0, 21131.0, 21132.0, 21160.0, 21166.0, 21194.0, 21204.0, 21151.0, 21124.0, 21162.0, 21193.0, 21176.0, 21131.0, 21169.0, 21170.0, 21170.0, 21154.0, 21139.0, 21160.0, 21248.0, 21176.0, 21159.0, 21181.0, 21207.0, 21190.0, 21133.0, 21127.0, 21220.0, 21252.0, 21209.0, 21161.0, 21177.0, 21134.0, 21142.0, 21181.0, 21197.0, 21203.0, 21208.0, 21204.0, 21171.0, 21221.0, 21243.0, 21276.0, 21259.0, 21262.0, 21328.0, 21307.0, 21269.0, 21262.0, 21268.0, 21270.0, 21303.0, 21280.0, 21279.0, 21255.0, 21206.0, 21177.0, 21207.0, 21258.0, 21236.0, 21274.0, 21298.0, 21266.0, 21213.0, 21221.0, 21216.0, 21209.0, 21253.0, 21252.0, 21179.0, 21121.0, 21153.0, 21155.0, 21139.0, 21150.0, 21179.0, 21187.0, 21168.0, 21203.0, 21248.0, 21164.0, 21161.0]
    },
    "slices": {}
  }
}