{
  "AcquisitionMatrixPE": 104,
  "AcquisitionNumber": 1,
  "AcquisitionTime": "11:03:22.065000",
  "BandwidthPerPixelPhaseEncode": 17.17,
  "BaseResolution": 104,
  "BodyPartExamined": "BRAIN",
  "CoilString": "HC1-7;NC1_2",
  "ConsistencyInfo": "N4_VE11C_LATEST_20160120",
  "ConversionSoftware": "dcm2niix",
  "ConversionSoftwareVersion": "v1.0.20190720  (JP2:OpenJPEG) GCC7.3.0",
  "DerivedVendorReportedEchoSpacing": 0.000560011,
  "DeviceSerialNumber": "167006",
  "DwellTime": 2.1e-06,
  "EchoTime": 0.037,
  "EchoTrainLength": 104,
  "EffectiveEchoSpacing": 0.000560011,
  "FlipAngle": 52,
  "ImageComments": "Unaliased_MB4_PE3_LB",
  "ImageOrientationPatientDICOM": [0.999716, -0.0102761, 0.0214933, 0.0172755, 0.93394, -0.357011],
  "ImageType": [
    "ORIGINAL",
    "PRIMARY",
    "M",
    "MB",
    "ND",
    "MOSAIC"
],
  "ImagingFrequency": 123.259,
  "InPlanePhaseEncodingDirectionDICOM": "COL",
  "InstitutionAddress": "Chemin_Queen-Mary_4565_Montreal_District_CA_H3W_1W5",
  "InstitutionName": "IUGM",
  "InstitutionalDepartmentName": "Department",
  "MRAcquisitionType": "2D",
  "MagneticFieldStrength": 3,
  "Manufacturer": "Siemens",
  "ManufacturersModelName": "Prisma_fit",
  "Modality": "MR",
  "MultibandAccelerationFactor": 4,
  "PartialFourier": 1,
  "PatientPosition": "HFS",
  "PercentPhaseFOV": 100,
  "PhaseEncodingDirection": "j",
  "PhaseEncodingSteps": 104,
  "PhaseResolution": 1,
  "PixelBandwidth": 2290,
  "ProcedureStepDescription": "hcptrt_generic",
  "ProtocolName": "func_task-motor_run-2",
  "PulseSequenceDetails": "%CustomerSeq%_cmrr_mbep2d_bold",
  "ReceiveCoilActiveElements": "HC1-7;NC1,2",
  "ReceiveCoilName": "HeadNeck_64",
  "ReconMatrixPE": 104,
  "RepetitionTime": 1.49,
  "SAR": 0.0379048,
  "ScanOptions": "FS",
  "ScanningSequence": "EP",
  "SequenceName": "epfid2d1_104",
  "SequenceVariant": "SK_SS",
  "SeriesDescription": "func_task-motor_run-2",
  "SeriesNumber": 32,
  "ShimSetting": [636, -7189, -8818, 668, 93, -3, -61, -25],
  "SliceThickness": 2,
  "SliceTiming": [0, 0.7825, 0.0975, 0.88, 0.195, 0.98, 0.2925, 1.0775, 0.39, 1.175, 0.49, 1.2725, 0.5875, 1.37, 0.685, 0, 0.7825, 0.0975, 0.88, 0.195, 0.98, 0.2925, 1.0775, 0.39, 1.175, 0.49, 1.2725, 0.5875, 1.37, 0.685, 0, 0.7825, 0.0975, 0.88, 0.195, 0.98, 0.2925, 1.0775, 0.39, 1.175, 0.49, 1.2725, 0.5875, 1.37, 0.685, 0, 0.7825, 0.0975, 0.88, 0.195, 0.98, 0.2925, 1.0775, 0.39, 1.175, 0.49, 1.2725, 0.5875, 1.37, 0.685],
  "SoftwareVersions": "syngo_MR_E11",
  "SpacingBetweenSlices": 2,
  "StationName": "MRC35049",
  "TaskName": "motor",
  "TotalReadoutTime": 0.0576811,
  "TxRefAmp": 250.119,
  "WipMemBlock": "113bde8f-a5ea-4d79-acca-0e2ad3e6f448||Sequence: R016 ve11c/master r/e634e98; Dec 19 2017 11:00:25 by eja",
  "dcmmeta_affine": [
    [-1.9994323253631592, 0.03455103561282158, 0.03280960023403168, 105.41395568847656],
    [0.020552193745970726, 1.8678808212280273, -0.7145620584487915, -59.63142395019531],
    [0.042986638844013214, 0.7140220999717712, 1.8677057027816772, -61.53466033935547],
    [0.0, 0.0, 0.0, 1.0]
],
  "dcmmeta_reorient_transform": [
    [0.0, -1.0, 0.0, 103.0],
    [1.0, 0.0, 0.0, 0.0],
    [0.0, 0.0, 1.0, 0.0],
    [0.0, 0.0, 0.0, 1.0]
],
  "dcmmeta_shape": [104, 104, 60, 144],
  "dcmmeta_slice_dim": 2,
  "dcmmeta_version": 0.6,
  "global": {
    "const": {
      "AcquisitionMatrix": [104, 0, 0, 104],
      "AngioFlag": "N",
      "BitsAllocated": 16,
      "BitsStored": 16,
      "BodyPartExamined": "BRAIN",
      "Columns": 832,
      "EchoNumbers": 1,
      "EchoTime": 37.0,
      "EchoTrainLength": 104,
      "FlipAngle": 52.0,
      "HighBit": 15,
      "ImageOrientationPatient": [0.99971617924965, -0.0102760964261, 0.02149331963035, 0.01727551739324, 0.9339403967406, -0.3570110528188],
      "ImagePositionPatient": [-849.3426704109, -805.18790898228, 256.26652816748],
      "ImageType": [
        "ORIGINAL",
        "PRIMARY",
        "M",
        "MB",
        "ND",
        "MOSAIC"
],
      "ImagedNucleus": "1H",
      "ImagingFrequency": 123.259477,
      "InPlanePhaseEncodingDirection": "COL",
      "MRAcquisitionType": "2D",
      "MagneticFieldStrength": 3.0,
      "Manufacturer": "SIEMENS",
      "ManufacturerModelName": "Prisma_fit",
      "Modality": "MR",
      "NumberOfAverages": 1.0,
      "NumberOfPhaseEncodingSteps": 104,
      "PercentPhaseFieldOfView": 100.0,
      "PercentSampling": 100.0,
      "PerformedProcedureStepStartTime": "100328.993000",
      "PhotometricInterpretation": "MONOCHROME2",
      "PixelBandwidth": 2290.0,
      "PixelRepresentation": 0,
      "PixelSpacing": [2.0, 2.0],
      "ProtocolName": "func_task-motor_run-2",
      "RepetitionTime": 1490.0,
      "Rows": 832,
      "SAR": 0.03790479029254,
      "SamplesPerPixel": 1,
      "ScanOptions": "FS",
      "ScanningSequence": "EP",
      "SequenceName": "epfid2d1_104",
      "SequenceVariant": [
        "SK",
        "SS"
],
      "SeriesDescription": "func_task-motor_run-2",
      "SeriesNumber": 32,
      "SeriesTime": "110441.453000",
      "SliceLocation": -34.429844739498,
      "SliceThickness": 2.0,
      "SmallestImagePixelValue": 0,
      "SoftwareVersions": "syngo MR E11",
      "SpacingBetweenSlices": 1.9999999796299,
      "SpecificCharacterSet": "ISO_IR 100",
      "StudyID": "1",
      "StudyTime": "100328.868000",
      "TransmitCoilName": "Body",
      "VariableFlipAngleFlag": "N",
      "WindowCenterWidthExplanation": "Algo1",
      "dBdt": 0.0},
    "slices": {}
  },
  "time": {
    "samples": {
      "AcquisitionNumber": [1, 2, 3, 4, 5, 6, 7, 8, 9, 10, 11, 12, 13, 14, 15, 16, 17, 18, 19, 20, 21, 22, 23, 24, 25, 26, 27, 28, 29, 30, 31, 32, 33, 34, 35, 36, 37, 38, 39, 40, 41, 42, 43, 44, 45, 46, 47, 48, 49, 50, 51, 52, 53, 54, 55, 56, 57, 58, 59, 60, 61, 62, 63, 64, 65, 66, 67, 68, 69, 70, 71, 72, 73, 74, 75, 76, 77, 78, 79, 80, 81, 82, 83, 84, 85, 86, 87, 88, 89, 90, 91, 92, 93, 94, 95, 96, 97, 98, 99, 100, 101, 102, 103, 104, 105, 106, 107, 108, 109, 110, 111, 112, 113, 114, 115, 116, 117, 118, 119, 120, 121, 122, 123, 124, 125, 126, 127, 128, 129, 130, 131, 132, 133, 134, 135, 136, 137, 138, 139, 140, 141, 142, 143, 144],
      "AcquisitionTime": ["110322.065000", "110323.555000", "110325.045000", "110326.535000", "110328.025000", "110329.515000", "110331.005000", "110332.495000", "110333.985000", "110335.475000", "110336.965000", "110338.455000", "110339.945000", "110341.435000", "110342.925000", "110344.415000", "110345.905000", "110347.395000", "110348.885000", "110350.375000", "110351.865000", "110353.355000", "110354.845000", "110356.335000", "110357.825000", "110359.315000", "110400.805000", "110402.295000", "110403.785000", "110405.275000", "110406.765000", "110408.255000", "110409.745000", "110411.235000", "110412.725000", "110414.215000", "110415.705000", "110417.195000", "110418.685000", "110420.175000", "110421.665000", "110423.155000", "110424.645000", "110426.135000", "110427.625000", "110429.115000", "110430.605000", "110432.095000", "110433.585000", "110435.075000", "110436.565000", "110438.055000", "110439.545000", "110441.035000", "110442.525000", "110444.015000", "110445.505000", "110446.995000", "110448.485000", "110449.975000", "110451.465000", "110452.955000", "110454.445000", "110455.935000", "110457.425000", "110458.915000", "110500.405000", "110501.895000", "110503.385000", "110504.875000", "110506.365000", "110507.855000", "110509.345000", "110510.835000", "110512.325000", "110513.815000", "110515.305000", "110516.795000", "110518.285000", "110519.775000", "110521.265000", "110522.755000", "110524.245000", "110525.735000", "110527.225000", "110528.715000", "110530.205000", "110531.695000", "110533.185000", "110534.675000", "110536.165000", "110537.655000", "110539.145000", "110540.635000", "110542.125000", "110543.615000", "110545.105000", "110546.595000", "110548.085000", "110549.575000", "110551.065000", "110552.555000", "110554.045000", "110555.535000", "110557.025000", "110558.515000", "110600.005000", "110601.495000", "110602.985000", "110604.475000", "110605.965000", "110607.455000", "110608.945000", "110610.435000", "110611.925000", "110613.415000", "110614.905000", "110616.395000", "110617.885000", "110619.375000", "110620.865000", "110622.355000", "110623.845000", "110625.335000", "110626.825000", "110628.315000", "110629.805000", "110631.295000", "110632.785000", "110634.275000", "110635.765000", "110637.255000", "110638.745000", "110640.235000", "110641.725000", "110643.215000", "110644.705000", "110646.195000", "110647.685000", "110649.175000", "110650.665000", "110652.155000", "110653.645000", "110655.135000"],
      "ContentTime": ["110441.456000", "110441.459000", "110441.474000", "110441.476000", "110441.479000", "110441.482000", "110441.485000", "110441.488000", "110441.491000", "110441.494000", "110441.497000", "110441.506000", "110441.509000", "110441.512000", "110441.515000", "110441.518000", "110441.520000", "110441.524000", "110441.526000", "110441.529000", "110441.532000", "110441.535000", "110441.538000", "110441.542000", "110441.545000", "110501.418000", "110501.421000", "110501.424000", "110501.427000", "110501.430000", "110501.432000", "110501.435000", "110501.438000", "110501.441000", "110501.444000", "110501.447000", "110501.450000", "110501.453000", "110501.456000", "110501.459000", "110501.461000", "110501.464000", "110501.467000", "110501.475000", "110501.478000", "110501.481000", "110521.418000", "110521.421000", "110521.424000", "110521.427000", "110521.430000", "110521.446000", "110521.449000", "110521.452000", "110521.455000", "110521.458000", "110521.461000", "110521.464000", "110521.481000", "110521.484000", "110521.487000", "110521.490000", "110521.493000", "110521.496000", "110521.499000", "110521.502000", "110541.417000", "110541.420000", "110541.423000", "110541.426000", "110541.429000", "110541.431000", "110541.434000", "110541.437000", "110541.440000", "110541.443000", "110541.446000", "110541.449000", "110541.452000", "110541.455000", "110541.458000", "110541.461000", "110541.470000", "110541.473000", "110541.476000", "110541.479000", "110601.417000", "110601.420000", "110601.423000", "110601.426000", "110601.429000", "110601.432000", "110601.434000", "110601.437000", "110601.440000", "110601.443000", "110601.446000", "110601.449000", "110601.452000", "110601.455000", "110601.458000", "110601.461000", "110601.464000", "110601.467000", "110601.470000", "110601.472000", "110641.417000", "110641.420000", "110641.423000", "110641.426000", "110641.429000", "110641.432000", "110641.435000", "110641.438000", "110641.441000", "110641.444000", "110641.447000", "110641.450000", "110641.453000", "110641.456000", "110641.458000", "110641.461000", "110641.464000", "110641.467000", "110641.480000", "110641.483000", "110641.485000", "110641.488000", "110641.491000", "110641.494000", "110641.497000", "110641.500000", "110641.503000", "110656.945000", "110656.949000", "110656.952000", "110656.954000", "110656.957000", "110656.960000", "110656.963000", "110656.966000", "110656.969000", "110656.972000", "110656.975000"],
      "InstanceCreationTime": ["110441.456000", "110441.459000", "110441.474000", "110441.476000", "110441.479000", "110441.482000", "110441.485000", "110441.488000", "110441.491000", "110441.494000", "110441.497000", "110441.506000", "110441.509000", "110441.512000", "110441.515000", "110441.518000", "110441.520000", "110441.524000", "110441.526000", "110441.529000", "110441.532000", "110441.535000", "110441.538000", "110441.542000", "110441.545000", "110501.418000", "110501.421000", "110501.424000", "110501.427000", "110501.430000", "110501.432000", "110501.435000", "110501.438000", "110501.441000", "110501.444000", "110501.447000", "110501.450000", "110501.453000", "110501.456000", "110501.459000", "110501.461000", "110501.464000", "110501.467000", "110501.475000", "110501.478000", "110501.481000", "110521.418000", "110521.421000", "110521.424000", "110521.427000", "110521.430000", "110521.446000", "110521.449000", "110521.452000", "110521.455000", "110521.458000", "110521.461000", "110521.464000", "110521.481000", "110521.484000", "110521.487000", "110521.490000", "110521.493000", "110521.496000", "110521.499000", "110521.502000", "110541.417000", "110541.420000", "110541.423000", "110541.426000", "110541.429000", "110541.431000", "110541.434000", "110541.437000", "110541.440000", "110541.443000", "110541.446000", "110541.449000", "110541.452000", "110541.455000", "110541.458000", "110541.461000", "110541.470000", "110541.473000", "110541.476000", "110541.479000", "110601.417000", "110601.420000", "110601.423000", "110601.426000", "110601.429000", "110601.432000", "110601.434000", "110601.437000", "110601.440000", "110601.443000", "110601.446000", "110601.449000", "110601.452000", "110601.455000", "110601.458000", "110601.461000", "110601.464000", "110601.467000", "110601.470000", "110601.472000", "110641.417000", "110641.420000", "110641.423000", "110641.426000", "110641.429000", "110641.432000", "110641.435000", "110641.438000", "110641.441000", "110641.444000", "110641.447000", "110641.450000", "110641.453000", "110641.456000", "110641.458000", "110641.461000", "110641.464000", "110641.467000", "110641.480000", "110641.483000", "110641.485000", "110641.488000", "110641.491000", "110641.494000", "110641.497000", "110641.500000", "110641.503000", "110656.945000", "110656.949000", "110656.952000", "110656.954000", "110656.957000", "110656.960000", "110656.963000", "110656.966000", "110656.969000", "110656.972000", "110656.975000"],
      "InstanceNumber": [1, 2, 3, 4, 5, 6, 7, 8, 9, 10, 11, 12, 13, 14, 15, 16, 17, 18, 19, 20, 21, 22, 23, 24, 25, 26, 27, 28, 29, 30, 31, 32, 33, 34, 35, 36, 37, 38, 39, 40, 41, 42, 43, 44, 45, 46, 47, 48, 49, 50, 51, 52, 53, 54, 55, 56, 57, 58, 59, 60, 61, 62, 63, 64, 65, 66, 67, 68, 69, 70, 71, 72, 73, 74, 75, 76, 77, 78, 79, 80, 81, 82, 83, 84, 85, 86, 87, 88, 89, 90, 91, 92, 93, 94, 95, 96, 97, 98, 99, 100, 101, 102, 103, 104, 105, 106, 107, 108, 109, 110, 111, 112, 113, 114, 115, 116, 117, 118, 119, 120, 121, 122, 123, 124, 125, 126, 127, 128, 129, 130, 131, 132, 133, 134, 135, 136, 137, 138, 139, 140, 141, 142, 143, 144],
      "LargestImagePixelValue": [42369, 42600, 40761, 40308, 40104, 40560, 40295, 40063, 39900, 39841, 39832, 39939, 39669, 39454, 39768, 40337, 40367, 40005, 39911, 40446, 39501, 39640, 40813, 40973, 41089, 40322, 39698, 40893, 40578, 40245, 39885, 40774, 41146, 41173, 39843, 41147, 40975, 40697, 41995, 42035, 41835, 39932, 41497, 41351, 41578, 40560, 42011, 42112, 40983, 41742, 41815, 41213, 41403, 42199, 41667, 42258, 41909, 42719, 40873, 42171, 41379, 40808, 40515, 42286, 42364, 42467, 42427, 41920, 42183, 42579, 42861, 43024, 42845, 42663, 43063, 43083, 43105, 46192, 42994, 43703, 43617, 43109, 42470, 42456, 42875, 43373, 43255, 42107, 42262, 43251, 43300, 43535, 43239, 43291, 42937, 42567, 42752, 43123, 42811, 42881, 42586, 42551, 42649, 43249, 42705, 43314, 43198, 42684, 42587, 42741, 42821, 43426, 42769, 43092, 43060, 42861, 42970, 42561, 42999, 42583, 42685, 42166, 42565, 42614, 42098, 42696, 42501, 42604, 42649, 42574, 42669, 43040, 42359, 43103, 42414, 42038, 42312, 42076, 42634, 42647, 42109, 42066, 41892, 41469],
      "WindowCenter": [10206.0, 10176.0, 10132.0, 10118.0, 10117.0, 10151.0, 10145.0, 10120.0, 10101.0, 10098.0, 10119.0, 10137.0, 10133.0, 10115.0, 10123.0, 10168.0, 10163.0, 10131.0, 10104.0, 10108.0, 10114.0, 10112.0, 10123.0, 10143.0, 10160.0, 10132.0, 10110.0, 10109.0, 10126.0, 10137.0, 10122.0, 10109.0, 10136.0, 10151.0, 10122.0, 10122.0, 10135.0, 10118.0, 10119.0, 10132.0, 10158.0, 10138.0, 10141.0, 10133.0, 10122.0, 10098.0, 10096.0, 10129.0, 10131.0, 10130.0, 10125.0, 10121.0, 10112.0, 10130.0, 10131.0, 10140.0, 10142.0, 10155.0, 10135.0, 10130.0, 10127.0, 10139.0, 10133.0, 10135.0, 10151.0, 10153.0, 10142.0, 10119.0, 10117.0, 10141.0, 10179.0, 10189.0, 10174.0, 10156.0, 10159.0, 10153.0, 10150.0, 10164.0, 10140.0, 10162.0, 10192.0, 10188.0, 10175.0, 10149.0, 10142.0, 10148.0, 10132.0, 10106.0, 10095.0, 10135.0, 10179.0, 10184.0, 10147.0, 10131.0, 10120.0, 10115.0, 10122.0, 10135.0, 10131.0, 10136.0, 10122.0, 10119.0, 10120.0, 10144.0, 10137.0, 10146.0, 10151.0, 10150.0, 10165.0, 10183.0, 10191.0, 10199.0, 10187.0, 10169.0, 10159.0, 10169.0, 10186.0, 10179.0, 10186.0, 10187.0, 10172.0, 10144.0, 10143.0, 10161.0, 10151.0, 10150.0, 10158.0, 10159.0, 10156.0, 10151.0, 10149.0, 10154.0, 10157.0, 10169.0, 10167.0, 10161.0, 10160.0, 10145.0, 10150.0, 10171.0, 10182.0, 10167.0, 10147.0, 10141.0],
      "WindowWidth": [21581.0, 21492.0, 21391.0, 21354.0, 21351.0, 21424.0, 21410.0, 21353.0, 21307.0, 21298.0, 21355.0, 21395.0, 21390.0, 21344.0, 21366.0, 21476.0, 21466.0, 21381.0, 21317.0, 21323.0, 21349.0, 21339.0, 21358.0, 21407.0, 21447.0, 21383.0, 21331.0, 21339.0, 21369.0, 21396.0, 21359.0, 21327.0, 21385.0, 21431.0, 21362.0, 21354.0, 21388.0, 21351.0, 21345.0, 21371.0, 21447.0, 21397.0, 21395.0, 21379.0, 21353.0, 21300.0, 21289.0, 21366.0, 21379.0, 21373.0, 21359.0, 21355.0, 21335.0, 21369.0, 21382.0, 21391.0, 21396.0, 21421.0, 21389.0, 21362.0, 21363.0, 21393.0, 21382.0, 21378.0, 21417.0, 21423.0, 21394.0, 21344.0, 21339.0, 21390.0, 21483.0, 21501.0, 21468.0, 21425.0, 21430.0, 21424.0, 21413.0, 21448.0, 21389.0, 21436.0, 21507.0, 21504.0, 21474.0, 21413.0, 21392.0, 21406.0, 21369.0, 21312.0, 21285.0, 21376.0, 21493.0, 21492.0, 21397.0, 21369.0, 21341.0, 21332.0, 21351.0, 21373.0, 21367.0, 21374.0, 21346.0, 21336.0, 21343.0, 21399.0, 21382.0, 21410.0, 21414.0, 21421.0, 21448.0, 21488.0, 21502.0, 21521.0, 21496.0, 21459.0, 21442.0, 21463.0, 21502.0, 21479.0, 21492.0, 21494.0, 21466.0, 21395.0, 21403.0, 21442.0, 21417.0, 21413.0, 21433.0, 21433.0, 21424.0, 21419.0, 21412.0, 21416.0, 21425.0, 21449.0, 21452.0, 21438.0, 21439.0, 21407.0, 21423.0, 21477.0, 21497.0, 21466.0, 21416.0, 21409.0]
    },
    "slices": {}
  }
}