{
  "AcquisitionMatrixPE": 104,
  "AcquisitionNumber": 1,
  "AcquisitionTime": "13:41:3.442500",
  "BandwidthPerPixelPhaseEncode": 17.17,
  "BaseResolution": 104,
  "BodyPartExamined": "BRAIN",
  "CoilString": "HC1-7;NC1_2",
  "ConsistencyInfo": "N4_VE11C_LATEST_20160120",
  "ConversionSoftware": "dcm2niix",
  "ConversionSoftwareVersion": "v1.0.20190720  (JP2:OpenJPEG) GCC7.3.0",
  "DerivedVendorReportedEchoSpacing": 0.000560011,
  "DeviceSerialNumber": "167006",
  "DwellTime": 2.1e-06,
  "EchoTime": 0.037,
  "EchoTrainLength": 104,
  "EffectiveEchoSpacing": 0.000560011,
  "FlipAngle": 52,
  "ImageComments": "Unaliased_MB4_PE3_LB",
  "ImageOrientationPatientDICOM": [0.999984, -0.00509563, 0.00230023, 0.00558505, 0.92908, -0.369838],
  "ImageType": [
    "ORIGINAL",
    "PRIMARY",
    "M",
    "MB",
    "ND",
    "MOSAIC"
],
  "ImagingFrequency": 123.259,
  "InPlanePhaseEncodingDirectionDICOM": "COL",
  "InstitutionAddress": "Chemin_Queen-Mary_4565_Montreal_District_CA_H3W_1W5",
  "InstitutionName": "IUGM",
  "InstitutionalDepartmentName": "Department",
  "MRAcquisitionType": "2D",
  "MagneticFieldStrength": 3,
  "Manufacturer": "Siemens",
  "ManufacturersModelName": "Prisma_fit",
  "Modality": "MR",
  "MultibandAccelerationFactor": 4,
  "PartialFourier": 1,
  "PatientPosition": "HFS",
  "PercentPhaseFOV": 100,
  "PhaseEncodingDirection": "j",
  "PhaseEncodingSteps": 104,
  "PhaseResolution": 1,
  "PixelBandwidth": 2290,
  "ProcedureStepDescription": "hcptrt_generic",
  "ProtocolName": "func_task-gambling_run-1",
  "PulseSequenceDetails": "%CustomerSeq%_cmrr_mbep2d_bold",
  "ReceiveCoilActiveElements": "HC1-7;NC1,2",
  "ReceiveCoilName": "HeadNeck_64",
  "ReconMatrixPE": 104,
  "RepetitionTime": 1.49,
  "SAR": 0.0282688,
  "ScanOptions": "FS",
  "ScanningSequence": "EP",
  "SequenceName": "epfid2d1_104",
  "SequenceVariant": "SK_SS",
  "SeriesDescription": "func_task-gambling_run-1",
  "SeriesNumber": 13,
  "ShimSetting": [626, -7155, -8822, 669, 42, 183, 16, -17],
  "SliceThickness": 2,
  "SliceTiming": [0, 0.7825, 0.0975, 0.8825, 0.195, 0.98, 0.2925, 1.0775, 0.3925, 1.175, 0.49, 1.2725, 0.5875, 1.3725, 0.685, 0, 0.7825, 0.0975, 0.8825, 0.195, 0.98, 0.2925, 1.0775, 0.3925, 1.175, 0.49, 1.2725, 0.5875, 1.3725, 0.685, 0, 0.7825, 0.0975, 0.8825, 0.195, 0.98, 0.2925, 1.0775, 0.3925, 1.175, 0.49, 1.2725, 0.5875, 1.3725, 0.685, 0, 0.7825, 0.0975, 0.8825, 0.195, 0.98, 0.2925, 1.0775, 0.3925, 1.175, 0.49, 1.2725, 0.5875, 1.3725, 0.685],
  "SoftwareVersions": "syngo_MR_E11",
  "SpacingBetweenSlices": 2,
  "StationName": "MRC35049",
  "TaskName": "gambling",
  "TotalReadoutTime": 0.0576811,
  "TxRefAmp": 208.787,
  "WipMemBlock": "62ba0e32-1917-406d-be3a-b7fb41ca6809||Sequence: R016 ve11c/master r/e634e98; Dec 19 2017 11:00:25 by eja",
  "dcmmeta_affine": [
    [-1.9999687671661377, 0.011170090176165104, 0.0005050902254879475, 108.5717544555664],
    [0.010191258043050766, 1.8581593036651611, -0.7396891713142395, -66.57524108886719],
    [0.0046004666946828365, 0.7396750450134277, 1.858187198638916, -70.93624114990234],
    [0.0, 0.0, 0.0, 1.0]
],
  "dcmmeta_reorient_transform": [
    [0.0, -1.0, 0.0, 103.0],
    [1.0, 0.0, 0.0, 0.0],
    [0.0, 0.0, 1.0, 0.0],
    [0.0, 0.0, 0.0, 1.0]
],
  "dcmmeta_shape": [104, 104, 60, 129],
  "dcmmeta_slice_dim": 2,
  "dcmmeta_version": 0.6,
  "global": {
    "const": {
      "AcquisitionMatrix": [104, 0, 0, 104],
      "AngioFlag": "N",
      "BitsAllocated": 16,
      "BitsStored": 16,
      "BodyPartExamined": "BRAIN",
      "Columns": 832,
      "EchoNumbers": 1,
      "EchoTime": 37.0,
      "EchoTrainLength": 104,
      "FlipAngle": 52.0,
      "HighBit": 15,
      "ImageOrientationPatient": [0.99998437162351, -0.0050956290302, 0.00230023336049, 0.00558504518174, 0.92907965449753, -0.3698375357763],
      "ImagePositionPatient": [-841.77680545259, -797.47553629151, 272.8174485738],
      "ImageType": [
        "ORIGINAL",
        "PRIMARY",
        "M",
        "MB",
        "ND",
        "MOSAIC"
],
      "ImagedNucleus": "1H",
      "ImagingFrequency": 123.259281,
      "InPlanePhaseEncodingDirection": "COL",
      "MRAcquisitionType": "2D",
      "MagneticFieldStrength": 3.0,
      "Manufacturer": "SIEMENS",
      "ManufacturerModelName": "Prisma_fit",
      "Modality": "MR",
      "NumberOfAverages": 1.0,
      "NumberOfPhaseEncodingSteps": 104,
      "PercentPhaseFieldOfView": 100.0,
      "PercentSampling": 100.0,
      "PerformedProcedureStepStartTime": "130627.797000",
      "PhotometricInterpretation": "MONOCHROME2",
      "PixelBandwidth": 2290.0,
      "PixelRepresentation": 0,
      "PixelSpacing": [2.0, 2.0],
      "ProtocolName": "func_task-gambling_run-1",
      "RepetitionTime": 1490.0,
      "Rows": 832,
      "SAR": 0.02826883898001,
      "SamplesPerPixel": 1,
      "ScanOptions": "FS",
      "ScanningSequence": "EP",
      "SequenceName": "epfid2d1_104",
      "SequenceVariant": [
        "SK",
        "SS"
],
      "SeriesDescription": "func_task-gambling_run-1",
      "SeriesNumber": 13,
      "SeriesTime": "134235.227000",
      "SliceLocation": -41.25649251744,
      "SliceThickness": 2.0,
      "SmallestImagePixelValue": 0,
      "SoftwareVersions": "syngo MR E11",
      "SpacingBetweenSlices": 1.9999999484078,
      "SpecificCharacterSet": "ISO_IR 100",
      "StudyID": "1",
      "StudyTime": "130627.725000",
      "TransmitCoilName": "Body",
      "VariableFlipAngleFlag": "N",
      "WindowCenterWidthExplanation": "Algo1",
      "dBdt": 0.0},
    "slices": {}
  },
  "time": {
    "samples": {
      "AcquisitionNumber": [1, 2, 3, 4, 5, 6, 7, 8, 9, 10, 11, 12, 13, 14, 15, 16, 17, 18, 19, 20, 21, 22, 23, 24, 25, 26, 27, 28, 29, 30, 31, 32, 33, 34, 35, 36, 37, 38, 39, 40, 41, 42, 43, 44, 45, 46, 47, 48, 49, 50, 51, 52, 53, 54, 55, 56, 57, 58, 59, 60, 61, 62, 63, 64, 65, 66, 67, 68, 69, 70, 71, 72, 73, 74, 75, 76, 77, 78, 79, 80, 81, 82, 83, 84, 85, 86, 87, 88, 89, 90, 91, 92, 93, 94, 95, 96, 97, 98, 99, 100, 101, 102, 103, 104, 105, 106, 107, 108, 109, 110, 111, 112, 113, 114, 115, 116, 117, 118, 119, 120, 121, 122, 123, 124, 125, 126, 127, 128, 129],
      "AcquisitionTime": ["134103.442500", "134104.932500", "134106.422500", "134107.912500", "134109.402500", "134110.892500", "134112.382500", "134113.872500", "134115.362500", "134116.852500", "134118.342500", "134119.832500", "134121.322500", "134122.812500", "134124.302500", "134125.792500", "134127.282500", "134128.772500", "134130.262500", "134131.752500", "134133.242500", "134134.732500", "134136.222500", "134137.712500", "134139.202500", "134140.692500", "134142.182500", "134143.672500", "134145.162500", "134146.652500", "134148.142500", "134149.632500", "134151.122500", "134152.612500", "134154.102500", "134155.592500", "134157.082500", "134158.572500", "134200.062500", "134201.552500", "134203.042500", "134204.532500", "134206.022500", "134207.512500", "134209.002500", "134210.492500", "134211.982500", "134213.472500", "134214.962500", "134216.452500", "134217.942500", "134219.432500", "134220.922500", "134222.412500", "134223.902500", "134225.392500", "134226.882500", "134228.372500", "134229.862500", "134231.352500", "134232.842500", "134234.332500", "134235.822500", "134237.312500", "134238.802500", "134240.292500", "134241.782500", "134243.272500", "134244.762500", "134246.252500", "134247.742500", "134249.232500", "134250.722500", "134252.212500", "134253.702500", "134255.192500", "134256.682500", "134258.172500", "134259.662500", "134301.152500", "134302.642500", "134304.132500", "134305.622500", "134307.112500", "134308.602500", "134310.092500", "134311.582500", "134313.072500", "134314.562500", "134316.052500", "134317.542500", "134319.032500", "134320.522500", "134322.012500", "134323.502500", "134324.992500", "134326.482500", "134327.972500", "134329.462500", "134330.952500", "134332.442500", "134333.932500", "134335.422500", "134336.912500", "134338.402500", "134339.892500", "134341.382500", "134342.872500", "134344.362500", "134345.852500", "134347.342500", "134348.832500", "134350.322500", "134351.812500", "134353.302500", "134354.792500", "134356.282500", "134357.772500", "134359.262500", "134400.752500", "134402.242500", "134403.732500", "134405.222500", "134406.712500", "134408.202500", "134409.692500", "134411.182500", "134412.672500", "134414.162500"],
      "ContentTime": ["134235.229000", "134235.239000", "134235.242000", "134235.245000", "134235.248000", "134235.251000", "134235.254000", "134235.257000", "134235.260000", "134235.263000", "134235.266000", "134235.286000", "134235.289000", "134235.292000", "134235.294000", "134235.297000", "134235.300000", "134235.303000", "134235.307000", "134235.310000", "134235.313000", "134235.316000", "134235.319000", "134235.322000", "134235.325000", "134235.328000", "134235.339000", "134235.342000", "134235.345000", "134235.347000", "134235.350000", "134235.353000", "134235.356000", "134235.359000", "134235.362000", "134235.365000", "134235.368000", "134255.191000", "134255.194000", "134255.197000", "134255.200000", "134255.203000", "134255.206000", "134255.209000", "134255.212000", "134255.217000", "134255.220000", "134255.223000", "134255.226000", "134255.229000", "134255.232000", "134255.235000", "134255.238000", "134255.241000", "134255.244000", "134255.247000", "134255.250000", "134315.191000", "134315.261000", "134315.264000", "134315.267000", "134315.270000", "134315.273000", "134315.276000", "134315.279000", "134315.282000", "134315.285000", "134315.288000", "134315.291000", "134315.294000", "134315.297000", "134315.315000", "134315.318000", "134315.321000", "134315.324000", "134315.327000", "134315.330000", "134335.191000", "134335.194000", "134335.197000", "134335.200000", "134335.203000", "134335.206000", "134335.209000", "134335.212000", "134335.215000", "134335.218000", "134335.220000", "134335.223000", "134335.226000", "134335.229000", "134335.232000", "134335.235000", "134335.238000", "134335.241000", "134335.244000", "134335.247000", "134415.190000", "134415.194000", "134415.197000", "134415.200000", "134415.209000", "134415.212000", "134415.215000", "134415.218000", "134415.221000", "134415.224000", "134415.227000", "134415.230000", "134415.233000", "134415.236000", "134415.239000", "134415.242000", "134415.245000", "134415.248000", "134415.251000", "134415.256000", "134415.260000", "134415.263000", "134415.266000", "134415.269000", "134415.272000", "134415.290000", "134415.292000", "134415.296000", "134415.299000", "134415.302000", "134416.813000", "134416.816000"],
      "InstanceCreationTime": ["134235.229000", "134235.239000", "134235.242000", "134235.245000", "134235.248000", "134235.251000", "134235.254000", "134235.257000", "134235.260000", "134235.263000", "134235.266000", "134235.286000", "134235.289000", "134235.292000", "134235.294000", "134235.297000", "134235.300000", "134235.303000", "134235.307000", "134235.310000", "134235.313000", "134235.316000", "134235.319000", "134235.322000", "134235.325000", "134235.328000", "134235.339000", "134235.342000", "134235.345000", "134235.347000", "134235.350000", "134235.353000", "134235.356000", "134235.359000", "134235.362000", "134235.365000", "134235.368000", "134255.191000", "134255.194000", "134255.197000", "134255.200000", "134255.203000", "134255.206000", "134255.209000", "134255.212000", "134255.217000", "134255.220000", "134255.223000", "134255.226000", "134255.229000", "134255.232000", "134255.235000", "134255.238000", "134255.241000", "134255.244000", "134255.247000", "134255.250000", "134315.191000", "134315.261000", "134315.264000", "134315.267000", "134315.270000", "134315.273000", "134315.276000", "134315.279000", "134315.282000", "134315.285000", "134315.288000", "134315.291000", "134315.294000", "134315.297000", "134315.315000", "134315.318000", "134315.321000", "134315.324000", "134315.327000", "134315.330000", "134335.191000", "134335.194000", "134335.197000", "134335.200000", "134335.203000", "134335.206000", "134335.209000", "134335.212000", "134335.215000", "134335.218000", "134335.220000", "134335.223000", "134335.226000", "134335.229000", "134335.232000", "134335.235000", "134335.238000", "134335.241000", "134335.244000", "134335.247000", "134415.190000", "134415.194000", "134415.197000", "134415.200000", "134415.209000", "134415.212000", "134415.215000", "134415.218000", "134415.221000", "134415.224000", "134415.227000", "134415.230000", "134415.233000", "134415.236000", "134415.239000", "134415.242000", "134415.245000", "134415.248000", "134415.251000", "134415.256000", "134415.260000", "134415.263000", "134415.266000", "134415.269000", "134415.272000", "134415.290000", "134415.292000", "134415.296000", "134415.299000", "134415.302000", "134416.813000", "134416.816000"],
      "InstanceNumber": [1, 2, 3, 4, 5, 6, 7, 8, 9, 10, 11, 12, 13, 14, 15, 16, 17, 18, 19, 20, 21, 22, 23, 24, 25, 26, 27, 28, 29, 30, 31, 32, 33, 34, 35, 36, 37, 38, 39, 40, 41, 42, 43, 44, 45, 46, 47, 48, 49, 50, 51, 52, 53, 54, 55, 56, 57, 58, 59, 60, 61, 62, 63, 64, 65, 66, 67, 68, 69, 70, 71, 72, 73, 74, 75, 76, 77, 78, 79, 80, 81, 82, 83, 84, 85, 86, 87, 88, 89, 90, 91, 92, 93, 94, 95, 96, 97, 98, 99, 100, 101, 102, 103, 104, 105, 106, 107, 108, 109, 110, 111, 112, 113, 114, 115, 116, 117, 118, 119, 120, 121, 122, 123, 124, 125, 126, 127, 128, 129],
      "LargestImagePixelValue": [41739, 40307, 39514, 39447, 39574, 39467, 39416, 39335, 39160, 38580, 39293, 38855, 39053, 38819, 39547, 39267, 39023, 39568, 39130, 39405, 39122, 39444, 39704, 39506, 39387, 39466, 39657, 39079, 39406, 39254, 39189, 38911, 39424, 39055, 39430, 39102, 39338, 39631, 39418, 39123, 38929, 39251, 39292, 39021, 39204, 38816, 39561, 39522, 39400, 38986, 38995, 39091, 38633, 38471, 38941, 39346, 39585, 39219, 39399, 39211, 39181, 38822, 39109, 39072, 39217, 39784, 38915, 39144, 39282, 39185, 39224, 39049, 38813, 39698, 39437, 38917, 39214, 38500, 39153, 39039, 38702, 39011, 39252, 39265, 38660, 39427, 38584, 39014, 39153, 39444, 38948, 38972, 39154, 38880, 39165, 38692, 39176, 38845, 39499, 39117, 39115, 39062, 38367, 38866, 38512, 38472, 38360, 38820, 38451, 38329, 39057, 38779, 38890, 38617, 38902, 38702, 39133, 39122, 39018, 38706, 38879, 39285, 38457, 38884, 39289, 38852, 38785, 38914, 38893],
      "WindowCenter": [9942.0, 9906.0, 9897.0, 9900.0, 9910.0, 9903.0, 9900.0, 9899.0, 9899.0, 9903.0, 9902.0, 9903.0, 9901.0, 9895.0, 9898.0, 9900.0, 9903.0, 9907.0, 9903.0, 9902.0, 9910.0, 9910.0, 9918.0, 9912.0, 9924.0, 9927.0, 9927.0, 9902.0, 9892.0, 9899.0, 9900.0, 9901.0, 9908.0, 9917.0, 9919.0, 9910.0, 9908.0, 9916.0, 9910.0, 9911.0, 9904.0, 9911.0, 9904.0, 9894.0, 9890.0, 9884.0, 9882.0, 9883.0, 9897.0, 9909.0, 9911.0, 9895.0, 9886.0, 9878.0, 9891.0, 9892.0, 9898.0, 9908.0, 9912.0, 9910.0, 9887.0, 9862.0, 9857.0, 9868.0, 9896.0, 9914.0, 9912.0, 9898.0, 9902.0, 9893.0, 9894.0, 9893.0, 9895.0, 9892.0, 9885.0, 9900.0, 9918.0, 9908.0, 9896.0, 9886.0, 9878.0, 9880.0, 9886.0, 9891.0, 9885.0, 9893.0, 9896.0, 9894.0, 9887.0, 9882.0, 9890.0, 9909.0, 9921.0, 9913.0, 9896.0, 9889.0, 9894.0, 9887.0, 9868.0, 9865.0, 9866.0, 9890.0, 9894.0, 9895.0, 9889.0, 9887.0, 9882.0, 9880.0, 9880.0, 9879.0, 9883.0, 9876.0, 9877.0, 9877.0, 9878.0, 9888.0, 9893.0, 9884.0, 9875.0, 9876.0, 9894.0, 9902.0, 9890.0, 9886.0, 9893.0, 9888.0, 9888.0, 9886.0, 9883.0],
      "WindowWidth": [21095.0, 20999.0, 20972.0, 20969.0, 20990.0, 20975.0, 20962.0, 20958.0, 20957.0, 20971.0, 20969.0, 20971.0, 20965.0, 20953.0, 20957.0, 20963.0, 20971.0, 20977.0, 20973.0, 20969.0, 20986.0, 20986.0, 21002.0, 20993.0, 21014.0, 21022.0, 21022.0, 20965.0, 20942.0, 20956.0, 20959.0, 20963.0, 20978.0, 21000.0, 21007.0, 20986.0, 20978.0, 20994.0, 20984.0, 20987.0, 20973.0, 20989.0, 20972.0, 20947.0, 20935.0, 20924.0, 20921.0, 20925.0, 20954.0, 20982.0, 20986.0, 20950.0, 20928.0, 20914.0, 20939.0, 20943.0, 20955.0, 20976.0, 20987.0, 20981.0, 20931.0, 20874.0, 20863.0, 20890.0, 20949.0, 20989.0, 20987.0, 20959.0, 20968.0, 20950.0, 20951.0, 20947.0, 20955.0, 20944.0, 20928.0, 20960.0, 21002.0, 20985.0, 20953.0, 20931.0, 20913.0, 20923.0, 20934.0, 20941.0, 20928.0, 20949.0, 20954.0, 20948.0, 20934.0, 20920.0, 20938.0, 20980.0, 21008.0, 20990.0, 20949.0, 20939.0, 20949.0, 20935.0, 20890.0, 20881.0, 20885.0, 20939.0, 20948.0, 20950.0, 20941.0, 20936.0, 20926.0, 20919.0, 20920.0, 20915.0, 20922.0, 20909.0, 20913.0, 20911.0, 20914.0, 20936.0, 20941.0, 20924.0, 20903.0, 20907.0, 20949.0, 20965.0, 20939.0, 20929.0, 20945.0, 20936.0, 20937.0, 20929.0, 20919.0]
    },
    "slices": {}
  }
}