{
  "AcquisitionMatrixPE": 104,
  "AcquisitionNumber": 1,
  "AcquisitionTime": "13:59:35.450000",
  "BandwidthPerPixelPhaseEncode": 17.17,
  "BaseResolution": 104,
  "BodyPartExamined": "BRAIN",
  "CoilString": "HC1-7;NC1_2",
  "ConsistencyInfo": "N4_VE11C_LATEST_20160120",
  "ConversionSoftware": "dcm2niix",
  "ConversionSoftwareVersion": "v1.0.20190720  (JP2:OpenJPEG) GCC7.3.0",
  "DerivedVendorReportedEchoSpacing": 0.000560011,
  "DeviceSerialNumber": "167006",
  "DwellTime": 2.1e-06,
  "EchoTime": 0.037,
  "EchoTrainLength": 104,
  "EffectiveEchoSpacing": 0.000560011,
  "FlipAngle": 52,
  "ImageComments": "Unaliased_MB4_PE3_LB",
  "ImageOrientationPatientDICOM": [0.999984, -0.00509563, 0.00230023, 0.00558505, 0.92908, -0.369838],
  "ImageType": [
    "ORIGINAL",
    "PRIMARY",
    "M",
    "MB",
    "ND",
    "MOSAIC"
],
  "ImagingFrequency": 123.259,
  "InPlanePhaseEncodingDirectionDICOM": "COL",
  "InstitutionAddress": "Chemin_Queen-Mary_4565_Montreal_District_CA_H3W_1W5",
  "InstitutionName": "IUGM",
  "InstitutionalDepartmentName": "Department",
  "MRAcquisitionType": "2D",
  "MagneticFieldStrength": 3,
  "Manufacturer": "Siemens",
  "ManufacturersModelName": "Prisma_fit",
  "Modality": "MR",
  "MultibandAccelerationFactor": 4,
  "PartialFourier": 1,
  "PatientPosition": "HFS",
  "PercentPhaseFOV": 100,
  "PhaseEncodingDirection": "j",
  "PhaseEncodingSteps": 104,
  "PhaseResolution": 1,
  "PixelBandwidth": 2290,
  "ProcedureStepDescription": "hcptrt_generic",
  "ProtocolName": "func_task-relational_run-1",
  "PulseSequenceDetails": "%CustomerSeq%_cmrr_mbep2d_bold",
  "ReceiveCoilActiveElements": "HC1-7;NC1,2",
  "ReceiveCoilName": "HeadNeck_64",
  "ReconMatrixPE": 104,
  "RepetitionTime": 1.49,
  "SAR": 0.0282349,
  "ScanOptions": "FS",
  "ScanningSequence": "EP",
  "SequenceName": "epfid2d1_104",
  "SequenceVariant": "SK_SS",
  "SeriesDescription": "func_task-relational_run-1",
  "SeriesNumber": 21,
  "ShimSetting": [626, -7155, -8822, 669, 42, 183, 16, -17],
  "SliceThickness": 2,
  "SliceTiming": [0, 0.785, 0.0975, 0.8825, 0.1975, 0.98, 0.295, 1.0775, 0.3925, 1.1775, 0.49, 1.275, 0.5875, 1.3725, 0.6875, 0, 0.785, 0.0975, 0.8825, 0.1975, 0.98, 0.295, 1.0775, 0.3925, 1.1775, 0.49, 1.275, 0.5875, 1.3725, 0.6875, 0, 0.785, 0.0975, 0.8825, 0.1975, 0.98, 0.295, 1.0775, 0.3925, 1.1775, 0.49, 1.275, 0.5875, 1.3725, 0.6875, 0, 0.785, 0.0975, 0.8825, 0.1975, 0.98, 0.295, 1.0775, 0.3925, 1.1775, 0.49, 1.275, 0.5875, 1.3725, 0.6875],
  "SoftwareVersions": "syngo_MR_E11",
  "SpacingBetweenSlices": 2,
  "StationName": "MRC35049",
  "TaskName": "relational",
  "TotalReadoutTime": 0.0576811,
  "TxRefAmp": 208.787,
  "WipMemBlock": "8aee57e8-3071-47fd-8f3d-db506867c15b||Sequence: R016 ve11c/master r/e634e98; Dec 19 2017 11:00:25 by eja",
  "dcmmeta_affine": [
    [-1.9999687671661377, 0.011170090176165104, 0.0005050902254879475, 108.5717544555664],
    [0.010191258043050766, 1.8581593036651611, -0.7396891713142395, -66.57524108886719],
    [0.0046004666946828365, 0.7396750450134277, 1.858187198638916, -70.93624114990234],
    [0.0, 0.0, 0.0, 1.0]
],
  "dcmmeta_reorient_transform": [
    [0.0, -1.0, 0.0, 103.0],
    [1.0, 0.0, 0.0, 0.0],
    [0.0, 0.0, 1.0, 0.0],
    [0.0, 0.0, 0.0, 1.0]
],
  "dcmmeta_shape": [104, 104, 60, 119],
  "dcmmeta_slice_dim": 2,
  "dcmmeta_version": 0.6,
  "global": {
    "const": {
      "AcquisitionMatrix": [104, 0, 0, 104],
      "AngioFlag": "N",
      "BitsAllocated": 16,
      "BitsStored": 16,
      "BodyPartExamined": "BRAIN",
      "Columns": 832,
      "EchoNumbers": 1,
      "EchoTime": 37.0,
      "EchoTrainLength": 104,
      "FlipAngle": 52.0,
      "HighBit": 15,
      "ImageOrientationPatient": [0.99998437162351, -0.0050956290302, 0.00230023336049, 0.00558504518174, 0.92907965449753, -0.3698375357763],
      "ImagePositionPatient": [-841.77680545259, -797.47553629151, 272.8174485738],
      "ImageType": [
        "ORIGINAL",
        "PRIMARY",
        "M",
        "MB",
        "ND",
        "MOSAIC"
],
      "ImagedNucleus": "1H",
      "ImagingFrequency": 123.259287,
      "InPlanePhaseEncodingDirection": "COL",
      "MRAcquisitionType": "2D",
      "MagneticFieldStrength": 3.0,
      "Manufacturer": "SIEMENS",
      "ManufacturerModelName": "Prisma_fit",
      "Modality": "MR",
      "NumberOfAverages": 1.0,
      "NumberOfPhaseEncodingSteps": 104,
      "PercentPhaseFieldOfView": 100.0,
      "PercentSampling": 100.0,
      "PerformedProcedureStepStartTime": "130627.797000",
      "PhotometricInterpretation": "MONOCHROME2",
      "PixelBandwidth": 2290.0,
      "PixelRepresentation": 0,
      "PixelSpacing": [2.0, 2.0],
      "ProtocolName": "func_task-relational_run-1",
      "RepetitionTime": 1490.0,
      "Rows": 832,
      "SAR": 0.02823491049895,
      "SamplesPerPixel": 1,
      "ScanOptions": "FS",
      "ScanningSequence": "EP",
      "SequenceName": "epfid2d1_104",
      "SequenceVariant": [
        "SK",
        "SS"
],
      "SeriesDescription": "func_task-relational_run-1",
      "SeriesNumber": 21,
      "SeriesTime": "140049.449000",
      "SliceLocation": -41.25649251744,
      "SliceThickness": 2.0,
      "SmallestImagePixelValue": 0,
      "SoftwareVersions": "syngo MR E11",
      "SpacingBetweenSlices": 1.9999999484078,
      "SpecificCharacterSet": "ISO_IR 100",
      "StudyID": "1",
      "StudyTime": "130627.725000",
      "TransmitCoilName": "Body",
      "VariableFlipAngleFlag": "N",
      "WindowCenterWidthExplanation": "Algo1",
      "dBdt": 0.0},
    "slices": {}
  },
  "time": {
    "samples": {
      "AcquisitionNumber": [1, 2, 3, 4, 5, 6, 7, 8, 9, 10, 11, 12, 13, 14, 15, 16, 17, 18, 19, 20, 21, 22, 23, 24, 25, 26, 27, 28, 29, 30, 31, 32, 33, 34, 35, 36, 37, 38, 39, 40, 41, 42, 43, 44, 45, 46, 47, 48, 49, 50, 51, 52, 53, 54, 55, 56, 57, 58, 59, 60, 61, 62, 63, 64, 65, 66, 67, 68, 69, 70, 71, 72, 73, 74, 75, 76, 77, 78, 79, 80, 81, 82, 83, 84, 85, 86, 87, 88, 89, 90, 91, 92, 93, 94, 95, 96, 97, 98, 99, 100, 101, 102, 103, 104, 105, 106, 107, 108, 109, 110, 111, 112, 113, 114, 115, 116, 117, 118, 119],
      "AcquisitionTime": ["135935.450000", "135936.940000", "135938.430000", "135939.920000", "135941.410000", "135942.900000", "135944.390000", "135945.880000", "135947.370000", "135948.860000", "135950.350000", "135951.840000", "135953.330000", "135954.820000", "135956.310000", "135957.800000", "135959.290000", "140000.780000", "140002.270000", "140003.760000", "140005.250000", "140006.740000", "140008.230000", "140009.720000", "140011.210000", "140012.700000", "140014.190000", "140015.680000", "140017.170000", "140018.660000", "140020.150000", "140021.640000", "140023.130000", "140024.620000", "140026.110000", "140027.600000", "140029.090000", "140030.580000", "140032.070000", "140033.560000", "140035.050000", "140036.540000", "140038.030000", "140039.520000", "140041.010000", "140042.500000", "140043.990000", "140045.480000", "140046.970000", "140048.460000", "140049.950000", "140051.440000", "140052.930000", "140054.420000", "140055.910000", "140057.400000", "140058.890000", "140100.380000", "140101.870000", "140103.360000", "140104.850000", "140106.340000", "140107.830000", "140109.320000", "140110.810000", "140112.300000", "140113.790000", "140115.280000", "140116.770000", "140118.260000", "140119.750000", "140121.240000", "140122.730000", "140124.220000", "140125.710000", "140127.200000", "140128.690000", "140130.180000", "140131.670000", "140133.160000", "140134.650000", "140136.140000", "140137.630000", "140139.120000", "140140.610000", "140142.100000", "140143.590000", "140145.080000", "140146.570000", "140148.060000", "140149.550000", "140151.040000", "140152.530000", "140154.020000", "140155.510000", "140157.000000", "140158.490000", "140159.980000", "140201.470000", "140202.960000", "140204.450000", "140205.940000", "140207.430000", "140208.920000", "140210.410000", "140211.900000", "140213.390000", "140214.880000", "140216.370000", "140217.860000", "140219.350000", "140220.840000", "140222.330000", "140223.820000", "140225.310000", "140226.800000", "140228.290000", "140229.780000", "140231.270000"],
      "ContentTime": ["140049.452000", "140049.459000", "140049.462000", "140049.464000", "140049.467000", "140049.475000", "140049.478000", "140049.481000", "140049.484000", "140049.493000", "140049.496000", "140049.499000", "140049.502000", "140049.505000", "140049.508000", "140049.511000", "140049.513000", "140049.517000", "140109.425000", "140109.429000", "140109.443000", "140109.446000", "140109.449000", "140109.452000", "140109.455000", "140109.458000", "140109.461000", "140109.464000", "140109.467000", "140109.470000", "140109.473000", "140109.476000", "140109.479000", "140109.482000", "140109.485000", "140109.488000", "140109.491000", "140109.494000", "140129.426000", "140129.429000", "140129.435000", "140129.438000", "140129.441000", "140129.444000", "140129.447000", "140129.450000", "140129.453000", "140129.456000", "140129.459000", "140129.462000", "140129.465000", "140129.468000", "140129.471000", "140129.474000", "140129.477000", "140129.480000", "140129.483000", "140129.495000", "140149.426000", "140149.429000", "140149.432000", "140149.435000", "140149.438000", "140149.441000", "140149.444000", "140149.447000", "140149.450000", "140149.453000", "140149.456000", "140149.458000", "140149.461000", "140149.464000", "140149.467000", "140149.470000", "140149.473000", "140149.476000", "140149.479000", "140149.482000", "140209.425000", "140209.428000", "140209.431000", "140209.434000", "140209.437000", "140209.440000", "140209.443000", "140209.446000", "140209.449000", "140209.452000", "140209.455000", "140209.458000", "140209.462000", "140209.465000", "140209.470000", "140209.473000", "140209.477000", "140209.480000", "140209.483000", "140209.486000", "140233.496000", "140233.499000", "140233.502000", "140233.505000", "140233.508000", "140233.512000", "140233.515000", "140233.517000", "140233.521000", "140233.524000", "140233.527000", "140233.530000", "140233.533000", "140233.536000", "140233.540000", "140233.543000", "140233.547000", "140233.551000", "140233.554000", "140233.557000", "140233.561000"],
      "InstanceCreationTime": ["140049.452000", "140049.459000", "140049.462000", "140049.464000", "140049.467000", "140049.475000", "140049.478000", "140049.481000", "140049.484000", "140049.493000", "140049.496000", "140049.499000", "140049.502000", "140049.505000", "140049.508000", "140049.511000", "140049.513000", "140049.517000", "140109.425000", "140109.429000", "140109.443000", "140109.446000", "140109.449000", "140109.452000", "140109.455000", "140109.458000", "140109.461000", "140109.464000", "140109.467000", "140109.470000", "140109.473000", "140109.476000", "140109.479000", "140109.482000", "140109.485000", "140109.488000", "140109.491000", "140109.494000", "140129.426000", "140129.429000", "140129.435000", "140129.438000", "140129.441000", "140129.444000", "140129.447000", "140129.450000", "140129.453000", "140129.456000", "140129.459000", "140129.462000", "140129.465000", "140129.468000", "140129.471000", "140129.474000", "140129.477000", "140129.480000", "140129.483000", "140129.495000", "140149.426000", "140149.429000", "140149.432000", "140149.435000", "140149.438000", "140149.441000", "140149.444000", "140149.447000", "140149.450000", "140149.453000", "140149.456000", "140149.458000", "140149.461000", "140149.464000", "140149.467000", "140149.470000", "140149.473000", "140149.476000", "140149.479000", "140149.482000", "140209.425000", "140209.428000", "140209.431000", "140209.434000", "140209.437000", "140209.440000", "140209.443000", "140209.446000", "140209.449000", "140209.452000", "140209.455000", "140209.458000", "140209.462000", "140209.465000", "140209.470000", "140209.473000", "140209.477000", "140209.480000", "140209.483000", "140209.486000", "140233.496000", "140233.499000", "140233.502000", "140233.505000", "140233.508000", "140233.512000", "140233.515000", "140233.517000", "140233.521000", "140233.524000", "140233.527000", "140233.530000", "140233.533000", "140233.536000", "140233.540000", "140233.543000", "140233.547000", "140233.551000", "140233.554000", "140233.557000", "140233.561000"],
      "InstanceNumber": [1, 2, 3, 4, 5, 6, 7, 8, 9, 10, 11, 12, 13, 14, 15, 16, 17, 18, 19, 20, 21, 22, 23, 24, 25, 26, 27, 28, 29, 30, 31, 32, 33, 34, 35, 36, 37, 38, 39, 40, 41, 42, 43, 44, 45, 46, 47, 48, 49, 50, 51, 52, 53, 54, 55, 56, 57, 58, 59, 60, 61, 62, 63, 64, 65, 66, 67, 68, 69, 70, 71, 72, 73, 74, 75, 76, 77, 78, 79, 80, 81, 82, 83, 84, 85, 86, 87, 88, 89, 90, 91, 92, 93, 94, 95, 96, 97, 98, 99, 100, 101, 102, 103, 104, 105, 106, 107, 108, 109, 110, 111, 112, 113, 114, 115, 116, 117, 118, 119],
      "LargestImagePixelValue": [41172, 40217, 39733, 39136, 39209, 38833, 38878, 38966, 39265, 38779, 39042, 39162, 38855, 39233, 38343, 39216, 39051, 38927, 38496, 39118, 38581, 39150, 38445, 38963, 39037, 39006, 39295, 38504, 38822, 38926, 39197, 38693, 39030, 38627, 38958, 39246, 38704, 38767, 38628, 38714, 38659, 39128, 38969, 39108, 39181, 39301, 38989, 38730, 38817, 39200, 38942, 39246, 39143, 39359, 38923, 39067, 39348, 39317, 39112, 39129, 39364, 39400, 39409, 39275, 38827, 39302, 38962, 39242, 38813, 39649, 39238, 38969, 39208, 39078, 39351, 39171, 39141, 38732, 39167, 38945, 38952, 39365, 39397, 38969, 39365, 39192, 39233, 39115, 38945, 39260, 38981, 39307, 38946, 39351, 39146, 39564, 39007, 39190, 39172, 39103, 39016, 39318, 38595, 38821, 39024, 38932, 39282, 39018, 39182, 39155, 39226, 38854, 39323, 39018, 39020, 39092, 39145, 39309, 39122],
      "WindowCenter": [9946.0, 9917.0, 9899.0, 9892.0, 9882.0, 9873.0, 9863.0, 9862.0, 9868.0, 9872.0, 9879.0, 9881.0, 9883.0, 9889.0, 9883.0, 9881.0, 9872.0, 9860.0, 9855.0, 9861.0, 9862.0, 9860.0, 9856.0, 9861.0, 9867.0, 9861.0, 9861.0, 9855.0, 9855.0, 9862.0, 9869.0, 9857.0, 9852.0, 9836.0, 9834.0, 9848.0, 9861.0, 9878.0, 9872.0, 9855.0, 9838.0, 9826.0, 9832.0, 9856.0, 9877.0, 9887.0, 9889.0, 9881.0, 9865.0, 9866.0, 9854.0, 9867.0, 9863.0, 9869.0, 9852.0, 9850.0, 9848.0, 9849.0, 9844.0, 9842.0, 9842.0, 9856.0, 9858.0, 9867.0, 9856.0, 9859.0, 9854.0, 9859.0, 9852.0, 9857.0, 9860.0, 9863.0, 9862.0, 9838.0, 9842.0, 9852.0, 9855.0, 9856.0, 9852.0, 9851.0, 9852.0, 9858.0, 9859.0, 9869.0, 9883.0, 9885.0, 9879.0, 9871.0, 9870.0, 9875.0, 9869.0, 9860.0, 9846.0, 9833.0, 9825.0, 9836.0, 9833.0, 9840.0, 9850.0, 9850.0, 9851.0, 9850.0, 9843.0, 9835.0, 9835.0, 9836.0, 9831.0, 9831.0, 9832.0, 9841.0, 9849.0, 9853.0, 9863.0, 9862.0, 9847.0, 9836.0, 9835.0, 9842.0, 9851.0],
      "WindowWidth": [21103.0, 21023.0, 20974.0, 20953.0, 20927.0, 20906.0, 20883.0, 20880.0, 20891.0, 20900.0, 20912.0, 20921.0, 20928.0, 20940.0, 20930.0, 20922.0, 20901.0, 20874.0, 20866.0, 20877.0, 20878.0, 20872.0, 20866.0, 20876.0, 20887.0, 20875.0, 20873.0, 20862.0, 20863.0, 20877.0, 20892.0, 20869.0, 20852.0, 20817.0, 20813.0, 20843.0, 20876.0, 20911.0, 20897.0, 20857.0, 20824.0, 20796.0, 20808.0, 20860.0, 20909.0, 20933.0, 20938.0, 20919.0, 20885.0, 20884.0, 20861.0, 20885.0, 20883.0, 20890.0, 20853.0, 20845.0, 20840.0, 20846.0, 20837.0, 20831.0, 20830.0, 20859.0, 20865.0, 20884.0, 20865.0, 20868.0, 20862.0, 20869.0, 20855.0, 20861.0, 20871.0, 20881.0, 20874.0, 20821.0, 20826.0, 20852.0, 20864.0, 20867.0, 20855.0, 20850.0, 20853.0, 20866.0, 20866.0, 20894.0, 20920.0, 20928.0, 20917.0, 20900.0, 20897.0, 20904.0, 20893.0, 20871.0, 20840.0, 20809.0, 20793.0, 20813.0, 20811.0, 20826.0, 20850.0, 20852.0, 20854.0, 20849.0, 20831.0, 20815.0, 20816.0, 20816.0, 20804.0, 20804.0, 20809.0, 20829.0, 20848.0, 20861.0, 20882.0, 20878.0, 20845.0, 20821.0, 20817.0, 20832.0, 20853.0]
    },
    "slices": {}
  }
}