{
  "AcquisitionMatrixPE": 104,
  "AcquisitionNumber": 1,
  "AcquisitionTime": "13:36:36.792500",
  "BandwidthPerPixelPhaseEncode": 17.17,
  "BaseResolution": 104,
  "BodyPartExamined": "BRAIN",
  "CoilString": "HC1-7;NC1_2",
  "ConsistencyInfo": "N4_VE11C_LATEST_20160120",
  "ConversionSoftware": "dcm2niix",
  "ConversionSoftwareVersion": "v1.0.20190720  (JP2:OpenJPEG) GCC7.3.0",
  "DerivedVendorReportedEchoSpacing": 0.000560011,
  "DeviceSerialNumber": "167006",
  "DwellTime": 2.1e-06,
  "EchoTime": 0.037,
  "EchoTrainLength": 104,
  "EffectiveEchoSpacing": 0.000560011,
  "FlipAngle": 52,
  "ImageComments": "Unaliased_MB4_PE3_LB",
  "ImageOrientationPatientDICOM": [0.999984, -0.00509563, 0.00230023, 0.00558505, 0.92908, -0.369838],
  "ImageType": [
    "ORIGINAL",
    "PRIMARY",
    "M",
    "MB",
    "ND",
    "MOSAIC"
],
  "ImagingFrequency": 123.259,
  "InPlanePhaseEncodingDirectionDICOM": "COL",
  "InstitutionAddress": "Chemin_Queen-Mary_4565_Montreal_District_CA_H3W_1W5",
  "InstitutionName": "IUGM",
  "InstitutionalDepartmentName": "Department",
  "MRAcquisitionType": "2D",
  "MagneticFieldStrength": 3,
  "Manufacturer": "Siemens",
  "ManufacturersModelName": "Prisma_fit",
  "Modality": "MR",
  "MultibandAccelerationFactor": 4,
  "PartialFourier": 1,
  "PatientPosition": "HFS",
  "PercentPhaseFOV": 100,
  "PhaseEncodingDirection": "j",
  "PhaseEncodingSteps": 104,
  "PhaseResolution": 1,
  "PixelBandwidth": 2290,
  "ProcedureStepDescription": "hcptrt_generic",
  "ProtocolName": "func_task-motor_run-1",
  "PulseSequenceDetails": "%CustomerSeq%_cmrr_mbep2d_bold",
  "ReceiveCoilActiveElements": "HC1-7;NC1,2",
  "ReceiveCoilName": "HeadNeck_64",
  "ReconMatrixPE": 104,
  "RepetitionTime": 1.49,
  "SAR": 0.0283113,
  "ScanOptions": "FS",
  "ScanningSequence": "EP",
  "SequenceName": "epfid2d1_104",
  "SequenceVariant": "SK_SS",
  "SeriesDescription": "func_task-motor_run-1",
  "SeriesNumber": 11,
  "ShimSetting": [626, -7155, -8822, 669, 42, 183, 16, -17],
  "SliceThickness": 2,
  "SliceTiming": [0, 0.785, 0.1, 0.8825, 0.1975, 0.98, 0.295, 1.08, 0.3925, 1.1775, 0.49, 1.275, 0.59, 1.3725, 0.6875, 0, 0.785, 0.1, 0.8825, 0.1975, 0.98, 0.295, 1.08, 0.3925, 1.1775, 0.49, 1.275, 0.59, 1.3725, 0.6875, 0, 0.785, 0.1, 0.8825, 0.1975, 0.98, 0.295, 1.08, 0.3925, 1.1775, 0.49, 1.275, 0.59, 1.3725, 0.6875, 0, 0.785, 0.1, 0.8825, 0.1975, 0.98, 0.295, 1.08, 0.3925, 1.1775, 0.49, 1.275, 0.59, 1.3725, 0.6875],
  "SoftwareVersions": "syngo_MR_E11",
  "SpacingBetweenSlices": 2,
  "StationName": "MRC35049",
  "TaskName": "motor",
  "TotalReadoutTime": 0.0576811,
  "TxRefAmp": 208.787,
  "WipMemBlock": "920745ea-284c-4e79-9b9a-a31ea41d09ba||Sequence: R016 ve11c/master r/e634e98; Dec 19 2017 11:00:25 by eja",
  "dcmmeta_affine": [
    [-1.9999687671661377, 0.011170090176165104, 0.0005050902254879475, 108.5717544555664],
    [0.010191258043050766, 1.8581593036651611, -0.7396891713142395, -66.57524108886719],
    [0.0046004666946828365, 0.7396750450134277, 1.858187198638916, -70.93624114990234],
    [0.0, 0.0, 0.0, 1.0]
],
  "dcmmeta_reorient_transform": [
    [0.0, -1.0, 0.0, 103.0],
    [1.0, 0.0, 0.0, 0.0],
    [0.0, 0.0, 1.0, 0.0],
    [0.0, 0.0, 0.0, 1.0]
],
  "dcmmeta_shape": [104, 104, 60, 144],
  "dcmmeta_slice_dim": 2,
  "dcmmeta_version": 0.6,
  "global": {
    "const": {
      "AcquisitionMatrix": [104, 0, 0, 104],
      "AngioFlag": "N",
      "BitsAllocated": 16,
      "BitsStored": 16,
      "BodyPartExamined": "BRAIN",
      "Columns": 832,
      "EchoNumbers": 1,
      "EchoTime": 37.0,
      "EchoTrainLength": 104,
      "FlipAngle": 52.0,
      "HighBit": 15,
      "ImageOrientationPatient": [0.99998437162351, -0.0050956290302, 0.00230023336049, 0.00558504518174, 0.92907965449753, -0.3698375357763],
      "ImagePositionPatient": [-841.77680545259, -797.47553629151, 272.8174485738],
      "ImageType": [
        "ORIGINAL",
        "PRIMARY",
        "M",
        "MB",
        "ND",
        "MOSAIC"
],
      "ImagedNucleus": "1H",
      "ImagingFrequency": 123.259279,
      "InPlanePhaseEncodingDirection": "COL",
      "MRAcquisitionType": "2D",
      "MagneticFieldStrength": 3.0,
      "Manufacturer": "SIEMENS",
      "ManufacturerModelName": "Prisma_fit",
      "Modality": "MR",
      "NumberOfAverages": 1.0,
      "NumberOfPhaseEncodingSteps": 104,
      "PercentPhaseFieldOfView": 100.0,
      "PercentSampling": 100.0,
      "PerformedProcedureStepStartTime": "130627.797000",
      "PhotometricInterpretation": "MONOCHROME2",
      "PixelBandwidth": 2290.0,
      "PixelRepresentation": 0,
      "PixelSpacing": [2.0, 2.0],
      "ProtocolName": "func_task-motor_run-1",
      "RepetitionTime": 1490.0,
      "Rows": 832,
      "SAR": 0.02831131073244,
      "SamplesPerPixel": 1,
      "ScanOptions": "FS",
      "ScanningSequence": "EP",
      "SequenceName": "epfid2d1_104",
      "SequenceVariant": [
        "SK",
        "SS"
],
      "SeriesDescription": "func_task-motor_run-1",
      "SeriesNumber": 11,
      "SeriesTime": "133808.446000",
      "SliceLocation": -41.25649251744,
      "SliceThickness": 2.0,
      "SmallestImagePixelValue": 0,
      "SoftwareVersions": "syngo MR E11",
      "SpacingBetweenSlices": 1.9999999484078,
      "SpecificCharacterSet": "ISO_IR 100",
      "StudyID": "1",
      "StudyTime": "130627.725000",
      "TransmitCoilName": "Body",
      "VariableFlipAngleFlag": "N",
      "WindowCenterWidthExplanation": "Algo1",
      "dBdt": 0.0},
    "slices": {}
  },
  "time": {
    "samples": {
      "AcquisitionNumber": [1, 2, 3, 4, 5, 6, 7, 8, 9, 10, 11, 12, 13, 14, 15, 16, 17, 18, 19, 20, 21, 22, 23, 24, 25, 26, 27, 28, 29, 30, 31, 32, 33, 34, 35, 36, 37, 38, 39, 40, 41, 42, 43, 44, 45, 46, 47, 48, 49, 50, 51, 52, 53, 54, 55, 56, 57, 58, 59, 60, 61, 62, 63, 64, 65, 66, 67, 68, 69, 70, 71, 72, 73, 74, 75, 76, 77, 78, 79, 80, 81, 82, 83, 84, 85, 86, 87, 88, 89, 90, 91, 92, 93, 94, 95, 96, 97, 98, 99, 100, 101, 102, 103, 104, 105, 106, 107, 108, 109, 110, 111, 112, 113, 114, 115, 116, 117, 118, 119, 120, 121, 122, 123, 124, 125, 126, 127, 128, 129, 130, 131, 132, 133, 134, 135, 136, 137, 138, 139, 140, 141, 142, 143, 144],
      "AcquisitionTime": ["133636.792500", "133638.282500", "133639.772500", "133641.262500", "133642.752500", "133644.242500", "133645.732500", "133647.222500", "133648.712500", "133650.202500", "133651.692500", "133653.182500", "133654.672500", "133656.162500", "133657.652500", "133659.142500", "133700.632500", "133702.122500", "133703.612500", "133705.102500", "133706.592500", "133708.082500", "133709.572500", "133711.062500", "133712.552500", "133714.042500", "133715.532500", "133717.022500", "133718.512500", "133720.002500", "133721.492500", "133722.982500", "133724.472500", "133725.962500", "133727.452500", "133728.942500", "133730.432500", "133731.922500", "133733.412500", "133734.902500", "133736.392500", "133737.882500", "133739.372500", "133740.862500", "133742.352500", "133743.842500", "133745.332500", "133746.822500", "133748.312500", "133749.802500", "133751.292500", "133752.782500", "133754.272500", "133755.762500", "133757.252500", "133758.742500", "133800.232500", "133801.722500", "133803.212500", "133804.702500", "133806.192500", "133807.682500", "133809.172500", "133810.662500", "133812.152500", "133813.642500", "133815.132500", "133816.622500", "133818.112500", "133819.602500", "133821.092500", "133822.582500", "133824.072500", "133825.562500", "133827.052500", "133828.542500", "133830.032500", "133831.522500", "133833.012500", "133834.502500", "133835.992500", "133837.482500", "133838.972500", "133840.462500", "133841.952500", "133843.442500", "133844.932500", "133846.422500", "133847.912500", "133849.402500", "133850.892500", "133852.382500", "133853.872500", "133855.362500", "133856.852500", "133858.342500", "133859.832500", "133901.322500", "133902.812500", "133904.302500", "133905.792500", "133907.282500", "133908.772500", "133910.262500", "133911.752500", "133913.242500", "133914.732500", "133916.222500", "133917.712500", "133919.202500", "133920.692500", "133922.182500", "133923.672500", "133925.162500", "133926.652500", "133928.142500", "133929.632500", "133931.122500", "133932.612500", "133934.102500", "133935.592500", "133937.082500", "133938.572500", "133940.062500", "133941.552500", "133943.042500", "133944.532500", "133946.022500", "133947.512500", "133949.002500", "133950.492500", "133951.982500", "133953.472500", "133954.962500", "133956.452500", "133957.942500", "133959.432500", "134000.922500", "134002.412500", "134003.902500", "134005.392500", "134006.882500", "134008.372500", "134009.862500"],
      "ContentTime": ["133808.449000", "133808.452000", "133808.455000", "133808.458000", "133808.461000", "133808.464000", "133808.467000", "133808.470000", "133808.473000", "133808.476000", "133808.479000", "133808.487000", "133808.490000", "133808.493000", "133808.496000", "133808.499000", "133808.501000", "133808.504000", "133808.507000", "133808.510000", "133808.521000", "133808.524000", "133808.526000", "133808.529000", "133808.532000", "133808.535000", "133808.538000", "133808.541000", "133808.544000", "133808.547000", "133808.550000", "133808.553000", "133808.556000", "133808.559000", "133808.562000", "133808.565000", "133808.568000", "133828.418000", "133828.421000", "133828.424000", "133828.427000", "133828.430000", "133828.433000", "133828.436000", "133828.439000", "133828.442000", "133828.445000", "133828.448000", "133828.451000", "133828.454000", "133828.465000", "133828.468000", "133828.471000", "133828.474000", "133828.477000", "133828.480000", "133828.483000", "133848.418000", "133848.421000", "133848.424000", "133848.427000", "133848.430000", "133848.433000", "133848.436000", "133848.439000", "133848.442000", "133848.445000", "133848.448000", "133848.451000", "133848.454000", "133848.457000", "133848.460000", "133848.463000", "133848.466000", "133848.469000", "133848.471000", "133848.474000", "133908.418000", "133908.421000", "133908.424000", "133908.427000", "133908.431000", "133908.434000", "133908.437000", "133908.440000", "133908.443000", "133908.446000", "133908.449000", "133908.452000", "133908.455000", "133908.458000", "133908.461000", "133908.464000", "133908.467000", "133908.470000", "133908.473000", "133908.476000", "133948.417000", "133948.420000", "133948.423000", "133948.426000", "133948.429000", "133948.432000", "133948.435000", "133948.438000", "133948.441000", "133948.444000", "133948.447000", "133948.450000", "133948.453000", "133948.456000", "133948.459000", "133948.462000", "133948.464000", "133948.467000", "133948.470000", "133948.473000", "133948.476000", "133948.479000", "133948.482000", "133948.485000", "133948.488000", "133948.491000", "133948.494000", "133948.497000", "133948.506000", "133948.509000", "133948.512000", "134008.417000", "134008.420000", "134008.423000", "134008.426000", "134008.429000", "134008.432000", "134008.435000", "134008.438000", "134008.441000", "134008.444000", "134008.447000", "134008.450000", "134008.453000", "134012.134000", "134012.138000", "134012.141000"],
      "InstanceCreationTime": ["133808.449000", "133808.452000", "133808.455000", "133808.458000", "133808.461000", "133808.464000", "133808.467000", "133808.470000", "133808.473000", "133808.476000", "133808.479000", "133808.487000", "133808.490000", "133808.493000", "133808.496000", "133808.499000", "133808.501000", "133808.504000", "133808.507000", "133808.510000", "133808.521000", "133808.524000", "133808.526000", "133808.529000", "133808.532000", "133808.535000", "133808.538000", "133808.541000", "133808.544000", "133808.547000", "133808.550000", "133808.553000", "133808.556000", "133808.559000", "133808.562000", "133808.565000", "133808.568000", "133828.418000", "133828.421000", "133828.424000", "133828.427000", "133828.430000", "133828.433000", "133828.436000", "133828.439000", "133828.442000", "133828.445000", "133828.448000", "133828.451000", "133828.454000", "133828.465000", "133828.468000", "133828.471000", "133828.474000", "133828.477000", "133828.480000", "133828.483000", "133848.418000", "133848.421000", "133848.424000", "133848.427000", "133848.430000", "133848.433000", "133848.436000", "133848.439000", "133848.442000", "133848.445000", "133848.448000", "133848.451000", "133848.454000", "133848.457000", "133848.460000", "133848.463000", "133848.466000", "133848.469000", "133848.471000", "133848.474000", "133908.418000", "133908.421000", "133908.424000", "133908.427000", "133908.431000", "133908.434000", "133908.437000", "133908.440000", "133908.443000", "133908.446000", "133908.449000", "133908.452000", "133908.455000", "133908.458000", "133908.461000", "133908.464000", "133908.467000", "133908.470000", "133908.473000", "133908.476000", "133948.417000", "133948.420000", "133948.423000", "133948.426000", "133948.429000", "133948.432000", "133948.435000", "133948.438000", "133948.441000", "133948.444000", "133948.447000", "133948.450000", "133948.453000", "133948.456000", "133948.459000", "133948.462000", "133948.464000", "133948.467000", "133948.470000", "133948.473000", "133948.476000", "133948.479000", "133948.482000", "133948.485000", "133948.488000", "133948.491000", "133948.494000", "133948.497000", "133948.506000", "133948.509000", "133948.512000", "134008.417000", "134008.420000", "134008.423000", "134008.426000", "134008.429000", "134008.432000", "134008.435000", "134008.438000", "134008.441000", "134008.444000", "134008.447000", "134008.450000", "134008.453000", "134012.134000", "134012.138000", "134012.141000"],
      "InstanceNumber": [1, 2, 3, 4, 5, 6, 7, 8, 9, 10, 11, 12, 13, 14, 15, 16, 17, 18, 19, 20, 21, 22, 23, 24, 25, 26, 27, 28, 29, 30, 31, 32, 33, 34, 35, 36, 37, 38, 39, 40, 41, 42, 43, 44, 45, 46, 47, 48, 49, 50, 51, 52, 53, 54, 55, 56, 57, 58, 59, 60, 61, 62, 63, 64, 65, 66, 67, 68, 69, 70, 71, 72, 73, 74, 75, 76, 77, 78, 79, 80, 81, 82, 83, 84, 85, 86, 87, 88, 89, 90, 91, 92, 93, 94, 95, 96, 97, 98, 99, 100, 101, 102, 103, 104, 105, 106, 107, 108, 109, 110, 111, 112, 113, 114, 115, 116, 117, 118, 119, 120, 121, 122, 123, 124, 125, 126, 127, 128, 129, 130, 131, 132, 133, 134, 135, 136, 137, 138, 139, 140, 141, 142, 143, 144],
      "LargestImagePixelValue": [41835, 40587, 39881, 39222, 39398, 39270, 38979, 39097, 39407, 39424, 38564, 38896, 38969, 38749, 39182, 39006, 38940, 38636, 39157, 39000, 38772, 39144, 39172, 39332, 39393, 39096, 39116, 38922, 39067, 39274, 40190, 39267, 39049, 38903, 38857, 39013, 38869, 38685, 38723, 38679, 38984, 39087, 38517, 38663, 39075, 38685, 39006, 39168, 38918, 38725, 38827, 38780, 38662, 38555, 38821, 38796, 38620, 38829, 38801, 38828, 38717, 38833, 38670, 38806, 38904, 39007, 38838, 38729, 38730, 38586, 39511, 39178, 38833, 38872, 39106, 39004, 38944, 38647, 38839, 38863, 38765, 38845, 38693, 38808, 38681, 38735, 38997, 38859, 38530, 39117, 38522, 38803, 38632, 39086, 38893, 39184, 38705, 39012, 38932, 38677, 38786, 38734, 39456, 38876, 38933, 39146, 39257, 38846, 38897, 39088, 38740, 38489, 38912, 38764, 39191, 38718, 38710, 38428, 38496, 39059, 38503, 39047, 38741, 38920, 38803, 38913, 38689, 38629, 38869, 38839, 38802, 38644, 39197, 38718, 38614, 38770, 39279, 38425, 39128, 38891, 38621, 38863, 38901, 38943],
      "WindowCenter": [9977.0, 9941.0, 9932.0, 9925.0, 9916.0, 9914.0, 9913.0, 9932.0, 9941.0, 9939.0, 9914.0, 9906.0, 9904.0, 9905.0, 9906.0, 9912.0, 9913.0, 9914.0, 9915.0, 9920.0, 9915.0, 9922.0, 9931.0, 9931.0, 9930.0, 9930.0, 9923.0, 9922.0, 9913.0, 9920.0, 9926.0, 9925.0, 9928.0, 9919.0, 9912.0, 9919.0, 9910.0, 9911.0, 9902.0, 9906.0, 9907.0, 9907.0, 9904.0, 9909.0, 9917.0, 9916.0, 9916.0, 9908.0, 9905.0, 9899.0, 9898.0, 9899.0, 9898.0, 9906.0, 9907.0, 9901.0, 9896.0, 9894.0, 9895.0, 9903.0, 9910.0, 9915.0, 9910.0, 9901.0, 9903.0, 9913.0, 9915.0, 9911.0, 9899.0, 9899.0, 9904.0, 9917.0, 9917.0, 9908.0, 9907.0, 9904.0, 9907.0, 9909.0, 9917.0, 9917.0, 9917.0, 9911.0, 9908.0, 9908.0, 9906.0, 9909.0, 9924.0, 9932.0, 9926.0, 9924.0, 9902.0, 9897.0, 9898.0, 9898.0, 9915.0, 9923.0, 9911.0, 9899.0, 9898.0, 9890.0, 9906.0, 9907.0, 9915.0, 9900.0, 9898.0, 9907.0, 9916.0, 9917.0, 9916.0, 9917.0, 9908.0, 9901.0, 9899.0, 9899.0, 9898.0, 9899.0, 9893.0, 9883.0, 9881.0, 9888.0, 9890.0, 9896.0, 9892.0, 9898.0, 9890.0, 9890.0, 9899.0, 9907.0, 9915.0, 9914.0, 9915.0, 9900.0, 9897.0, 9898.0, 9915.0, 9924.0, 9926.0, 9905.0, 9902.0, 9900.0, 9899.0, 9894.0, 9891.0, 9898.0],
      "WindowWidth": [21179.0, 21081.0, 21053.0, 21034.0, 21009.0, 20999.0, 20997.0, 21041.0, 21060.0, 21049.0, 20994.0, 20977.0, 20973.0, 20978.0, 20981.0, 20994.0, 20995.0, 20999.0, 21002.0, 21011.0, 21003.0, 21016.0, 21038.0, 21036.0, 21034.0, 21034.0, 21019.0, 21014.0, 20992.0, 21007.0, 21019.0, 21024.0, 21032.0, 21011.0, 20996.0, 21009.0, 20990.0, 20993.0, 20972.0, 20975.0, 20980.0, 20981.0, 20982.0, 20989.0, 21004.0, 21001.0, 21001.0, 20981.0, 20971.0, 20963.0, 20960.0, 20962.0, 20958.0, 20976.0, 20980.0, 20969.0, 20955.0, 20948.0, 20952.0, 20971.0, 20992.0, 20999.0, 20992.0, 20972.0, 20971.0, 20993.0, 21001.0, 20995.0, 20964.0, 20964.0, 20975.0, 21009.0, 21008.0, 20986.0, 20980.0, 20974.0, 20982.0, 20990.0, 21005.0, 21005.0, 21005.0, 20994.0, 20984.0, 20985.0, 20978.0, 20990.0, 21023.0, 21039.0, 21028.0, 21018.0, 20969.0, 20955.0, 20960.0, 20961.0, 21001.0, 21018.0, 20992.0, 20963.0, 20961.0, 20946.0, 20979.0, 20984.0, 21001.0, 20967.0, 20961.0, 20983.0, 21006.0, 21009.0, 21002.0, 21002.0, 20982.0, 20969.0, 20962.0, 20962.0, 20960.0, 20961.0, 20955.0, 20930.0, 20923.0, 20936.0, 20942.0, 20953.0, 20949.0, 20961.0, 20944.0, 20941.0, 20965.0, 20980.0, 20998.0, 20995.0, 20997.0, 20965.0, 20958.0, 20959.0, 20999.0, 21018.0, 21023.0, 20980.0, 20972.0, 20966.0, 20963.0, 20957.0, 20949.0, 20962.0]
    },
    "slices": {}
  }
}