{
  "AcquisitionMatrixPE": 104,
  "AcquisitionNumber": 1,
  "AcquisitionTime": "13:50:31.180000",
  "BandwidthPerPixelPhaseEncode": 17.17,
  "BaseResolution": 104,
  "BodyPartExamined": "BRAIN",
  "CoilString": "HC1-7;NC1_2",
  "ConsistencyInfo": "N4_VE11C_LATEST_20160120",
  "ConversionSoftware": "dcm2niix",
  "ConversionSoftwareVersion": "v1.0.20190720  (JP2:OpenJPEG) GCC7.3.0",
  "DerivedVendorReportedEchoSpacing": 0.000560011,
  "DeviceSerialNumber": "167006",
  "DwellTime": 2.1e-06,
  "EchoTime": 0.037,
  "EchoTrainLength": 104,
  "EffectiveEchoSpacing": 0.000560011,
  "FlipAngle": 52,
  "ImageComments": "Unaliased_MB4_PE3_LB",
  "ImageOrientationPatientDICOM": [0.999984, -0.00509563, 0.00230023, 0.00558505, 0.92908, -0.369838],
  "ImageType": [
    "ORIGINAL",
    "PRIMARY",
    "M",
    "MB",
    "ND",
    "MOSAIC"
],
  "ImagingFrequency": 123.259,
  "InPlanePhaseEncodingDirectionDICOM": "COL",
  "InstitutionAddress": "Chemin_Queen-Mary_4565_Montreal_District_CA_H3W_1W5",
  "InstitutionName": "IUGM",
  "InstitutionalDepartmentName": "Department",
  "MRAcquisitionType": "2D",
  "MagneticFieldStrength": 3,
  "Manufacturer": "Siemens",
  "ManufacturersModelName": "Prisma_fit",
  "Modality": "MR",
  "MultibandAccelerationFactor": 4,
  "PartialFourier": 1,
  "PatientPosition": "HFS",
  "PercentPhaseFOV": 100,
  "PhaseEncodingDirection": "j",
  "PhaseEncodingSteps": 104,
  "PhaseResolution": 1,
  "PixelBandwidth": 2290,
  "ProcedureStepDescription": "hcptrt_generic",
  "ProtocolName": "func_task-wm_run-1",
  "PulseSequenceDetails": "%CustomerSeq%_cmrr_mbep2d_bold",
  "ReceiveCoilActiveElements": "HC1-7;NC1,2",
  "ReceiveCoilName": "HeadNeck_64",
  "ReconMatrixPE": 104,
  "RepetitionTime": 1.49,
  "SAR": 0.0284182,
  "ScanOptions": "FS",
  "ScanningSequence": "EP",
  "SequenceName": "epfid2d1_104",
  "SequenceVariant": "SK_SS",
  "SeriesDescription": "func_task-wm_run-1",
  "SeriesNumber": 17,
  "ShimSetting": [626, -7155, -8822, 669, 42, 183, 16, -17],
  "SliceThickness": 2,
  "SliceTiming": [0, 0.785, 0.0975, 0.8825, 0.195, 0.98, 0.295, 1.0775, 0.3925, 1.175, 0.49, 1.275, 0.5875, 1.3725, 0.685, 0, 0.785, 0.0975, 0.8825, 0.195, 0.98, 0.295, 1.0775, 0.3925, 1.175, 0.49, 1.275, 0.5875, 1.3725, 0.685, 0, 0.785, 0.0975, 0.8825, 0.195, 0.98, 0.295, 1.0775, 0.3925, 1.175, 0.49, 1.275, 0.5875, 1.3725, 0.685, 0, 0.785, 0.0975, 0.8825, 0.195, 0.98, 0.295, 1.0775, 0.3925, 1.175, 0.49, 1.275, 0.5875, 1.3725, 0.685],
  "SoftwareVersions": "syngo_MR_E11",
  "SpacingBetweenSlices": 2,
  "StationName": "MRC35049",
  "TaskName": "wm",
  "TotalReadoutTime": 0.0576811,
  "TxRefAmp": 208.787,
  "WipMemBlock": "42718461-03a7-4f30-af74-2bb104b5a7f8||Sequence: R016 ve11c/master r/e634e98; Dec 19 2017 11:00:25 by eja",
  "dcmmeta_affine": [
    [-1.9999687671661377, 0.011170090176165104, 0.0005050902254879475, 108.5717544555664],
    [0.010191258043050766, 1.8581593036651611, -0.7396891713142395, -66.57524108886719],
    [0.0046004666946828365, 0.7396750450134277, 1.858187198638916, -70.93624114990234],
    [0.0, 0.0, 0.0, 1.0]
],
  "dcmmeta_reorient_transform": [
    [0.0, -1.0, 0.0, 103.0],
    [1.0, 0.0, 0.0, 0.0],
    [0.0, 0.0, 1.0, 0.0],
    [0.0, 0.0, 0.0, 1.0]
],
  "dcmmeta_shape": [104, 104, 60, 202],
  "dcmmeta_slice_dim": 2,
  "dcmmeta_version": 0.6,
  "global": {
    "const": {
      "AcquisitionMatrix": [104, 0, 0, 104],
      "AngioFlag": "N",
      "BitsAllocated": 16,
      "BitsStored": 16,
      "BodyPartExamined": "BRAIN",
      "Columns": 832,
      "EchoNumbers": 1,
      "EchoTime": 37.0,
      "EchoTrainLength": 104,
      "FlipAngle": 52.0,
      "HighBit": 15,
      "ImageOrientationPatient": [0.99998437162351, -0.0050956290302, 0.00230023336049, 0.00558504518174, 0.92907965449753, -0.3698375357763],
      "ImagePositionPatient": [-841.77680545259, -797.47553629151, 272.8174485738],
      "ImageType": [
        "ORIGINAL",
        "PRIMARY",
        "M",
        "MB",
        "ND",
        "MOSAIC"
],
      "ImagedNucleus": "1H",
      "ImagingFrequency": 123.259284,
      "InPlanePhaseEncodingDirection": "COL",
      "MRAcquisitionType": "2D",
      "MagneticFieldStrength": 3.0,
      "Manufacturer": "SIEMENS",
      "ManufacturerModelName": "Prisma_fit",
      "Modality": "MR",
      "NumberOfAverages": 1.0,
      "NumberOfPhaseEncodingSteps": 104,
      "PercentPhaseFieldOfView": 100.0,
      "PercentSampling": 100.0,
      "PerformedProcedureStepStartTime": "130627.797000",
      "PhotometricInterpretation": "MONOCHROME2",
      "PixelBandwidth": 2290.0,
      "PixelRepresentation": 0,
      "PixelSpacing": [2.0, 2.0],
      "ProtocolName": "func_task-wm_run-1",
      "RepetitionTime": 1490.0,
      "Rows": 832,
      "SAR": 0.02841816889219,
      "SamplesPerPixel": 1,
      "ScanOptions": "FS",
      "ScanningSequence": "EP",
      "SequenceName": "epfid2d1_104",
      "SequenceVariant": [
        "SK",
        "SS"
],
      "SeriesDescription": "func_task-wm_run-1",
      "SeriesNumber": 17,
      "SeriesTime": "135128.444000",
      "SliceLocation": -41.25649251744,
      "SliceThickness": 2.0,
      "SmallestImagePixelValue": 0,
      "SoftwareVersions": "syngo MR E11",
      "SpacingBetweenSlices": 1.9999999484078,
      "SpecificCharacterSet": "ISO_IR 100",
      "StudyID": "1",
      "StudyTime": "130627.725000",
      "TransmitCoilName": "Body",
      "VariableFlipAngleFlag": "N",
      "WindowCenterWidthExplanation": "Algo1",
      "dBdt": 0.0},
    "slices": {}
  },
  "time": {
    "samples": {
      "AcquisitionNumber": [1, 2, 3, 4, 5, 6, 7, 8, 9, 10, 11, 12, 13, 14, 15, 16, 17, 18, 19, 20, 21, 22, 23, 24, 25, 26, 27, 28, 29, 30, 31, 32, 33, 34, 35, 36, 37, 38, 39, 40, 41, 42, 43, 44, 45, 46, 47, 48, 49, 50, 51, 52, 53, 54, 55, 56, 57, 58, 59, 60, 61, 62, 63, 64, 65, 66, 67, 68, 69, 70, 71, 72, 73, 74, 75, 76, 77, 78, 79, 80, 81, 82, 83, 84, 85, 86, 87, 88, 89, 90, 91, 92, 93, 94, 95, 96, 97, 98, 99, 100, 101, 102, 103, 104, 105, 106, 107, 108, 109, 110, 111, 112, 113, 114, 115, 116, 117, 118, 119, 120, 121, 122, 123, 124, 125, 126, 127, 128, 129, 130, 131, 132, 133, 134, 135, 136, 137, 138, 139, 140, 141, 142, 143, 144, 145, 146, 147, 148, 149, 150, 151, 152, 153, 154, 155, 156, 157, 158, 159, 160, 161, 162, 163, 164, 165, 166, 167, 168, 169, 170, 171, 172, 173, 174, 175, 176, 177, 178, 179, 180, 181, 182, 183, 184, 185, 186, 187, 188, 189, 190, 191, 192, 193, 194, 195, 196, 197, 198, 199, 200, 201, 202],
      "AcquisitionTime": ["135031.180000", "135032.670000", "135034.160000", "135035.650000", "135037.140000", "135038.630000", "135040.120000", "135041.610000", "135043.100000", "135044.590000", "135046.080000", "135047.570000", "135049.060000", "135050.550000", "135052.040000", "135053.530000", "135055.020000", "135056.510000", "135058.000000", "135059.490000", "135100.980000", "135102.470000", "135103.960000", "135105.450000", "135106.940000", "135108.430000", "135109.920000", "135111.410000", "135112.900000", "135114.390000", "135115.880000", "135117.370000", "135118.860000", "135120.350000", "135121.840000", "135123.330000", "135124.820000", "135126.310000", "135127.800000", "135129.290000", "135130.780000", "135132.270000", "135133.760000", "135135.250000", "135136.740000", "135138.230000", "135139.720000", "135141.210000", "135142.700000", "135144.190000", "135145.680000", "135147.170000", "135148.660000", "135150.150000", "135151.640000", "135153.130000", "135154.620000", "135156.110000", "135157.600000", "135159.090000", "135200.580000", "135202.070000", "135203.560000", "135205.050000", "135206.540000", "135208.030000", "135209.520000", "135211.010000", "135212.500000", "135213.990000", "135215.480000", "135216.970000", "135218.460000", "135219.950000", "135221.440000", "135222.930000", "135224.420000", "135225.910000", "135227.400000", "135228.890000", "135230.380000", "135231.870000", "135233.360000", "135234.850000", "135236.340000", "135237.830000", "135239.320000", "135240.810000", "135242.300000", "135243.790000", "135245.280000", "135246.770000", "135248.260000", "135249.750000", "135251.240000", "135252.730000", "135254.220000", "135255.710000", "135257.200000", "135258.690000", "135300.180000", "135301.670000", "135303.160000", "135304.650000", "135306.140000", "135307.630000", "135309.120000", "135310.610000", "135312.100000", "135313.590000", "135315.080000", "135316.570000", "135318.060000", "135319.550000", "135321.040000", "135322.530000", "135324.020000", "135325.510000", "135327.000000", "135328.490000", "135329.980000", "135331.470000", "135332.960000", "135334.450000", "135335.940000", "135337.430000", "135338.920000", "135340.410000", "135341.900000", "135343.390000", "135344.880000", "135346.370000", "135347.860000", "135349.350000", "135350.840000", "135352.330000", "135353.820000", "135355.310000", "135356.800000", "135358.290000", "135359.780000", "135401.270000", "135402.760000", "135404.250000", "135405.740000", "135407.230000", "135408.720000", "135410.210000", "135411.700000", "135413.190000", "135414.680000", "135416.170000", "135417.660000", "135419.150000", "135420.640000", "135422.130000", "135423.620000", "135425.110000", "135426.600000", "135428.090000", "135429.580000", "135431.070000", "135432.560000", "135434.050000", "135435.540000", "135437.030000", "135438.520000", "135440.010000", "135441.500000", "135442.990000", "135444.480000", "135445.970000", "135447.460000", "135448.950000", "135450.440000", "135451.930000", "135453.420000", "135454.910000", "135456.400000", "135457.890000", "135459.380000", "135500.870000", "135502.360000", "135503.850000", "135505.340000", "135506.830000", "135508.320000", "135509.810000", "135511.300000", "135512.790000", "135514.280000", "135515.770000", "135517.260000", "135518.750000", "135520.240000", "135521.730000", "135523.220000", "135524.710000", "135526.200000", "135527.690000", "135529.180000", "135530.670000"],
      "ContentTime": ["135128.447000", "135128.450000", "135128.453000", "135148.417000", "135148.420000", "135148.423000", "135148.426000", "135148.429000", "135148.432000", "135148.435000", "135148.438000", "135148.441000", "135148.444000", "135148.447000", "135148.450000", "135148.453000", "135148.456000", "135148.458000", "135148.461000", "135148.464000", "135148.467000", "135148.470000", "135148.473000", "135208.418000", "135208.421000", "135208.424000", "135208.427000", "135208.430000", "135208.433000", "135208.436000", "135208.439000", "135208.442000", "135208.445000", "135208.448000", "135208.451000", "135208.454000", "135208.457000", "135208.460000", "135208.463000", "135208.466000", "135208.469000", "135208.472000", "135208.475000", "135208.478000", "135228.418000", "135228.421000", "135228.424000", "135228.435000", "135228.438000", "135228.441000", "135228.444000", "135228.447000", "135228.450000", "135228.453000", "135228.457000", "135228.460000", "135228.463000", "135228.466000", "135228.469000", "135228.472000", "135228.475000", "135228.478000", "135228.481000", "135228.484000", "135248.418000", "135248.421000", "135248.424000", "135248.427000", "135248.430000", "135248.433000", "135248.436000", "135248.438000", "135248.441000", "135248.444000", "135248.447000", "135248.450000", "135248.453000", "135248.456000", "135248.459000", "135248.462000", "135248.465000", "135248.468000", "135248.471000", "135248.473000", "135308.418000", "135308.421000", "135308.424000", "135308.428000", "135308.431000", "135308.434000", "135308.437000", "135308.440000", "135308.443000", "135308.446000", "135308.448000", "135308.451000", "135308.454000", "135308.457000", "135308.460000", "135308.463000", "135308.466000", "135308.469000", "135308.472000", "135308.484000", "135348.417000", "135348.420000", "135348.423000", "135348.426000", "135348.429000", "135348.432000", "135348.435000", "135348.438000", "135348.441000", "135348.443000", "135348.446000", "135348.449000", "135348.452000", "135348.460000", "135348.463000", "135348.466000", "135348.469000", "135348.472000", "135348.475000", "135348.478000", "135348.481000", "135348.484000", "135348.487000", "135348.490000", "135348.493000", "135348.496000", "135348.499000", "135428.418000", "135428.421000", "135428.424000", "135428.427000", "135428.430000", "135428.433000", "135428.436000", "135428.439000", "135428.442000", "135428.445000", "135428.448000", "135428.451000", "135428.454000", "135428.457000", "135428.460000", "135428.463000", "135428.466000", "135428.469000", "135428.472000", "135428.475000", "135428.478000", "135428.481000", "135428.484000", "135428.487000", "135428.490000", "135428.493000", "135428.496000", "135508.418000", "135508.421000", "135508.424000", "135508.427000", "135508.430000", "135508.433000", "135508.446000", "135508.449000", "135508.452000", "135508.455000", "135508.458000", "135508.461000", "135508.464000", "135508.467000", "135508.470000", "135508.473000", "135508.476000", "135508.479000", "135508.482000", "135508.485000", "135508.488000", "135508.491000", "135508.494000", "135508.497000", "135508.500000", "135508.503000", "135508.506000", "135533.223000", "135533.227000", "135533.230000", "135533.233000", "135533.236000", "135533.239000", "135533.242000", "135533.245000", "135533.248000", "135533.251000", "135533.254000", "135533.257000", "135533.260000", "135533.263000", "135533.267000", "135533.270000", "135533.273000"],
      "InstanceCreationTime": ["135128.447000", "135128.450000", "135128.453000", "135148.417000", "135148.420000", "135148.423000", "135148.426000", "135148.429000", "135148.432000", "135148.435000", "135148.438000", "135148.441000", "135148.444000", "135148.447000", "135148.450000", "135148.453000", "135148.456000", "135148.458000", "135148.461000", "135148.464000", "135148.467000", "135148.470000", "135148.473000", "135208.418000", "135208.421000", "135208.424000", "135208.427000", "135208.430000", "135208.433000", "135208.436000", "135208.439000", "135208.442000", "135208.445000", "135208.448000", "135208.451000", "135208.454000", "135208.457000", "135208.460000", "135208.463000", "135208.466000", "135208.469000", "135208.472000", "135208.475000", "135208.478000", "135228.418000", "135228.421000", "135228.424000", "135228.435000", "135228.438000", "135228.441000", "135228.444000", "135228.447000", "135228.450000", "135228.453000", "135228.457000", "135228.460000", "135228.463000", "135228.466000", "135228.469000", "135228.472000", "135228.475000", "135228.478000", "135228.481000", "135228.484000", "135248.418000", "135248.421000", "135248.424000", "135248.427000", "135248.430000", "135248.433000", "135248.436000", "135248.438000", "135248.441000", "135248.444000", "135248.447000", "135248.450000", "135248.453000", "135248.456000", "135248.459000", "135248.462000", "135248.465000", "135248.468000", "135248.471000", "135248.473000", "135308.418000", "135308.421000", "135308.424000", "135308.428000", "135308.431000", "135308.434000", "135308.437000", "135308.440000", "135308.443000", "135308.446000", "135308.448000", "135308.451000", "135308.454000", "135308.457000", "135308.460000", "135308.463000", "135308.466000", "135308.469000", "135308.472000", "135308.484000", "135348.417000", "135348.420000", "135348.423000", "135348.426000", "135348.429000", "135348.432000", "135348.435000", "135348.438000", "135348.441000", "135348.443000", "135348.446000", "135348.449000", "135348.452000", "135348.460000", "135348.463000", "135348.466000", "135348.469000", "135348.472000", "135348.475000", "135348.478000", "135348.481000", "135348.484000", "135348.487000", "135348.490000", "135348.493000", "135348.496000", "135348.499000", "135428.418000", "135428.421000", "135428.424000", "135428.427000", "135428.430000", "135428.433000", "135428.436000", "135428.439000", "135428.442000", "135428.445000", "135428.448000", "135428.451000", "135428.454000", "135428.457000", "135428.460000", "135428.463000", "135428.466000", "135428.469000", "135428.472000", "135428.475000", "135428.478000", "135428.481000", "135428.484000", "135428.487000", "135428.490000", "135428.493000", "135428.496000", "135508.418000", "135508.421000", "135508.424000", "135508.427000", "135508.430000", "135508.433000", "135508.446000", "135508.449000", "135508.452000", "135508.455000", "135508.458000", "135508.461000", "135508.464000", "135508.467000", "135508.470000", "135508.473000", "135508.476000", "135508.479000", "135508.482000", "135508.485000", "135508.488000", "135508.491000", "135508.494000", "135508.497000", "135508.500000", "135508.503000", "135508.506000", "135533.223000", "135533.227000", "135533.230000", "135533.233000", "135533.236000", "135533.239000", "135533.242000", "135533.245000", "135533.248000", "135533.251000", "135533.254000", "135533.257000", "135533.260000", "135533.263000", "135533.267000", "135533.270000", "135533.273000"],
      "InstanceNumber": [1, 2, 3, 4, 5, 6, 7, 8, 9, 10, 11, 12, 13, 14, 15, 16, 17, 18, 19, 20, 21, 22, 23, 24, 25, 26, 27, 28, 29, 30, 31, 32, 33, 34, 35, 36, 37, 38, 39, 40, 41, 42, 43, 44, 45, 46, 47, 48, 49, 50, 51, 52, 53, 54, 55, 56, 57, 58, 59, 60, 61, 62, 63, 64, 65, 66, 67, 68, 69, 70, 71, 72, 73, 74, 75, 76, 77, 78, 79, 80, 81, 82, 83, 84, 85, 86, 87, 88, 89, 90, 91, 92, 93, 94, 95, 96, 97, 98, 99, 100, 101, 102, 103, 104, 105, 106, 107, 108, 109, 110, 111, 112, 113, 114, 115, 116, 117, 118, 119, 120, 121, 122, 123, 124, 125, 126, 127, 128, 129, 130, 131, 132, 133, 134, 135, 136, 137, 138, 139, 140, 141, 142, 143, 144, 145, 146, 147, 148, 149, 150, 151, 152, 153, 154, 155, 156, 157, 158, 159, 160, 161, 162, 163, 164, 165, 166, 167, 168, 169, 170, 171, 172, 173, 174, 175, 176, 177, 178, 179, 180, 181, 182, 183, 184, 185, 186, 187, 188, 189, 190, 191, 192, 193, 194, 195, 196, 197, 198, 199, 200, 201, 202],
      "LargestImagePixelValue": [41988, 40664, 40418, 39673, 39188, 39599, 39472, 39413, 39260, 39202, 39448, 39487, 39359, 39141, 39665, 38926, 39291, 39215, 39561, 39569, 39261, 38991, 39113, 38886, 39084, 39336, 39021, 38797, 39323, 39059, 39057, 39070, 39336, 38725, 38779, 38690, 39089, 38891, 38581, 39022, 38890, 39024, 38784, 38801, 38901, 38497, 39142, 38850, 39054, 38484, 39096, 38721, 38657, 38806, 38085, 38000, 38732, 38283, 37901, 38609, 38482, 38747, 38976, 39039, 39069, 38574, 38687, 38815, 38691, 38542, 37812, 39190, 38684, 38260, 39068, 38794, 38994, 38243, 38377, 38075, 38324, 38895, 37951, 38348, 37870, 38589, 38716, 38041, 38151, 38314, 38310, 38170, 38375, 38450, 37914, 38185, 37662, 38858, 38392, 38501, 38215, 38647, 38586, 38430, 38586, 38100, 38290, 37948, 38007, 38013, 38068, 38037, 38281, 38210, 37720, 38109, 37965, 37999, 38163, 37684, 37578, 38078, 38480, 38017, 38761, 37836, 38248, 37691, 37975, 37765, 38231, 37964, 38255, 38294, 38839, 38361, 38948, 37955, 38304, 38096, 38020, 38018, 38406, 38352, 38086, 38575, 38244, 38057, 37978, 38324, 38077, 38499, 38148, 38253, 38338, 37857, 37839, 38012, 38072, 37899, 37890, 37908, 37907, 37950, 38263, 38030, 38334, 38001, 37899, 37864, 38059, 37405, 37927, 37643, 38126, 37765, 37992, 37629, 37759, 37749, 38220, 37629, 37512, 37943, 37691, 38020, 37831, 37765, 37553, 37818, 37576, 38182, 37743, 38169, 37949, 38065, 38057, 38145, 38094, 37824, 38807, 38520],
      "WindowCenter": [9933.0, 9888.0, 9858.0, 9842.0, 9852.0, 9865.0, 9858.0, 9848.0, 9857.0, 9868.0, 9877.0, 9870.0, 9868.0, 9859.0, 9863.0, 9861.0, 9874.0, 9884.0, 9884.0, 9878.0, 9870.0, 9867.0, 9869.0, 9868.0, 9860.0, 9857.0, 9866.0, 9876.0, 9886.0, 9886.0, 9878.0, 9869.0, 9858.0, 9851.0, 9866.0, 9878.0, 9887.0, 9887.0, 9881.0, 9877.0, 9869.0, 9860.0, 9858.0, 9853.0, 9860.0, 9855.0, 9858.0, 9852.0, 9843.0, 9836.0, 9847.0, 9850.0, 9859.0, 9861.0, 9862.0, 9866.0, 9879.0, 9873.0, 9867.0, 9872.0, 9873.0, 9871.0, 9877.0, 9868.0, 9859.0, 9851.0, 9851.0, 9861.0, 9864.0, 9870.0, 9874.0, 9872.0, 9863.0, 9856.0, 9869.0, 9879.0, 9895.0, 9882.0, 9873.0, 9864.0, 9863.0, 9867.0, 9865.0, 9872.0, 9867.0, 9855.0, 9845.0, 9837.0, 9837.0, 9853.0, 9855.0, 9858.0, 9857.0, 9855.0, 9840.0, 9837.0, 9832.0, 9850.0, 9854.0, 9854.0, 9846.0, 9844.0, 9852.0, 9859.0, 9869.0, 9858.0, 9855.0, 9847.0, 9847.0, 9871.0, 9867.0, 9866.0, 9864.0, 9857.0, 9858.0, 9857.0, 9851.0, 9848.0, 9846.0, 9839.0, 9840.0, 9856.0, 9863.0, 9858.0, 9855.0, 9851.0, 9868.0, 9861.0, 9851.0, 9834.0, 9830.0, 9838.0, 9861.0, 9873.0, 9870.0, 9851.0, 9852.0, 9830.0, 9835.0, 9845.0, 9857.0, 9867.0, 9875.0, 9873.0, 9848.0, 9844.0, 9845.0, 9872.0, 9885.0, 9876.0, 9842.0, 9835.0, 9827.0, 9837.0, 9845.0, 9846.0, 9847.0, 9840.0, 9847.0, 9841.0, 9840.0, 9846.0, 9848.0, 9855.0, 9854.0, 9848.0, 9845.0, 9846.0, 9849.0, 9853.0, 9849.0, 9840.0, 9837.0, 9840.0, 9855.0, 9860.0, 9857.0, 9849.0, 9840.0, 9831.0, 9836.0, 9839.0, 9849.0, 9866.0, 9868.0, 9866.0, 9850.0, 9847.0, 9842.0, 9838.0, 9830.0, 9827.0, 9829.0, 9837.0, 9853.0, 9864.0, 9865.0, 9856.0, 9855.0, 9849.0, 9845.0, 9839.0],
      "WindowWidth": [21075.0, 20956.0, 20873.0, 20837.0, 20859.0, 20884.0, 20868.0, 20846.0, 20864.0, 20891.0, 20914.0, 20900.0, 20891.0, 20872.0, 20879.0, 20878.0, 20902.0, 20924.0, 20925.0, 20914.0, 20897.0, 20887.0, 20894.0, 20890.0, 20873.0, 20864.0, 20884.0, 20909.0, 20931.0, 20931.0, 20913.0, 20892.0, 20867.0, 20854.0, 20886.0, 20916.0, 20934.0, 20935.0, 20922.0, 20911.0, 20891.0, 20872.0, 20869.0, 20861.0, 20875.0, 20863.0, 20863.0, 20852.0, 20832.0, 20819.0, 20838.0, 20849.0, 20868.0, 20874.0, 20879.0, 20890.0, 20913.0, 20902.0, 20891.0, 20902.0, 20906.0, 20901.0, 20911.0, 20889.0, 20869.0, 20852.0, 20853.0, 20875.0, 20885.0, 20896.0, 20907.0, 20901.0, 20880.0, 20864.0, 20891.0, 20916.0, 20949.0, 20923.0, 20903.0, 20884.0, 20881.0, 20886.0, 20889.0, 20904.0, 20894.0, 20860.0, 20836.0, 20821.0, 20824.0, 20857.0, 20864.0, 20872.0, 20867.0, 20859.0, 20831.0, 20819.0, 20813.0, 20848.0, 20860.0, 20858.0, 20842.0, 20835.0, 20851.0, 20868.0, 20889.0, 20873.0, 20863.0, 20845.0, 20847.0, 20898.0, 20893.0, 20890.0, 20885.0, 20872.0, 20873.0, 20871.0, 20860.0, 20850.0, 20841.0, 20830.0, 20834.0, 20866.0, 20878.0, 20871.0, 20861.0, 20858.0, 20893.0, 20879.0, 20857.0, 20819.0, 20807.0, 20826.0, 20875.0, 20903.0, 20895.0, 20856.0, 20851.0, 20808.0, 20817.0, 20840.0, 20869.0, 20892.0, 20908.0, 20900.0, 20846.0, 20834.0, 20838.0, 20901.0, 20937.0, 20910.0, 20833.0, 20811.0, 20797.0, 20822.0, 20837.0, 20842.0, 20845.0, 20832.0, 20847.0, 20835.0, 20832.0, 20843.0, 20848.0, 20863.0, 20860.0, 20849.0, 20838.0, 20846.0, 20853.0, 20863.0, 20849.0, 20829.0, 20821.0, 20833.0, 20864.0, 20879.0, 20869.0, 20849.0, 20828.0, 20808.0, 20820.0, 20829.0, 20853.0, 20891.0, 20899.0, 20889.0, 20854.0, 20842.0, 20837.0, 20826.0, 20806.0, 20798.0, 20805.0, 20823.0, 20858.0, 20884.0, 20888.0, 20865.0, 20859.0, 20847.0, 20834.0, 20826.0]
    },
    "slices": {}
  }
}