{
  "AcquisitionMatrixPE": 104,
  "AcquisitionNumber": 1,
  "AcquisitionTime": "13:16:20.355000",
  "BandwidthPerPixelPhaseEncode": 17.17,
  "BaseResolution": 104,
  "BodyPartExamined": "BRAIN",
  "CoilString": "HC1-7;NC1_2",
  "ConsistencyInfo": "N4_VE11C_LATEST_20160120",
  "ConversionSoftware": "dcm2niix",
  "ConversionSoftwareVersion": "v1.0.20190720  (JP2:OpenJPEG) GCC7.3.0",
  "DerivedVendorReportedEchoSpacing": 0.000560011,
  "DeviceSerialNumber": "167006",
  "DwellTime": 2.1e-06,
  "EchoTime": 0.037,
  "EchoTrainLength": 104,
  "EffectiveEchoSpacing": 0.000560011,
  "FlipAngle": 52,
  "ImageComments": "Unaliased_MB4_PE3_LB",
  "ImageOrientationPatientDICOM": [0.999984, -0.00509563, 0.00230023, 0.00558505, 0.92908, -0.369838],
  "ImageType": [
    "ORIGINAL",
    "PRIMARY",
    "M",
    "MB",
    "ND",
    "MOSAIC"
],
  "ImagingFrequency": 123.259,
  "InPlanePhaseEncodingDirectionDICOM": "COL",
  "InstitutionAddress": "Chemin_Queen-Mary_4565_Montreal_District_CA_H3W_1W5",
  "InstitutionName": "IUGM",
  "InstitutionalDepartmentName": "Department",
  "MRAcquisitionType": "2D",
  "MagneticFieldStrength": 3,
  "Manufacturer": "Siemens",
  "ManufacturersModelName": "Prisma_fit",
  "Modality": "MR",
  "MultibandAccelerationFactor": 4,
  "PartialFourier": 1,
  "PatientPosition": "HFS",
  "PercentPhaseFOV": 100,
  "PhaseEncodingDirection": "j",
  "PhaseEncodingSteps": 104,
  "PhaseResolution": 1,
  "PixelBandwidth": 2290,
  "ProcedureStepDescription": "hcptrt_generic",
  "ProtocolName": "func_task-restingstate_run-1",
  "PulseSequenceDetails": "%CustomerSeq%_cmrr_mbep2d_bold",
  "ReceiveCoilActiveElements": "HC1-7;NC1,2",
  "ReceiveCoilName": "HeadNeck_64",
  "ReconMatrixPE": 104,
  "RepetitionTime": 1.49,
  "SAR": 0.0286006,
  "ScanOptions": "FS",
  "ScanningSequence": "EP",
  "SequenceName": "epfid2d1_104",
  "SequenceVariant": "SK_SS",
  "SeriesDescription": "func_task-restingstate_run-1",
  "SeriesNumber": 7,
  "ShimSetting": [626, -7155, -8822, 669, 42, 183, 16, -17],
  "SliceThickness": 2,
  "SliceTiming": [0, 0.7825, 0.0975, 0.88, 0.195, 0.98, 0.2925, 1.0775, 0.39, 1.175, 0.49, 1.2725, 0.5875, 1.37, 0.685, 0, 0.7825, 0.0975, 0.88, 0.195, 0.98, 0.2925, 1.0775, 0.39, 1.175, 0.49, 1.2725, 0.5875, 1.37, 0.685, 0, 0.7825, 0.0975, 0.88, 0.195, 0.98, 0.2925, 1.0775, 0.39, 1.175, 0.49, 1.2725, 0.5875, 1.37, 0.685, 0, 0.7825, 0.0975, 0.88, 0.195, 0.98, 0.2925, 1.0775, 0.39, 1.175, 0.49, 1.2725, 0.5875, 1.37, 0.685],
  "SoftwareVersions": "syngo_MR_E11",
  "SpacingBetweenSlices": 2,
  "StationName": "MRC35049",
  "TaskName": "restingstate",
  "TotalReadoutTime": 0.0576811,
  "TxRefAmp": 208.787,
  "WipMemBlock": "252deb7b-1170-403c-a6f4-8c9a2a39e704||Sequence: R016 ve11c/master r/e634e98; Dec 19 2017 11:00:25 by eja",
  "dcmmeta_affine": [
    [-1.9999687671661377, 0.011170090176165104, 0.0005050902254879475, 108.5717544555664],
    [0.010191258043050766, 1.8581593036651611, -0.7396891713142395, -66.57524108886719],
    [0.0046004666946828365, 0.7396750450134277, 1.858187198638916, -70.93624114990234],
    [0.0, 0.0, 0.0, 1.0]
],
  "dcmmeta_reorient_transform": [
    [0.0, -1.0, 0.0, 103.0],
    [1.0, 0.0, 0.0, 0.0],
    [0.0, 0.0, 1.0, 0.0],
    [0.0, 0.0, 0.0, 1.0]
],
  "dcmmeta_shape": [104, 104, 60, 600],
  "dcmmeta_slice_dim": 2,
  "dcmmeta_version": 0.6,
  "global": {
    "const": {
      "AcquisitionMatrix": [104, 0, 0, 104],
      "AngioFlag": "N",
      "BitsAllocated": 16,
      "BitsStored": 16,
      "BodyPartExamined": "BRAIN",
      "Columns": 832,
      "EchoNumbers": 1,
      "EchoTime": 37.0,
      "EchoTrainLength": 104,
      "FlipAngle": 52.0,
      "HighBit": 15,
      "ImageOrientationPatient": [0.99998437162351, -0.0050956290302, 0.00230023336049, 0.00558504518174, 0.92907965449753, -0.3698375357763],
      "ImagePositionPatient": [-841.77680545259, -797.47553629151, 272.8174485738],
      "ImageType": [
        "ORIGINAL",
        "PRIMARY",
        "M",
        "MB",
        "ND",
        "MOSAIC"
],
      "ImagedNucleus": "1H",
      "ImagingFrequency": 123.259264,
      "InPlanePhaseEncodingDirection": "COL",
      "MRAcquisitionType": "2D",
      "MagneticFieldStrength": 3.0,
      "Manufacturer": "SIEMENS",
      "ManufacturerModelName": "Prisma_fit",
      "Modality": "MR",
      "NumberOfAverages": 1.0,
      "NumberOfPhaseEncodingSteps": 104,
      "PercentPhaseFieldOfView": 100.0,
      "PercentSampling": 100.0,
      "PerformedProcedureStepStartTime": "130627.797000",
      "PhotometricInterpretation": "MONOCHROME2",
      "PixelBandwidth": 2290.0,
      "PixelRepresentation": 0,
      "PixelSpacing": [2.0, 2.0],
      "ProtocolName": "func_task-restingstate_run-1",
      "RepetitionTime": 1490.0,
      "Rows": 832,
      "SAR": 0.02860058638362,
      "SamplesPerPixel": 1,
      "ScanOptions": "FS",
      "ScanningSequence": "EP",
      "SequenceName": "epfid2d1_104",
      "SequenceVariant": [
        "SK",
        "SS"
],
      "SeriesDescription": "func_task-restingstate_run-1",
      "SeriesNumber": 7,
      "SeriesTime": "131735.232000",
      "SliceLocation": -41.25649251744,
      "SliceThickness": 2.0,
      "SmallestImagePixelValue": 0,
      "SoftwareVersions": "syngo MR E11",
      "SpacingBetweenSlices": 1.9999999484078,
      "SpecificCharacterSet": "ISO_IR 100",
      "StudyID": "1",
      "StudyTime": "130627.725000",
      "TransmitCoilName": "Body",
      "VariableFlipAngleFlag": "N",
      "WindowCenterWidthExplanation": "Algo1",
      "dBdt": 0.0},
    "slices": {}
  },
  "time": {
    "samples": {
      "AcquisitionNumber": [1, 2, 3, 4, 5, 6, 7, 8, 9, 10, 11, 12, 13, 14, 15, 16, 17, 18, 19, 20, 21, 22, 23, 24, 25, 26, 27, 28, 29, 30, 31, 32, 33, 34, 35, 36, 37, 38, 39, 40, 41, 42, 43, 44, 45, 46, 47, 48, 49, 50, 51, 52, 53, 54, 55, 56, 57, 58, 59, 60, 61, 62, 63, 64, 65, 66, 67, 68, 69, 70, 71, 72, 73, 74, 75, 76, 77, 78, 79, 80, 81, 82, 83, 84, 85, 86, 87, 88, 89, 90, 91, 92, 93, 94, 95, 96, 97, 98, 99, 100, 101, 102, 103, 104, 105, 106, 107, 108, 109, 110, 111, 112, 113, 114, 115, 116, 117, 118, 119, 120, 121, 122, 123, 124, 125, 126, 127, 128, 129, 130, 131, 132, 133, 134, 135, 136, 137, 138, 139, 140, 141, 142, 143, 144, 145, 146, 147, 148, 149, 150, 151, 152, 153, 154, 155, 156, 157, 158, 159, 160, 161, 162, 163, 164, 165, 166, 167, 168, 169, 170, 171, 172, 173, 174, 175, 176, 177, 178, 179, 180, 181, 182, 183, 184, 185, 186, 187, 188, 189, 190, 191, 192, 193, 194, 195, 196, 197, 198, 199, 200, 201, 202, 203, 204, 205, 206, 207, 208, 209, 210, 211, 212, 213, 214, 215, 216, 217, 218, 219, 220, 221, 222, 223, 224, 225, 226, 227, 228, 229, 230, 231, 232, 233, 234, 235, 236, 237, 238, 239, 240, 241, 242, 243, 244, 245, 246, 247, 248, 249, 250, 251, 252, 253, 254, 255, 256, 257, 258, 259, 260, 261, 262, 263, 264, 265, 266, 267, 268, 269, 270, 271, 272, 273, 274, 275, 276, 277, 278, 279, 280, 281, 282, 283, 284, 285, 286, 287, 288, 289, 290, 291, 292, 293, 294, 295, 296, 297, 298, 299, 300, 301, 302, 303, 304, 305, 306, 307, 308, 309, 310, 311, 312, 313, 314, 315, 316, 317, 318, 319, 320, 321, 322, 323, 324, 325, 326, 327, 328, 329, 330, 331, 332, 333, 334, 335, 336, 337, 338, 339, 340, 341, 342, 343, 344, 345, 346, 347, 348, 349, 350, 351, 352, 353, 354, 355, 356, 357, 358, 359, 360, 361, 362, 363, 364, 365, 366, 367, 368, 369, 370, 371, 372, 373, 374, 375, 376, 377, 378, 379, 380, 381, 382, 383, 384, 385, 386, 387, 388, 389, 390, 391, 392, 393, 394, 395, 396, 397, 398, 399, 400, 401, 402, 403, 404, 405, 406, 407, 408, 409, 410, 411, 412, 413, 414, 415, 416, 417, 418, 419, 420, 421, 422, 423, 424, 425, 426, 427, 428, 429, 430, 431, 432, 433, 434, 435, 436, 437, 438, 439, 440, 441, 442, 443, 444, 445, 446, 447, 448, 449, 450, 451, 452, 453, 454, 455, 456, 457, 458, 459, 460, 461, 462, 463, 464, 465, 466, 467, 468, 469, 470, 471, 472, 473, 474, 475, 476, 477, 478, 479, 480, 481, 482, 483, 484, 485, 486, 487, 488, 489, 490, 491, 492, 493, 494, 495, 496, 497, 498, 499, 500, 501, 502, 503, 504, 505, 506, 507, 508, 509, 510, 511, 512, 513, 514, 515, 516, 517, 518, 519, 520, 521, 522, 523, 524, 525, 526, 527, 528, 529, 530, 531, 532, 533, 534, 535, 536, 537, 538, 539, 540, 541, 542, 543, 544, 545, 546, 547, 548, 549, 550, 551, 552, 553, 554, 555, 556, 557, 558, 559, 560, 561, 562, 563, 564, 565, 566, 567, 568, 569, 570, 571, 572, 573, 574, 575, 576, 577, 578, 579, 580, 581, 582, 583, 584, 585, 586, 587, 588, 589, 590, 591, 592, 593, 594, 595, 596, 597, 598, 599, 600],
      "AcquisitionTime": ["131620.355000", "131621.845000", "131623.335000", "131624.825000", "131626.315000", "131627.805000", "131629.295000", "131630.785000", "131632.275000", "131633.765000", "131635.255000", "131636.745000", "131638.235000", "131639.725000", "131641.215000", "131642.705000", "131644.195000", "131645.685000", "131647.175000", "131648.665000", "131650.155000", "131651.645000", "131653.135000", "131654.625000", "131656.115000", "131657.605000", "131659.095000", "131700.585000", "131702.075000", "131703.565000", "131705.055000", "131706.545000", "131708.035000", "131709.525000", "131711.015000", "131712.505000", "131713.995000", "131715.485000", "131716.975000", "131718.465000", "131719.955000", "131721.445000", "131722.935000", "131724.425000", "131725.915000", "131727.405000", "131728.895000", "131730.385000", "131731.875000", "131733.365000", "131734.855000", "131736.345000", "131737.835000", "131739.325000", "131740.815000", "131742.305000", "131743.795000", "131745.285000", "131746.775000", "131748.265000", "131749.755000", "131751.245000", "131752.735000", "131754.225000", "131755.715000", "131757.205000", "131758.695000", "131800.185000", "131801.675000", "131803.165000", "131804.655000", "131806.145000", "131807.635000", "131809.125000", "131810.615000", "131812.105000", "131813.595000", "131815.085000", "131816.575000", "131818.065000", "131819.555000", "131821.045000", "131822.535000", "131824.025000", "131825.515000", "131827.005000", "131828.495000", "131829.985000", "131831.475000", "131832.965000", "131834.455000", "131835.945000", "131837.435000", "131838.925000", "131840.415000", "131841.905000", "131843.395000", "131844.885000", "131846.375000", "131847.865000", "131849.355000", "131850.845000", "131852.335000", "131853.825000", "131855.315000", "131856.805000", "131858.295000", "131859.785000", "131901.275000", "131902.765000", "131904.255000", "131905.745000", "131907.235000", "131908.725000", "131910.215000", "131911.705000", "131913.195000", "131914.685000", "131916.175000", "131917.665000", "131919.155000", "131920.645000", "131922.135000", "131923.625000", "131925.115000", "131926.605000", "131928.095000", "131929.585000", "131931.075000", "131932.565000", "131934.055000", "131935.545000", "131937.035000", "131938.525000", "131940.015000", "131941.505000", "131942.995000", "131944.485000", "131945.975000", "131947.465000", "131948.955000", "131950.445000", "131951.935000", "131953.425000", "131954.915000", "131956.405000", "131957.895000", "131959.385000", "132000.875000", "132002.365000", "132003.855000", "132005.345000", "132006.835000", "132008.325000", "132009.815000", "132011.305000", "132012.795000", "132014.285000", "132015.775000", "132017.265000", "132018.755000", "132020.245000", "132021.735000", "132023.225000", "132024.715000", "132026.205000", "132027.695000", "132029.185000", "132030.675000", "132032.165000", "132033.655000", "132035.145000", "132036.635000", "132038.125000", "132039.615000", "132041.105000", "132042.595000", "132044.085000", "132045.575000", "132047.065000", "132048.555000", "132050.045000", "132051.535000", "132053.025000", "132054.515000", "132056.005000", "132057.495000", "132058.985000", "132100.475000", "132101.965000", "132103.455000", "132104.945000", "132106.435000", "132107.925000", "132109.415000", "132110.905000", "132112.395000", "132113.885000", "132115.375000", "132116.865000", "132118.355000", "132119.845000", "132121.335000", "132122.825000", "132124.315000", "132125.805000", "132127.295000", "132128.785000", "132130.275000", "132131.765000", "132133.255000", "132134.745000", "132136.235000", "132137.725000", "132139.215000", "132140.705000", "132142.195000", "132143.685000", "132145.175000", "132146.665000", "132148.155000", "132149.645000", "132151.135000", "132152.625000", "132154.115000", "132155.605000", "132157.095000", "132158.585000", "132200.075000", "132201.565000", "132203.055000", "132204.545000", "132206.035000", "132207.525000", "132209.015000", "132210.505000", "132211.995000", "132213.485000", "132214.975000", "132216.465000", "132217.955000", "132219.445000", "132220.935000", "132222.425000", "132223.915000", "132225.405000", "132226.895000", "132228.385000", "132229.875000", "132231.365000", "132232.855000", "132234.345000", "132235.835000", "132237.325000", "132238.815000", "132240.305000", "132241.795000", "132243.285000", "132244.775000", "132246.265000", "132247.755000", "132249.245000", "132250.735000", "132252.225000", "132253.715000", "132255.205000", "132256.695000", "132258.185000", "132259.675000", "132301.165000", "132302.655000", "132304.145000", "132305.635000", "132307.125000", "132308.615000", "132310.105000", "132311.595000", "132313.085000", "132314.575000", "132316.065000", "132317.555000", "132319.045000", "132320.535000", "132322.025000", "132323.515000", "132325.005000", "132326.495000", "132327.985000", "132329.475000", "132330.965000", "132332.455000", "132333.945000", "132335.435000", "132336.925000", "132338.415000", "132339.905000", "132341.395000", "132342.885000", "132344.375000", "132345.865000", "132347.355000", "132348.845000", "132350.335000", "132351.825000", "132353.315000", "132354.805000", "132356.295000", "132357.785000", "132359.275000", "132400.765000", "132402.255000", "132403.745000", "132405.235000", "132406.725000", "132408.215000", "132409.705000", "132411.195000", "132412.685000", "132414.175000", "132415.665000", "132417.155000", "132418.645000", "132420.135000", "132421.625000", "132423.115000", "132424.605000", "132426.095000", "132427.585000", "132429.075000", "132430.565000", "132432.055000", "132433.545000", "132435.035000", "132436.525000", "132438.015000", "132439.505000", "132440.995000", "132442.485000", "132443.975000", "132445.465000", "132446.955000", "132448.445000", "132449.935000", "132451.425000", "132452.915000", "132454.405000", "132455.895000", "132457.385000", "132458.875000", "132500.365000", "132501.855000", "132503.345000", "132504.835000", "132506.325000", "132507.815000", "132509.305000", "132510.795000", "132512.285000", "132513.775000", "132515.265000", "132516.755000", "132518.245000", "132519.735000", "132521.225000", "132522.715000", "132524.205000", "132525.695000", "132527.185000", "132528.675000", "132530.165000", "132531.655000", "132533.145000", "132534.635000", "132536.125000", "132537.615000", "132539.105000", "132540.595000", "132542.085000", "132543.575000", "132545.065000", "132546.555000", "132548.045000", "132549.535000", "132551.025000", "132552.515000", "132554.005000", "132555.495000", "132556.985000", "132558.475000", "132559.965000", "132601.455000", "132602.945000", "132604.435000", "132605.925000", "132607.415000", "132608.905000", "132610.395000", "132611.885000", "132613.375000", "132614.865000", "132616.355000", "132617.845000", "132619.335000", "132620.825000", "132622.315000", "132623.805000", "132625.295000", "132626.785000", "132628.275000", "132629.765000", "132631.255000", "132632.745000", "132634.235000", "132635.725000", "132637.215000", "132638.705000", "132640.195000", "132641.685000", "132643.175000", "132644.665000", "132646.155000", "132647.645000", "132649.135000", "132650.625000", "132652.115000", "132653.605000", "132655.095000", "132656.585000", "132658.075000", "132659.565000", "132701.055000", "132702.545000", "132704.035000", "132705.525000", "132707.015000", "132708.505000", "132709.995000", "132711.485000", "132712.975000", "132714.465000", "132715.955000", "132717.445000", "132718.935000", "132720.425000", "132721.915000", "132723.405000", "132724.895000", "132726.385000", "132727.875000", "132729.365000", "132730.855000", "132732.345000", "132733.835000", "132735.325000", "132736.815000", "132738.305000", "132739.795000", "132741.285000", "132742.775000", "132744.265000", "132745.755000", "132747.245000", "132748.735000", "132750.225000", "132751.715000", "132753.205000", "132754.695000", "132756.185000", "132757.675000", "132759.165000", "132800.655000", "132802.145000", "132803.635000", "132805.125000", "132806.615000", "132808.105000", "132809.595000", "132811.085000", "132812.575000", "132814.065000", "132815.555000", "132817.045000", "132818.535000", "132820.025000", "132821.515000", "132823.005000", "132824.495000", "132825.985000", "132827.475000", "132828.965000", "132830.455000", "132831.945000", "132833.435000", "132834.925000", "132836.415000", "132837.905000", "132839.395000", "132840.885000", "132842.375000", "132843.865000", "132845.355000", "132846.845000", "132848.335000", "132849.825000", "132851.315000", "132852.805000", "132854.295000", "132855.785000", "132857.275000", "132858.765000", "132900.255000", "132901.745000", "132903.235000", "132904.725000", "132906.215000", "132907.705000", "132909.195000", "132910.685000", "132912.175000", "132913.665000", "132915.155000", "132916.645000", "132918.135000", "132919.625000", "132921.115000", "132922.605000", "132924.095000", "132925.585000", "132927.075000", "132928.565000", "132930.055000", "132931.545000", "132933.035000", "132934.525000", "132936.015000", "132937.505000", "132938.995000", "132940.485000", "132941.975000", "132943.465000", "132944.955000", "132946.445000", "132947.935000", "132949.425000", "132950.915000", "132952.405000", "132953.895000", "132955.385000", "132956.875000", "132958.365000", "132959.855000", "133001.345000", "133002.835000", "133004.325000", "133005.815000", "133007.305000", "133008.795000", "133010.285000", "133011.775000", "133013.265000", "133014.755000", "133016.245000", "133017.735000", "133019.225000", "133020.715000", "133022.205000", "133023.695000", "133025.185000", "133026.675000", "133028.165000", "133029.655000", "133031.145000", "133032.635000", "133034.125000", "133035.615000", "133037.105000", "133038.595000", "133040.085000", "133041.575000", "133043.065000", "133044.555000", "133046.045000", "133047.535000", "133049.025000", "133050.515000", "133052.005000", "133053.495000", "133054.985000", "133056.475000", "133057.965000", "133059.455000", "133100.945000", "133102.435000", "133103.925000", "133105.415000", "133106.905000", "133108.395000", "133109.885000", "133111.375000", "133112.865000"],
      "ContentTime": ["131735.235000", "131735.238000", "131735.241000", "131735.244000", "131735.247000", "131735.251000", "131735.253000", "131735.257000", "131735.260000", "131735.263000", "131735.266000", "131735.269000", "131735.272000", "131735.278000", "131735.281000", "131735.284000", "131735.287000", "131735.290000", "131735.293000", "131735.298000", "131735.301000", "131815.190000", "131815.193000", "131815.196000", "131815.199000", "131815.202000", "131815.205000", "131815.208000", "131815.211000", "131815.214000", "131815.217000", "131815.220000", "131815.223000", "131815.226000", "131815.229000", "131815.237000", "131815.240000", "131815.243000", "131815.246000", "131815.249000", "131815.252000", "131815.255000", "131815.258000", "131815.261000", "131815.264000", "131815.267000", "131815.270000", "131815.280000", "131815.283000", "131815.286000", "131815.289000", "131815.292000", "131815.295000", "131815.298000", "131815.301000", "131815.304000", "131815.307000", "131815.310000", "131815.313000", "131815.316000", "131815.319000", "131835.190000", "131835.193000", "131835.196000", "131835.199000", "131835.202000", "131835.205000", "131835.208000", "131835.211000", "131835.214000", "131835.217000", "131835.220000", "131835.223000", "131835.226000", "131835.229000", "131835.239000", "131835.242000", "131835.245000", "131835.248000", "131835.251000", "131835.254000", "131855.190000", "131855.193000", "131855.196000", "131855.199000", "131855.202000", "131855.205000", "131855.208000", "131855.211000", "131855.214000", "131855.217000", "131855.220000", "131855.223000", "131855.226000", "131855.230000", "131855.233000", "131855.236000", "131855.239000", "131855.242000", "131855.245000", "131855.248000", "131935.191000", "131935.194000", "131935.197000", "131935.200000", "131935.203000", "131935.206000", "131935.209000", "131935.212000", "131935.215000", "131935.218000", "131935.221000", "131935.223000", "131935.226000", "131935.229000", "131935.232000", "131935.235000", "131935.238000", "131935.241000", "131935.244000", "131935.247000", "131935.250000", "131935.253000", "131935.256000", "131935.259000", "131935.262000", "131935.265000", "131935.268000", "131935.271000", "131935.274000", "132015.191000", "132015.194000", "132015.197000", "132015.200000", "132015.203000", "132015.206000", "132015.209000", "132015.212000", "132015.215000", "132015.218000", "132015.221000", "132015.224000", "132015.227000", "132015.230000", "132015.233000", "132015.236000", "132015.239000", "132015.242000", "132015.245000", "132015.253000", "132015.256000", "132015.265000", "132015.267000", "132015.270000", "132015.273000", "132015.282000", "132015.285000", "132055.190000", "132055.193000", "132055.196000", "132055.200000", "132055.203000", "132055.206000", "132055.209000", "132055.213000", "132055.216000", "132055.218000", "132055.221000", "132055.225000", "132055.241000", "132055.244000", "132055.258000", "132055.261000", "132055.264000", "132055.267000", "132055.270000", "132055.273000", "132055.276000", "132055.279000", "132055.281000", "132055.284000", "132055.287000", "132055.290000", "132055.293000", "132135.191000", "132135.194000", "132135.207000", "132135.210000", "132135.213000", "132135.216000", "132135.219000", "132135.222000", "132135.225000", "132135.228000", "132135.231000", "132135.234000", "132135.237000", "132135.240000", "132135.243000", "132135.246000", "132135.249000", "132135.252000", "132135.254000", "132135.257000", "132135.260000", "132135.263000", "132135.266000", "132135.269000", "132135.272000", "132135.275000", "132135.278000", "132215.191000", "132215.194000", "132215.197000", "132215.200000", "132215.203000", "132215.206000", "132215.209000", "132215.213000", "132215.216000", "132215.219000", "132215.222000", "132215.225000", "132215.228000", "132215.231000", "132215.234000", "132215.237000", "132215.240000", "132215.243000", "132215.246000", "132215.249000", "132215.252000", "132215.255000", "132215.258000", "132215.261000", "132215.264000", "132215.267000", "132255.190000", "132255.193000", "132255.196000", "132255.199000", "132255.202000", "132255.205000", "132255.208000", "132255.215000", "132255.218000", "132255.221000", "132255.224000", "132255.227000", "132255.230000", "132255.233000", "132255.236000", "132255.239000", "132255.242000", "132255.245000", "132255.248000", "132255.251000", "132255.254000", "132255.257000", "132255.260000", "132255.263000", "132255.266000", "132255.269000", "132255.272000", "132335.235000", "132335.239000", "132335.242000", "132335.246000", "132335.250000", "132335.253000", "132335.257000", "132335.260000", "132335.264000", "132335.267000", "132335.274000", "132335.278000", "132335.283000", "132335.287000", "132335.291000", "132335.295000", "132335.299000", "132335.302000", "132335.306000", "132335.310000", "132335.314000", "132335.317000", "132335.321000", "132335.324000", "132335.327000", "132335.330000", "132335.333000", "132415.191000", "132415.194000", "132415.203000", "132415.206000", "132415.209000", "132415.212000", "132415.215000", "132415.218000", "132415.221000", "132415.224000", "132415.227000", "132415.230000", "132415.233000", "132415.236000", "132415.239000", "132415.242000", "132415.245000", "132415.248000", "132415.251000", "132415.254000", "132415.257000", "132415.260000", "132415.263000", "132415.266000", "132415.269000", "132415.272000", "132415.275000", "132455.191000", "132455.211000", "132455.214000", "132455.223000", "132455.226000", "132455.229000", "132455.232000", "132455.235000", "132455.238000", "132455.241000", "132455.244000", "132455.247000", "132455.251000", "132455.254000", "132455.258000", "132455.261000", "132455.264000", "132455.267000", "132455.270000", "132455.273000", "132455.276000", "132455.279000", "132455.282000", "132455.285000", "132455.288000", "132455.291000", "132455.294000", "132535.190000", "132535.194000", "132535.197000", "132535.200000", "132535.202000", "132535.205000", "132535.208000", "132535.212000", "132535.215000", "132535.218000", "132535.221000", "132535.223000", "132535.226000", "132535.229000", "132535.232000", "132535.235000", "132535.238000", "132535.241000", "132535.244000", "132535.247000", "132535.262000", "132535.277000", "132535.280000", "132535.283000", "132535.286000", "132535.288000", "132535.291000", "132615.191000", "132615.194000", "132615.197000", "132615.200000", "132615.203000", "132615.206000", "132615.209000", "132615.212000", "132615.216000", "132615.219000", "132615.223000", "132615.226000", "132615.239000", "132615.242000", "132615.244000", "132615.265000", "132615.268000", "132615.271000", "132615.274000", "132615.283000", "132615.286000", "132615.288000", "132615.291000", "132615.294000", "132615.297000", "132615.300000", "132655.191000", "132655.194000", "132655.197000", "132655.200000", "132655.203000", "132655.206000", "132655.209000", "132655.212000", "132655.215000", "132655.218000", "132655.221000", "132655.224000", "132655.227000", "132655.230000", "132655.233000", "132655.236000", "132655.239000", "132655.242000", "132655.245000", "132655.248000", "132655.251000", "132655.254000", "132655.257000", "132655.260000", "132655.263000", "132655.266000", "132655.269000", "132735.190000", "132735.200000", "132735.203000", "132735.206000", "132735.208000", "132735.211000", "132735.214000", "132735.217000", "132735.220000", "132735.223000", "132735.226000", "132735.235000", "132735.238000", "132735.241000", "132735.244000", "132735.247000", "132735.250000", "132735.253000", "132735.256000", "132735.259000", "132735.262000", "132735.265000", "132735.268000", "132735.271000", "132735.274000", "132735.277000", "132735.280000", "132815.191000", "132815.199000", "132815.202000", "132815.204000", "132815.207000", "132815.211000", "132815.214000", "132815.216000", "132815.219000", "132815.222000", "132815.225000", "132815.228000", "132815.231000", "132815.234000", "132815.237000", "132815.240000", "132815.243000", "132815.246000", "132815.249000", "132815.252000", "132815.255000", "132815.258000", "132815.261000", "132815.264000", "132815.267000", "132815.270000", "132815.273000", "132855.191000", "132855.194000", "132855.197000", "132855.200000", "132855.203000", "132855.206000", "132855.218000", "132855.220000", "132855.223000", "132855.226000", "132855.229000", "132855.232000", "132855.235000", "132855.238000", "132855.241000", "132855.244000", "132855.247000", "132855.250000", "132855.253000", "132855.256000", "132855.259000", "132855.262000", "132855.265000", "132855.268000", "132855.271000", "132855.274000", "132855.276000", "132935.191000", "132935.194000", "132935.197000", "132935.200000", "132935.203000", "132935.206000", "132935.209000", "132935.212000", "132935.215000", "132935.218000", "132935.221000", "132935.224000", "132935.227000", "132935.230000", "132935.233000", "132935.235000", "132935.238000", "132935.241000", "132935.244000", "132935.247000", "132935.250000", "132935.253000", "132935.256000", "132935.259000", "132935.262000", "132935.265000", "132935.268000", "133015.190000", "133015.193000", "133015.196000", "133015.213000", "133015.216000", "133015.219000", "133015.222000", "133015.225000", "133015.228000", "133015.231000", "133015.234000", "133015.237000", "133015.240000", "133015.243000", "133015.246000", "133015.249000", "133015.252000", "133015.255000", "133015.258000", "133015.261000", "133015.264000", "133015.267000", "133015.270000", "133015.273000", "133015.276000", "133015.278000", "133015.281000", "133055.191000", "133055.194000", "133055.197000", "133055.200000", "133055.203000", "133055.206000", "133055.209000", "133055.212000", "133055.216000", "133055.219000", "133055.222000", "133055.225000", "133055.228000", "133055.231000", "133055.234000", "133055.237000", "133055.240000", "133055.243000", "133055.245000", "133055.248000", "133055.251000", "133055.254000", "133055.257000", "133055.260000", "133055.263000", "133055.266000", "133114.771000", "133114.774000", "133114.777000", "133114.780000", "133114.789000", "133114.792000", "133114.795000", "133114.798000", "133114.801000", "133114.804000", "133114.807000", "133114.810000", "133114.813000", "133114.816000"],
