{
  "AcquisitionMatrixPE": 104,
  "AcquisitionNumber": 1,
  "AcquisitionTime": "13:27:27.297500",
  "BandwidthPerPixelPhaseEncode": 17.17,
  "BaseResolution": 104,
  "BodyPartExamined": "BRAIN",
  "CoilString": "HC1-7;NC1_2",
  "ConsistencyInfo": "N4_VE11C_LATEST_20160120",
  "ConversionSoftware": "dcm2niix",
  "ConversionSoftwareVersion": "v1.0.20190720  (JP2:OpenJPEG) GCC7.3.0",
  "DerivedVendorReportedEchoSpacing": 0.000560011,
  "DeviceSerialNumber": "167006",
  "DwellTime": 2.1e-06,
  "EchoTime": 0.037,
  "EchoTrainLength": 104,
  "EffectiveEchoSpacing": 0.000560011,
  "FlipAngle": 52,
  "ImageComments": "Unaliased_MB4_PE3_LB",
  "ImageOrientationPatientDICOM": [0.999578, -0.0206751, 0.0203866, 0.0279207, 0.877132, -0.479438],
  "ImageType": [
    "ORIGINAL",
    "PRIMARY",
    "M",
    "MB",
    "ND",
    "MOSAIC"
],
  "ImagingFrequency": 123.259,
  "InPlanePhaseEncodingDirectionDICOM": "COL",
  "InstitutionAddress": "Chemin_Queen-Mary_4565_Montreal_District_CA_H3W_1W5",
  "InstitutionName": "IUGM",
  "InstitutionalDepartmentName": "Department",
  "MRAcquisitionType": "2D",
  "MagneticFieldStrength": 3,
  "Manufacturer": "Siemens",
  "ManufacturersModelName": "Prisma_fit",
  "Modality": "MR",
  "MultibandAccelerationFactor": 4,
  "PartialFourier": 1,
  "PatientPosition": "HFS",
  "PercentPhaseFOV": 100,
  "PhaseEncodingDirection": "j",
  "PhaseEncodingSteps": 104,
  "PhaseResolution": 1,
  "PixelBandwidth": 2290,
  "ProcedureStepDescription": "hcptrt_generic",
  "ProtocolName": "func_task-relational_run-1",
  "PulseSequenceDetails": "%CustomerSeq%_cmrr_mbep2d_bold",
  "ReceiveCoilActiveElements": "HC1-7;NC1,2",
  "ReceiveCoilName": "HeadNeck_64",
  "ReconMatrixPE": 104,
  "RepetitionTime": 1.49,
  "SAR": 0.0391383,
  "ScanOptions": "FS",
  "ScanningSequence": "EP",
  "SequenceName": "epfid2d1_104",
  "SequenceVariant": "SK_SS",
  "SeriesDescription": "func_task-relational_run-1",
  "SeriesNumber": 9,
  "ShimSetting": [621, -7200, -8865, 424, -12, -192, 18, -33],
  "SliceThickness": 2,
  "SliceTiming": [0, 0.785, 0.1, 0.8825, 0.1975, 0.98, 0.295, 1.08, 0.3925, 1.1775, 0.49, 1.275, 0.59, 1.3725, 0.6875, 0, 0.785, 0.1, 0.8825, 0.1975, 0.98, 0.295, 1.08, 0.3925, 1.1775, 0.49, 1.275, 0.59, 1.3725, 0.6875, 0, 0.785, 0.1, 0.8825, 0.1975, 0.98, 0.295, 1.08, 0.3925, 1.1775, 0.49, 1.275, 0.59, 1.3725, 0.6875, 0, 0.785, 0.1, 0.8825, 0.1975, 0.98, 0.295, 1.08, 0.3925, 1.1775, 0.49, 1.275, 0.59, 1.3725, 0.6875],
  "SoftwareVersions": "syngo_MR_E11",
  "SpacingBetweenSlices": 2,
  "StationName": "MRC35049",
  "TaskName": "relational",
  "TotalReadoutTime": 0.0576811,
  "TxRefAmp": 252.119,
  "WipMemBlock": "a546f4db-7de1-4fc0-8016-7acb9c7d815a||Sequence: R016 ve11c/master r/e634e98; Dec 19 2017 11:00:25 by eja",
  "dcmmeta_affine": [
    [-1.9991567134857178, 0.05584142357110977, 0.01593863032758236, 98.97215270996094],
    [0.04135027527809143, 1.7542630434036255, -0.959609866142273, -62.65718078613281],
    [0.04077326878905296, 0.9588757753372192, 1.7546780109405518, -96.01033020019531],
    [0.0, 0.0, 0.0, 1.0]
],
  "dcmmeta_reorient_transform": [
    [0.0, -1.0, 0.0, 103.0],
    [1.0, 0.0, 0.0, 0.0],
    [0.0, 0.0, 1.0, 0.0],
    [0.0, 0.0, 0.0, 1.0]
],
  "dcmmeta_shape": [104, 104, 60, 119],
  "dcmmeta_slice_dim": 2,
  "dcmmeta_version": 0.6,
  "global": {
    "const": {
      "AcquisitionMatrix": [104, 0, 0, 104],
      "AngioFlag": "N",
      "BitsAllocated": 16,
      "BitsStored": 16,
      "BodyPartExamined": "BRAIN",
      "Columns": 832,
      "EchoNumbers": 1,
      "EchoTime": 37.0,
      "EchoTrainLength": 104,
      "FlipAngle": 52.0,
      "HighBit": 15,
      "ImageOrientationPatient": [0.99957837303829, -0.0206751376279, 0.02038663381208, 0.02792071211718, 0.87713154725436, -0.4794378819472],
      "ImagePositionPatient": [-852.74315643854, -741.53218584266, 336.94318498775],
      "ImageType": [
        "ORIGINAL",
        "PRIMARY",
        "M",
        "MB",
        "ND",
        "MOSAIC"
],
      "ImagedNucleus": "1H",
      "ImagingFrequency": 123.259234,
      "InPlanePhaseEncodingDirection": "COL",
      "MRAcquisitionType": "2D",
      "MagneticFieldStrength": 3.0,
      "Manufacturer": "SIEMENS",
      "ManufacturerModelName": "Prisma_fit",
      "Modality": "MR",
      "NumberOfAverages": 1.0,
      "NumberOfPhaseEncodingSteps": 104,
      "PercentPhaseFieldOfView": 100.0,
      "PercentSampling": 100.0,
      "PerformedProcedureStepStartTime": "131454.296000",
      "PhotometricInterpretation": "MONOCHROME2",
      "PixelBandwidth": 2290.0,
      "PixelRepresentation": 0,
      "PixelSpacing": [2.0, 2.0],
      "ProtocolName": "func_task-relational_run-1",
      "RepetitionTime": 1490.0,
      "Rows": 832,
      "SAR": 0.03913830035008,
      "SamplesPerPixel": 1,
      "ScanOptions": "FS",
      "ScanningSequence": "EP",
      "SequenceName": "epfid2d1_104",
      "SequenceVariant": [
        "SK",
        "SS"
],
      "SeriesDescription": "func_task-relational_run-1",
      "SeriesNumber": 9,
      "SeriesTime": "132858.144000",
      "SliceLocation": -53.381638717215,
      "SliceThickness": 2.0,
      "SmallestImagePixelValue": 0,
      "SoftwareVersions": "syngo MR E11",
      "SpacingBetweenSlices": 1.9999999997571,
      "SpecificCharacterSet": "ISO_IR 100",
      "StudyID": "1",
      "StudyTime": "131454.208000",
      "TransmitCoilName": "Body",
      "VariableFlipAngleFlag": "N",
      "WindowCenterWidthExplanation": "Algo1",
      "dBdt": 0.0},
    "slices": {}
  },
  "time": {
    "samples": {
      "AcquisitionNumber": [1, 2, 3, 4, 5, 6, 7, 8, 9, 10, 11, 12, 13, 14, 15, 16, 17, 18, 19, 20, 21, 22, 23, 24, 25, 26, 27, 28, 29, 30, 31, 32, 33, 34, 35, 36, 37, 38, 39, 40, 41, 42, 43, 44, 45, 46, 47, 48, 49, 50, 51, 52, 53, 54, 55, 56, 57, 58, 59, 60, 61, 62, 63, 64, 65, 66, 67, 68, 69, 70, 71, 72, 73, 74, 75, 76, 77, 78, 79, 80, 81, 82, 83, 84, 85, 86, 87, 88, 89, 90, 91, 92, 93, 94, 95, 96, 97, 98, 99, 100, 101, 102, 103, 104, 105, 106, 107, 108, 109, 110, 111, 112, 113, 114, 115, 116, 117, 118, 119],
      "AcquisitionTime": ["132727.297500", "132728.787500", "132730.277500", "132731.767500", "132733.257500", "132734.747500", "132736.237500", "132737.727500", "132739.217500", "132740.707500", "132742.197500", "132743.687500", "132745.177500", "132746.667500", "132748.157500", "132749.647500", "132751.137500", "132752.627500", "132754.117500", "132755.607500", "132757.097500", "132758.587500", "132800.077500", "132801.567500", "132803.057500", "132804.547500", "132806.037500", "132807.527500", "132809.017500", "132810.507500", "132811.997500", "132813.487500", "132814.977500", "132816.467500", "132817.957500", "132819.447500", "132820.937500", "132822.427500", "132823.917500", "132825.407500", "132826.897500", "132828.387500", "132829.877500", "132831.367500", "132832.857500", "132834.347500", "132835.837500", "132837.327500", "132838.817500", "132840.307500", "132841.797500", "132843.287500", "132844.777500", "132846.267500", "132847.757500", "132849.247500", "132850.737500", "132852.227500", "132853.717500", "132855.207500", "132856.697500", "132858.187500", "132859.677500", "132901.167500", "132902.657500", "132904.147500", "132905.637500", "132907.127500", "132908.617500", "132910.107500", "132911.597500", "132913.087500", "132914.577500", "132916.067500", "132917.557500", "132919.047500", "132920.537500", "132922.027500", "132923.517500", "132925.007500", "132926.497500", "132927.987500", "132929.477500", "132930.967500", "132932.457500", "132933.947500", "132935.437500", "132936.927500", "132938.417500", "132939.907500", "132941.397500", "132942.887500", "132944.377500", "132945.867500", "132947.357500", "132948.847500", "132950.337500", "132951.827500", "132953.317500", "132954.807500", "132956.297500", "132957.787500", "132959.277500", "133000.767500", "133002.257500", "133003.747500", "133005.237500", "133006.727500", "133008.217500", "133009.707500", "133011.197500", "133012.687500", "133014.177500", "133015.667500", "133017.157500", "133018.647500", "133020.137500", "133021.627500", "133023.117500"],
      "ContentTime": ["132858.146000", "132858.150000", "132858.153000", "132858.156000", "132858.158000", "132858.161000", "132858.164000", "132858.167000", "132858.170000", "132858.178000", "132858.186000", "132858.189000", "132858.192000", "132858.195000", "132858.198000", "132858.201000", "132858.203000", "132858.213000", "132858.216000", "132858.219000", "132858.221000", "132858.224000", "132858.227000", "132858.230000", "132858.233000", "132858.236000", "132858.239000", "132858.242000", "132858.244000", "132858.247000", "132858.250000", "132858.253000", "132858.256000", "132858.259000", "132858.262000", "132858.265000", "132858.267000", "132918.107000", "132918.110000", "132918.113000", "132918.116000", "132918.119000", "132918.121000", "132918.124000", "132918.127000", "132918.130000", "132918.133000", "132918.136000", "132918.138000", "132918.141000", "132918.144000", "132918.147000", "132918.150000", "132918.153000", "132918.155000", "132918.158000", "132918.161000", "132938.106000", "132938.109000", "132938.112000", "132938.115000", "132938.118000", "132938.121000", "132938.123000", "132938.126000", "132938.129000", "132938.132000", "132938.135000", "132938.145000", "132938.148000", "132938.151000", "132938.153000", "132938.157000", "132938.159000", "132938.162000", "132938.165000", "132938.168000", "132958.106000", "132958.109000", "132958.112000", "132958.115000", "132958.118000", "132958.120000", "132958.123000", "132958.126000", "132958.129000", "132958.139000", "132958.142000", "132958.145000", "132958.147000", "132958.150000", "132958.153000", "132958.168000", "132958.171000", "132958.174000", "132958.184000", "132958.187000", "133025.167000", "133025.170000", "133025.173000", "133025.176000", "133025.179000", "133025.181000", "133025.184000", "133025.187000", "133025.190000", "133025.193000", "133025.196000", "133025.199000", "133025.202000", "133025.205000", "133025.208000", "133025.219000", "133025.222000", "133025.225000", "133025.228000", "133025.231000", "133025.234000", "133025.237000"],
      "InstanceCreationTime": ["132858.146000", "132858.150000", "132858.153000", "132858.156000", "132858.158000", "132858.161000", "132858.164000", "132858.167000", "132858.170000", "132858.178000", "132858.186000", "132858.189000", "132858.192000", "132858.195000", "132858.198000", "132858.201000", "132858.203000", "132858.213000", "132858.216000", "132858.219000", "132858.221000", "132858.224000", "132858.227000", "132858.230000", "132858.233000", "132858.236000", "132858.239000", "132858.242000", "132858.244000", "132858.247000", "132858.250000", "132858.253000", "132858.256000", "132858.259000", "132858.262000", "132858.265000", "132858.267000", "132918.107000", "132918.110000", "132918.113000", "132918.116000", "132918.119000", "132918.121000", "132918.124000", "132918.127000", "132918.130000", "132918.133000", "132918.136000", "132918.138000", "132918.141000", "132918.144000", "132918.147000", "132918.150000", "132918.153000", "132918.155000", "132918.158000", "132918.161000", "132938.106000", "132938.109000", "132938.112000", "132938.115000", "132938.118000", "132938.121000", "132938.123000", "132938.126000", "132938.129000", "132938.132000", "132938.135000", "132938.145000", "132938.148000", "132938.151000", "132938.153000", "132938.157000", "132938.159000", "132938.162000", "132938.165000", "132938.168000", "132958.106000", "132958.109000", "132958.112000", "132958.115000", "132958.118000", "132958.120000", "132958.123000", "132958.126000", "132958.129000", "132958.139000", "132958.142000", "132958.145000", "132958.147000", "132958.150000", "132958.153000", "132958.168000", "132958.171000", "132958.174000", "132958.184000", "132958.187000", "133025.167000", "133025.170000", "133025.173000", "133025.176000", "133025.179000", "133025.181000", "133025.184000", "133025.187000", "133025.190000", "133025.193000", "133025.196000", "133025.199000", "133025.202000", "133025.205000", "133025.208000", "133025.219000", "133025.222000", "133025.225000", "133025.228000", "133025.231000", "133025.234000", "133025.237000"],
      "InstanceNumber": [1, 2, 3, 4, 5, 6, 7, 8, 9, 10, 11, 12, 13, 14, 15, 16, 17, 18, 19, 20, 21, 22, 23, 24, 25, 26, 27, 28, 29, 30, 31, 32, 33, 34, 35, 36, 37, 38, 39, 40, 41, 42, 43, 44, 45, 46, 47, 48, 49, 50, 51, 52, 53, 54, 55, 56, 57, 58, 59, 60, 61, 62, 63, 64, 65, 66, 67, 68, 69, 70, 71, 72, 73, 74, 75, 76, 77, 78, 79, 80, 81, 82, 83, 84, 85, 86, 87, 88, 89, 90, 91, 92, 93, 94, 95, 96, 97, 98, 99, 100, 101, 102, 103, 104, 105, 106, 107, 108, 109, 110, 111, 112, 113, 114, 115, 116, 117, 118, 119],
      "LargestImagePixelValue": [49364, 47847, 46476, 46496, 45897, 46220, 46220, 45996, 46399, 46200, 46215, 45901, 45951, 45941, 46822, 45423, 45926, 46095, 46387, 46108, 45940, 46388, 45698, 45872, 46090, 46334, 45934, 45932, 46016, 46014, 46006, 45695, 46039, 46330, 46183, 45871, 46177, 45781, 46095, 46432, 46197, 45745, 45998, 45783, 46276, 45755, 45728, 45904, 45892, 45539, 46303, 45215, 46397, 45807, 46046, 45874, 46249, 45996, 45956, 45265, 45922, 46015, 45959, 46069, 45942, 45961, 46116, 45896, 45996, 46172, 46284, 46404, 45861, 46153, 45780, 46434, 46054, 46061, 46128, 46573, 45934, 46398, 45987, 46400, 46009, 46467, 46014, 46124, 46291, 46409, 46023, 45635, 46255, 46110, 46167, 45525, 46170, 46338, 46038, 46055, 45970, 46417, 46589, 46337, 46334, 46631, 46408, 46062, 45925, 46527, 46460, 45733, 46605, 46513, 46674, 46763, 46501, 46566, 46598],
      "WindowCenter": [11271.0, 11227.0, 11183.0, 11144.0, 11114.0, 11094.0, 11091.0, 11099.0, 11113.0, 11116.0, 11119.0, 11116.0, 11115.0, 11127.0, 11140.0, 11137.0, 11128.0, 11117.0, 11108.0, 11107.0, 11107.0, 11113.0, 11102.0, 11091.0, 11089.0, 11093.0, 11096.0, 11105.0, 11120.0, 11105.0, 11096.0, 11090.0, 11087.0, 11087.0, 11077.0, 11052.0, 11033.0, 11060.0, 11093.0, 11084.0, 11056.0, 11046.0, 11066.0, 11088.0, 11084.0, 11079.0, 11089.0, 11099.0, 11091.0, 11066.0, 11065.0, 11065.0, 11104.0, 11125.0, 11117.0, 11094.0, 11085.0, 11069.0, 11086.0, 11082.0, 11102.0, 11099.0, 11092.0, 11078.0, 11060.0, 11067.0, 11090.0, 11097.0, 11107.0, 11100.0, 11095.0, 11078.0, 11076.0, 11080.0, 11084.0, 11088.0, 11077.0, 11070.0, 11078.0, 11083.0, 11079.0, 11076.0, 11079.0, 11090.0, 11113.0, 11130.0, 11119.0, 11102.0, 11053.0, 11075.0, 11103.0, 11120.0, 11124.0, 11112.0, 11089.0, 11057.0, 11078.0, 11110.0, 11121.0, 11118.0, 11103.0, 11091.0, 11091.0, 11076.0, 11077.0, 11084.0, 11085.0, 11072.0, 11072.0, 11083.0, 11088.0, 11088.0, 11086.0, 11080.0, 11099.0, 11088.0, 11074.0, 11077.0, 11091.0],
      "WindowWidth": [24252.0, 24115.0, 23994.0, 23890.0, 23817.0, 23764.0, 23754.0, 23774.0, 23801.0, 23810.0, 23819.0, 23812.0, 23809.0, 23839.0, 23867.0, 23863.0, 23840.0, 23814.0, 23792.0, 23791.0, 23790.0, 23801.0, 23779.0, 23752.0, 23748.0, 23755.0, 23765.0, 23783.0, 23818.0, 23784.0, 23762.0, 23749.0, 23742.0, 23740.0, 23717.0, 23662.0, 23618.0, 23679.0, 23751.0, 23730.0, 23669.0, 23642.0, 23691.0, 23745.0, 23730.0, 23723.0, 23745.0, 23769.0, 23749.0, 23693.0, 23686.0, 23692.0, 23780.0, 23830.0, 23809.0, 23761.0, 23731.0, 23697.0, 23735.0, 23734.0, 23775.0, 23768.0, 23750.0, 23720.0, 23675.0, 23690.0, 23744.0, 23765.0, 23788.0, 23773.0, 23759.0, 23721.0, 23718.0, 23723.0, 23736.0, 23740.0, 23715.0, 23698.0, 23713.0, 23724.0, 23719.0, 23709.0, 23720.0, 23741.0, 23799.0, 23839.0, 23812.0, 23778.0, 23658.0, 23709.0, 23777.0, 23818.0, 23823.0, 23796.0, 23743.0, 23668.0, 23717.0, 23790.0, 23818.0, 23813.0, 23774.0, 23747.0, 23744.0, 23712.0, 23716.0, 23735.0, 23738.0, 23705.0, 23704.0, 23732.0, 23742.0, 23744.0, 23733.0, 23722.0, 23766.0, 23740.0, 23707.0, 23713.0, 23747.0]
    },
    "slices": {}
  }
}