{
  "AcquisitionMatrixPE": 104,
  "AcquisitionNumber": 1,
  "AcquisitionTime": "13:35:58.297500",
  "BandwidthPerPixelPhaseEncode": 17.17,
  "BaseResolution": 104,
  "BodyPartExamined": "BRAIN",
  "CoilString": "HC1-7;NC1_2",
  "ConsistencyInfo": "N4_VE11C_LATEST_20160120",
  "ConversionSoftware": "dcm2niix",
  "ConversionSoftwareVersion": "v1.0.20190720  (JP2:OpenJPEG) GCC7.3.0",
  "DerivedVendorReportedEchoSpacing": 0.000560011,
  "DeviceSerialNumber": "167006",
  "DwellTime": 2.1e-06,
  "EchoTime": 0.037,
  "EchoTrainLength": 104,
  "EffectiveEchoSpacing": 0.000560011,
  "FlipAngle": 52,
  "ImageComments": "Unaliased_MB4_PE3_LB",
  "ImageOrientationPatientDICOM": [0.999578, -0.0206751, 0.0203866, 0.0279207, 0.877132, -0.479438],
  "ImageType": [
    "ORIGINAL",
    "PRIMARY",
    "M",
    "MB",
    "ND",
    "MOSAIC"
],
  "ImagingFrequency": 123.259,
  "InPlanePhaseEncodingDirectionDICOM": "COL",
  "InstitutionAddress": "Chemin_Queen-Mary_4565_Montreal_District_CA_H3W_1W5",
  "InstitutionName": "IUGM",
  "InstitutionalDepartmentName": "Department",
  "MRAcquisitionType": "2D",
  "MagneticFieldStrength": 3,
  "Manufacturer": "Siemens",
  "ManufacturersModelName": "Prisma_fit",
  "Modality": "MR",
  "MultibandAccelerationFactor": 4,
  "PartialFourier": 1,
  "PatientPosition": "HFS",
  "PercentPhaseFOV": 100,
  "PhaseEncodingDirection": "j",
  "PhaseEncodingSteps": 104,
  "PhaseResolution": 1,
  "PixelBandwidth": 2290,
  "ProcedureStepDescription": "hcptrt_generic",
  "ProtocolName": "func_task-wm_run-1",
  "PulseSequenceDetails": "%CustomerSeq%_cmrr_mbep2d_bold",
  "ReceiveCoilActiveElements": "HC1-7;NC1,2",
  "ReceiveCoilName": "HeadNeck_64",
  "ReconMatrixPE": 104,
  "RepetitionTime": 1.49,
  "SAR": 0.0393923,
  "ScanOptions": "FS",
  "ScanningSequence": "EP",
  "SequenceName": "epfid2d1_104",
  "SequenceVariant": "SK_SS",
  "SeriesDescription": "func_task-wm_run-1",
  "SeriesNumber": 13,
  "ShimSetting": [621, -7200, -8865, 424, -12, -192, 18, -33],
  "SliceThickness": 2,
  "SliceTiming": [0, 0.7825, 0.0975, 0.88, 0.195, 0.98, 0.2925, 1.0775, 0.3925, 1.175, 0.49, 1.2725, 0.5875, 1.37, 0.685, 0, 0.7825, 0.0975, 0.88, 0.195, 0.98, 0.2925, 1.0775, 0.3925, 1.175, 0.49, 1.2725, 0.5875, 1.37, 0.685, 0, 0.7825, 0.0975, 0.88, 0.195, 0.98, 0.2925, 1.0775, 0.3925, 1.175, 0.49, 1.2725, 0.5875, 1.37, 0.685, 0, 0.7825, 0.0975, 0.88, 0.195, 0.98, 0.2925, 1.0775, 0.3925, 1.175, 0.49, 1.2725, 0.5875, 1.37, 0.685],
  "SoftwareVersions": "syngo_MR_E11",
  "SpacingBetweenSlices": 2,
  "StationName": "MRC35049",
  "TaskName": "wm",
  "TotalReadoutTime": 0.0576811,
  "TxRefAmp": 252.119,
  "WipMemBlock": "45c55c36-376f-4d29-8387-513038079114||Sequence: R016 ve11c/master r/e634e98; Dec 19 2017 11:00:25 by eja",
  "dcmmeta_affine": [
    [-1.9991567134857178, 0.05584142357110977, 0.01593863032758236, 98.97215270996094],
    [0.04135027527809143, 1.7542630434036255, -0.959609866142273, -62.65718078613281],
    [0.04077326878905296, 0.9588757753372192, 1.7546780109405518, -96.01033020019531],
    [0.0, 0.0, 0.0, 1.0]
],
  "dcmmeta_reorient_transform": [
    [0.0, -1.0, 0.0, 103.0],
    [1.0, 0.0, 0.0, 0.0],
    [0.0, 0.0, 1.0, 0.0],
    [0.0, 0.0, 0.0, 1.0]
],
  "dcmmeta_shape": [104, 104, 60, 202],
  "dcmmeta_slice_dim": 2,
  "dcmmeta_version": 0.6,
  "global": {
    "const": {
      "AcquisitionMatrix": [104, 0, 0, 104],
      "AngioFlag": "N",
      "BitsAllocated": 16,
      "BitsStored": 16,
      "BodyPartExamined": "BRAIN",
      "Columns": 832,
      "EchoNumbers": 1,
      "EchoTime": 37.0,
      "EchoTrainLength": 104,
      "FlipAngle": 52.0,
      "HighBit": 15,
      "ImageOrientationPatient": [0.99957837303829, -0.0206751376279, 0.02038663381208, 0.02792071211718, 0.87713154725436, -0.4794378819472],
      "ImagePositionPatient": [-852.74315643854, -741.53218584266, 336.94318498775],
      "ImageType": [
        "ORIGINAL",
        "PRIMARY",
        "M",
        "MB",
        "ND",
        "MOSAIC"
],
      "ImagedNucleus": "1H",
      "ImagingFrequency": 123.25924,
      "InPlanePhaseEncodingDirection": "COL",
      "MRAcquisitionType": "2D",
      "MagneticFieldStrength": 3.0,
      "Manufacturer": "SIEMENS",
      "ManufacturerModelName": "Prisma_fit",
      "Modality": "MR",
      "NumberOfAverages": 1.0,
      "NumberOfPhaseEncodingSteps": 104,
      "PercentPhaseFieldOfView": 100.0,
      "PercentSampling": 100.0,
      "PerformedProcedureStepStartTime": "131454.296000",
      "PhotometricInterpretation": "MONOCHROME2",
      "PixelBandwidth": 2290.0,
      "PixelRepresentation": 0,
      "PixelSpacing": [2.0, 2.0],
      "ProtocolName": "func_task-wm_run-1",
      "RepetitionTime": 1490.0,
      "Rows": 832,
      "SAR": 0.03939232895153,
      "SamplesPerPixel": 1,
      "ScanOptions": "FS",
      "ScanningSequence": "EP",
      "SequenceName": "epfid2d1_104",
      "SequenceVariant": [
        "SK",
        "SS"
],
      "SeriesDescription": "func_task-wm_run-1",
      "SeriesNumber": 13,
      "SeriesTime": "133715.000000",
      "SliceLocation": -53.381638717215,
      "SliceThickness": 2.0,
      "SmallestImagePixelValue": 0,
      "SoftwareVersions": "syngo MR E11",
      "SpacingBetweenSlices": 1.9999999997571,
      "SpecificCharacterSet": "ISO_IR 100",
      "StudyID": "1",
      "StudyTime": "131454.208000",
      "TransmitCoilName": "Body",
      "VariableFlipAngleFlag": "N",
      "WindowCenterWidthExplanation": "Algo1",
      "dBdt": 0.0},
    "slices": {}
  },
  "time": {
    "samples": {
      "AcquisitionNumber": [1, 2, 3, 4, 5, 6, 7, 8, 9, 10, 11, 12, 13, 14, 15, 16, 17, 18, 19, 20, 21, 22, 23, 24, 25, 26, 27, 28, 29, 30, 31, 32, 33, 34, 35, 36, 37, 38, 39, 40, 41, 42, 43, 44, 45, 46, 47, 48, 49, 50, 51, 52, 53, 54, 55, 56, 57, 58, 59, 60, 61, 62, 63, 64, 65, 66, 67, 68, 69, 70, 71, 72, 73, 74, 75, 76, 77, 78, 79, 80, 81, 82, 83, 84, 85, 86, 87, 88, 89, 90, 91, 92, 93, 94, 95, 96, 97, 98, 99, 100, 101, 102, 103, 104, 105, 106, 107, 108, 109, 110, 111, 112, 113, 114, 115, 116, 117, 118, 119, 120, 121, 122, 123, 124, 125, 126, 127, 128, 129, 130, 131, 132, 133, 134, 135, 136, 137, 138, 139, 140, 141, 142, 143, 144, 145, 146, 147, 148, 149, 150, 151, 152, 153, 154, 155, 156, 157, 158, 159, 160, 161, 162, 163, 164, 165, 166, 167, 168, 169, 170, 171, 172, 173, 174, 175, 176, 177, 178, 179, 180, 181, 182, 183, 184, 185, 186, 187, 188, 189, 190, 191, 192, 193, 194, 195, 196, 197, 198, 199, 200, 201, 202],
      "AcquisitionTime": ["133558.297500", "133559.787500", "133601.277500", "133602.767500", "133604.257500", "133605.747500", "133607.237500", "133608.727500", "133610.217500", "133611.707500", "133613.197500", "133614.687500", "133616.177500", "133617.667500", "133619.157500", "133620.647500", "133622.137500", "133623.627500", "133625.117500", "133626.607500", "133628.097500", "133629.587500", "133631.077500", "133632.567500", "133634.057500", "133635.547500", "133637.037500", "133638.527500", "133640.017500", "133641.507500", "133642.997500", "133644.487500", "133645.977500", "133647.467500", "133648.957500", "133650.447500", "133651.937500", "133653.427500", "133654.917500", "133656.407500", "133657.897500", "133659.387500", "133700.877500", "133702.367500", "133703.857500", "133705.347500", "133706.837500", "133708.327500", "133709.817500", "133711.307500", "133712.797500", "133714.287500", "133715.777500", "133717.267500", "133718.757500", "133720.247500", "133721.737500", "133723.227500", "133724.717500", "133726.207500", "133727.697500", "133729.187500", "133730.677500", "133732.167500", "133733.657500", "133735.147500", "133736.637500", "133738.127500", "133739.617500", "133741.107500", "133742.597500", "133744.087500", "133745.577500", "133747.067500", "133748.557500", "133750.047500", "133751.537500", "133753.027500", "133754.517500", "133756.007500", "133757.497500", "133758.987500", "133800.477500", "133801.967500", "133803.457500", "133804.947500", "133806.437500", "133807.927500", "133809.417500", "133810.907500", "133812.397500", "133813.887500", "133815.377500", "133816.867500", "133818.357500", "133819.847500", "133821.337500", "133822.827500", "133824.317500", "133825.807500", "133827.297500", "133828.787500", "133830.277500", "133831.767500", "133833.257500", "133834.747500", "133836.237500", "133837.727500", "133839.217500", "133840.707500", "133842.197500", "133843.687500", "133845.177500", "133846.667500", "133848.157500", "133849.647500", "133851.137500", "133852.627500", "133854.117500", "133855.607500", "133857.097500", "133858.587500", "133900.077500", "133901.567500", "133903.057500", "133904.547500", "133906.037500", "133907.527500", "133909.017500", "133910.507500", "133911.997500", "133913.487500", "133914.977500", "133916.467500", "133917.957500", "133919.447500", "133920.937500", "133922.427500", "133923.917500", "133925.407500", "133926.897500", "133928.387500", "133929.877500", "133931.367500", "133932.857500", "133934.347500", "133935.837500", "133937.327500", "133938.817500", "133940.307500", "133941.797500", "133943.287500", "133944.777500", "133946.267500", "133947.757500", "133949.247500", "133950.737500", "133952.227500", "133953.717500", "133955.207500", "133956.697500", "133958.187500", "133959.677500", "134001.167500", "134002.657500", "134004.147500", "134005.637500", "134007.127500", "134008.617500", "134010.107500", "134011.597500", "134013.087500", "134014.577500", "134016.067500", "134017.557500", "134019.047500", "134020.537500", "134022.027500", "134023.517500", "134025.007500", "134026.497500", "134027.987500", "134029.477500", "134030.967500", "134032.457500", "134033.947500", "134035.437500", "134036.927500", "134038.417500", "134039.907500", "134041.397500", "134042.887500", "134044.377500", "134045.867500", "134047.357500", "134048.847500", "134050.337500", "134051.827500", "134053.317500", "134054.807500", "134056.297500", "134057.787500"],
      "ContentTime": ["133715.003000", "133715.006000", "133715.009000", "133715.012000", "133715.015000", "133715.018000", "133715.020000", "133715.029000", "133715.032000", "133715.034000", "133715.037000", "133715.040000", "133715.043000", "133715.046000", "133715.049000", "133715.052000", "133715.057000", "133715.060000", "133715.063000", "133715.066000", "133734.968000", "133734.971000", "133734.974000", "133734.977000", "133734.979000", "133734.982000", "133734.985000", "133734.988000", "133734.991000", "133734.993000", "133734.996000", "133735.000000", "133735.003000", "133735.006000", "133735.009000", "133735.012000", "133735.015000", "133735.018000", "133735.020000", "133735.036000", "133754.968000", "133754.971000", "133754.974000", "133754.977000", "133754.979000", "133754.982000", "133754.985000", "133754.988000", "133754.991000", "133754.994000", "133754.996000", "133755.000000", "133755.003000", "133755.006000", "133755.009000", "133755.012000", "133755.015000", "133755.017000", "133755.020000", "133755.023000", "133755.026000", "133814.969000", "133814.972000", "133814.975000", "133814.977000", "133814.986000", "133814.989000", "133814.991000", "133814.994000", "133814.997000", "133815.001000", "133815.004000", "133815.007000", "133815.010000", "133815.013000", "133815.016000", "133815.018000", "133815.021000", "133815.024000", "133815.027000", "133815.030000", "133834.969000", "133834.972000", "133834.975000", "133834.977000", "133834.980000", "133834.983000", "133834.986000", "133834.989000", "133834.992000", "133834.994000", "133834.997000", "133835.001000", "133835.004000", "133835.007000", "133835.010000", "133835.012000", "133835.015000", "133835.018000", "133835.021000", "133835.024000", "133914.969000", "133914.972000", "133914.975000", "133914.977000", "133914.980000", "133914.993000", "133914.996000", "133915.000000", "133915.003000", "133915.006000", "133915.008000", "133915.014000", "133915.017000", "133915.020000", "133915.023000", "133915.026000", "133915.028000", "133915.031000", "133915.034000", "133915.037000", "133915.040000", "133915.043000", "133915.046000", "133915.049000", "133915.051000", "133915.054000", "133915.057000", "133915.060000", "133915.063000", "133915.066000", "133954.968000", "133954.971000", "133954.974000", "133954.977000", "133954.980000", "133954.982000", "133954.985000", "133954.988000", "133954.991000", "133954.994000", "133954.997000", "133955.001000", "133955.004000", "133955.006000", "133955.009000", "133955.012000", "133955.015000", "133955.018000", "133955.021000", "133955.024000", "133955.027000", "133955.029000", "133955.032000", "133955.035000", "133955.038000", "133955.041000", "133955.044000", "134034.969000", "134034.972000", "134034.975000", "134034.978000", "134034.981000", "134034.983000", "134034.987000", "134034.989000", "134034.992000", "134034.995000", "134034.998000", "134035.002000", "134035.005000", "134035.008000", "134035.016000", "134035.019000", "134035.022000", "134035.025000", "134035.028000", "134035.031000", "134035.034000", "134035.036000", "134035.039000", "134035.042000", "134035.045000", "134035.048000", "134035.051000", "134054.969000", "134054.972000", "134054.975000", "134054.978000", "134054.981000", "134054.984000", "134054.987000", "134054.990000", "134054.993000", "134054.996000", "134055.000000", "134055.003000", "134055.006000", "134059.760000", "134059.763000", "134059.766000", "134059.769000"],
      "InstanceCreationTime": ["133715.003000", "133715.006000", "133715.009000", "133715.012000", "133715.015000", "133715.018000", "133715.020000", "133715.029000", "133715.032000", "133715.034000", "133715.037000", "133715.040000", "133715.043000", "133715.046000", "133715.049000", "133715.052000", "133715.057000", "133715.060000", "133715.063000", "133715.066000", "133734.968000", "133734.971000", "133734.974000", "133734.977000", "133734.979000", "133734.982000", "133734.985000", "133734.988000", "133734.991000", "133734.993000", "133734.996000", "133735.000000", "133735.003000", "133735.006000", "133735.009000", "133735.012000", "133735.015000", "133735.018000", "133735.020000", "133735.036000", "133754.968000", "133754.971000", "133754.974000", "133754.977000", "133754.979000", "133754.982000", "133754.985000", "133754.988000", "133754.991000", "133754.994000", "133754.996000", "133755.000000", "133755.003000", "133755.006000", "133755.009000", "133755.012000", "133755.015000", "133755.017000", "133755.020000", "133755.023000", "133755.026000", "133814.969000", "133814.972000", "133814.975000", "133814.977000", "133814.986000", "133814.989000", "133814.991000", "133814.994000", "133814.997000", "133815.001000", "133815.004000", "133815.007000", "133815.010000", "133815.013000", "133815.016000", "133815.018000", "133815.021000", "133815.024000", "133815.027000", "133815.030000", "133834.969000", "133834.972000", "133834.975000", "133834.977000", "133834.980000", "133834.983000", "133834.986000", "133834.989000", "133834.992000", "133834.994000", "133834.997000", "133835.001000", "133835.004000", "133835.007000", "133835.010000", "133835.012000", "133835.015000", "133835.018000", "133835.021000", "133835.024000", "133914.969000", "133914.972000", "133914.975000", "133914.977000", "133914.980000", "133914.993000", "133914.996000", "133915.000000", "133915.003000", "133915.006000", "133915.008000", "133915.014000", "133915.017000", "133915.020000", "133915.023000", "133915.026000", "133915.028000", "133915.031000", "133915.034000", "133915.037000", "133915.040000", "133915.043000", "133915.046000", "133915.049000", "133915.051000", "133915.054000", "133915.057000", "133915.060000", "133915.063000", "133915.066000", "133954.968000", "133954.971000", "133954.974000", "133954.977000", "133954.980000", "133954.982000", "133954.985000", "133954.988000", "133954.991000", "133954.994000", "133954.997000", "133955.001000", "133955.004000", "133955.006000", "133955.009000", "133955.012000", "133955.015000", "133955.018000", "133955.021000", "133955.024000", "133955.027000", "133955.029000", "133955.032000", "133955.035000", "133955.038000", "133955.041000", "133955.044000", "134034.969000", "134034.972000", "134034.975000", "134034.978000", "134034.981000", "134034.983000", "134034.987000", "134034.989000", "134034.992000", "134034.995000", "134034.998000", "134035.002000", "134035.005000", "134035.008000", "134035.016000", "134035.019000", "134035.022000", "134035.025000", "134035.028000", "134035.031000", "134035.034000", "134035.036000", "134035.039000", "134035.042000", "134035.045000", "134035.048000", "134035.051000", "134054.969000", "134054.972000", "134054.975000", "134054.978000", "134054.981000", "134054.984000", "134054.987000", "134054.990000", "134054.993000", "134054.996000", "134055.000000", "134055.003000", "134055.006000", "134059.760000", "134059.763000", "134059.766000", "134059.769000"],
      "InstanceNumber": [1, 2, 3, 4, 5, 6, 7, 8, 9, 10, 11, 12, 13, 14, 15, 16, 17, 18, 19, 20, 21, 22, 23, 24, 25, 26, 27, 28, 29, 30, 31, 32, 33, 34, 35, 36, 37, 38, 39, 40, 41, 42, 43, 44, 45, 46, 47, 48, 49, 50, 51, 52, 53, 54, 55, 56, 57, 58, 59, 60, 61, 62, 63, 64, 65, 66, 67, 68, 69, 70, 71, 72, 73, 74, 75, 76, 77, 78, 79, 80, 81, 82, 83, 84, 85, 86, 87, 88, 89, 90, 91, 92, 93, 94, 95, 96, 97, 98, 99, 100, 101, 102, 103, 104, 105, 106, 107, 108, 109, 110, 111, 112, 113, 114, 115, 116, 117, 118, 119, 120, 121, 122, 123, 124, 125, 126, 127, 128, 129, 130, 131, 132, 133, 134, 135, 136, 137, 138, 139, 140, 141, 142, 143, 144, 145, 146, 147, 148, 149, 150, 151, 152, 153, 154, 155, 156, 157, 158, 159, 160, 161, 162, 163, 164, 165, 166, 167, 168, 169, 170, 171, 172, 173, 174, 175, 176, 177, 178, 179, 180, 181, 182, 183, 184, 185, 186, 187, 188, 189, 190, 191, 192, 193, 194, 195, 196, 197, 198, 199, 200, 201, 202],
      "LargestImagePixelValue": [47517, 45256, 44963, 44632, 44724, 44294, 44186, 43581, 43580, 43893, 43930, 43735, 43314, 44123, 43547, 43756, 42837, 43796, 42902, 43275, 42682, 43303, 43020, 43189, 42555, 42877, 42729, 42893, 42854, 42907, 42686, 42794, 43436, 43501, 43211, 43094, 43301, 42947, 42778, 43019, 42886, 43174, 43094, 43048, 43002, 42849, 42887, 42992, 43166, 43535, 44480, 45161, 43862, 43187, 43331, 42577, 42841, 42877, 43004, 43128, 43199, 43352, 43852, 43514, 43102, 43387, 43379, 43516, 43678, 43511, 43529, 43728, 43403, 43838, 43551, 43697, 43604, 43451, 43126, 43272, 43565, 43852, 44027, 43762, 44000, 43507, 43916, 43689, 44206, 43259, 43637, 43965, 44331, 44563, 44282, 44369, 44766, 44486, 44196, 43938, 44684, 44363, 44620, 44034, 43955, 43768, 43470, 43374, 43323, 43544, 43254, 43410, 43445, 43431, 43630, 43643, 43726, 44515, 44078, 43198, 44043, 43047, 43530, 43609, 44040, 43532, 43364, 43606, 43528, 43311, 43698, 43646, 43013, 43240, 43121, 43156, 43627, 43580, 42984, 43302, 44493, 43829, 45175, 45282, 43885, 42491, 43231, 43708, 43418, 43325, 42929, 43418, 43554, 43428, 43682, 43139, 42669, 43234, 42913, 42470, 42136, 42485, 43220, 43053, 43295, 43669, 44176, 43562, 44074, 43324, 43655, 43096, 42817, 43078, 42619, 43345, 42726, 43108, 43022, 43278, 42726, 43206, 42668, 42668, 42945, 42754, 43410, 42643, 43050, 42880, 43678, 43431, 43538, 43631, 43847, 43320, 42913, 43296, 43573, 43671, 42977, 43691],
      "WindowCenter": [11145.0, 11146.0, 11155.0, 11113.0, 11094.0, 11070.0, 11070.0, 11056.0, 11057.0, 11059.0, 11052.0, 11052.0, 11057.0, 11055.0, 11051.0, 11058.0, 11050.0, 11058.0, 11049.0, 11052.0, 11049.0, 11043.0, 11038.0, 11044.0, 11039.0, 11040.0, 11045.0, 11029.0, 11029.0, 11036.0, 11027.0, 11037.0, 11034.0, 11032.0, 11033.0, 11027.0, 11017.0, 11002.0, 10997.0, 11008.0, 11028.0, 11037.0, 11036.0, 11025.0, 11018.0, 11010.0, 11008.0, 11011.0, 11011.0, 11018.0, 11028.0, 10998.0, 10945.0, 10949.0, 10981.0, 11001.0, 11001.0, 10983.0, 10980.0, 10980.0, 10991.0, 11001.0, 11019.0, 11020.0, 11022.0, 11032.0, 11041.0, 11045.0, 11059.0, 11056.0, 11057.0, 11054.0, 11046.0, 11058.0, 11052.0, 11048.0, 11036.0, 11024.0, 11021.0, 11028.0, 11034.0, 11027.0, 11023.0, 11013.0, 11019.0, 11014.0, 11027.0, 11022.0, 11027.0, 11011.0, 11007.0, 11004.0, 11027.0, 11029.0, 11028.0, 11036.0, 11034.0, 11008.0, 10993.0, 10990.0, 11013.0, 11022.0, 11019.0, 11013.0, 10998.0, 10995.0, 10997.0, 11006.0, 11011.0, 11015.0, 11006.0, 11001.0, 11008.0, 10991.0, 10997.0, 11033.0, 11061.0, 11061.0, 11037.0, 11007.0, 10989.0, 10987.0, 11014.0, 11034.0, 11043.0, 11015.0, 10974.0, 10997.0, 11034.0, 11038.0, 11033.0, 11010.0, 10979.0, 11005.0, 11017.0, 11006.0, 10984.0, 10989.0, 11024.0, 11044.0, 11038.0, 11062.0, 11046.0, 10995.0, 10970.0, 10980.0, 10991.0, 10982.0, 10957.0, 10955.0, 10967.0, 10993.0, 11001.0, 11010.0, 11025.0, 11033.0, 11035.0, 11050.0, 11039.0, 11033.0, 11028.0, 11041.0, 11053.0, 11055.0, 11053.0, 11042.0, 11038.0, 11032.0, 11036.0, 11032.0, 11035.0, 11041.0, 11052.0, 11056.0, 11043.0, 11037.0, 11010.0, 11019.0, 11027.0, 11049.0, 11031.0, 11017.0, 10976.0, 10982.0, 11025.0, 11033.0, 11014.0, 10966.0, 10973.0, 11014.0, 11030.0, 11005.0, 11005.0, 11019.0, 11029.0, 10997.0, 10974.0, 10993.0, 11022.0, 11020.0, 11010.0, 11010.0],
      "WindowWidth": [23975.0, 23948.0, 23955.0, 23845.0, 23788.0, 23731.0, 23728.0, 23699.0, 23701.0, 23698.0, 23680.0, 23679.0, 23695.0, 23683.0, 23677.0, 23693.0, 23682.0, 23694.0, 23677.0, 23680.0, 23679.0, 23663.0, 23650.0, 23663.0, 23654.0, 23656.0, 23667.0, 23629.0, 23627.0, 23644.0, 23624.0, 23642.0, 23636.0, 23627.0, 23632.0, 23620.0, 23597.0, 23565.0, 23553.0, 23579.0, 23627.0, 23645.0, 23642.0, 23616.0, 23605.0, 23582.0, 23576.0, 23582.0, 23579.0, 23598.0, 23621.0, 23550.0, 23428.0, 23436.0, 23511.0, 23559.0, 23553.0, 23506.0, 23505.0, 23505.0, 23531.0, 23555.0, 23598.0, 23595.0, 23613.0, 23628.0, 23648.0, 23657.0, 23690.0, 23683.0, 23686.0, 23679.0, 23660.0, 23684.0, 23670.0, 23663.0, 23636.0, 23606.0, 23602.0, 23616.0, 23627.0, 23614.0, 23602.0, 23580.0, 23595.0, 23585.0, 23609.0, 23602.0, 23611.0, 23579.0, 23569.0, 23561.0, 23611.0, 23619.0, 23615.0, 23632.0, 23633.0, 23573.0, 23536.0, 23526.0, 23576.0, 23595.0, 23591.0, 23576.0, 23543.0, 23534.0, 23542.0, 23563.0, 23578.0, 23586.0, 23567.0, 23553.0, 23571.0, 23530.0, 23544.0, 23629.0, 23692.0, 23694.0, 23635.0, 23570.0, 23524.0, 23521.0, 23583.0, 23630.0, 23646.0, 23590.0, 23491.0, 23542.0, 23625.0, 23641.0, 23622.0, 23571.0, 23504.0, 23559.0, 23590.0, 23567.0, 23514.0, 23525.0, 23607.0, 23659.0, 23638.0, 23695.0, 23658.0, 23541.0, 23486.0, 23513.0, 23536.0, 23509.0, 23454.0, 23446.0, 23478.0, 23538.0, 23557.0, 23579.0, 23609.0, 23635.0, 23637.0, 23666.0, 23644.0, 23632.0, 23620.0, 23648.0, 23674.0, 23684.0, 23675.0, 23649.0, 23640.0, 23631.0, 23637.0, 23632.0, 23632.0, 23649.0, 23677.0, 23687.0, 23660.0, 23642.0, 23580.0, 23597.0, 23620.0, 23669.0, 23631.0, 23597.0, 23502.0, 23516.0, 23613.0, 23631.0, 23586.0, 23482.0, 23497.0, 23595.0, 23627.0, 23569.0, 23565.0, 23596.0, 23617.0, 23546.0, 23500.0, 23543.0, 23611.0, 23598.0, 23588.0, 23590.0]
    },
    "slices": {}
  }
}