{
  "AcquisitionMatrixPE": 104,
  "AcquisitionNumber": 1,
  "AcquisitionTime": "14:05:24.637500",
  "BandwidthPerPixelPhaseEncode": 17.17,
  "BaseResolution": 104,
  "BodyPartExamined": "BRAIN",
  "CoilString": "HC1-7;NC1_2",
  "ConsistencyInfo": "N4_VE11C_LATEST_20160120",
  "ConversionSoftware": "dcm2niix",
  "ConversionSoftwareVersion": "v1.0.20190720  (JP2:OpenJPEG) GCC7.3.0",
  "DerivedVendorReportedEchoSpacing": 0.000560011,
  "DeviceSerialNumber": "167006",
  "DwellTime": 2.1e-06,
  "EchoTime": 0.037,
  "EchoTrainLength": 104,
  "EffectiveEchoSpacing": 0.000560011,
  "FlipAngle": 52,
  "ImageComments": "Unaliased_MB4_PE3_LB",
  "ImageOrientationPatientDICOM": [0.999578, -0.0206751, 0.0203866, 0.0279207, 0.877132, -0.479438],
  "ImageType": [
    "ORIGINAL",
    "PRIMARY",
    "M",
    "MB",
    "ND",
    "MOSAIC"
],
  "ImagingFrequency": 123.259,
  "InPlanePhaseEncodingDirectionDICOM": "COL",
  "InstitutionAddress": "Chemin_Queen-Mary_4565_Montreal_District_CA_H3W_1W5",
  "InstitutionName": "IUGM",
  "InstitutionalDepartmentName": "Department",
  "MRAcquisitionType": "2D",
  "MagneticFieldStrength": 3,
  "Manufacturer": "Siemens",
  "ManufacturersModelName": "Prisma_fit",
  "Modality": "MR",
  "MultibandAccelerationFactor": 4,
  "PartialFourier": 1,
  "PatientPosition": "HFS",
  "PercentPhaseFOV": 100,
  "PhaseEncodingDirection": "j",
  "PhaseEncodingSteps": 104,
  "PhaseResolution": 1,
  "PixelBandwidth": 2290,
  "ProcedureStepDescription": "hcptrt_generic",
  "ProtocolName": "func_task-motor_run-2",
  "PulseSequenceDetails": "%CustomerSeq%_cmrr_mbep2d_bold",
  "ReceiveCoilActiveElements": "HC1-7;NC1,2",
  "ReceiveCoilName": "HeadNeck_64",
  "ReconMatrixPE": 104,
  "RepetitionTime": 1.49,
  "SAR": 0.0392442,
  "ScanOptions": "FS",
  "ScanningSequence": "EP",
  "SequenceName": "epfid2d1_104",
  "SequenceVariant": "SK_SS",
  "SeriesDescription": "func_task-motor_run-2",
  "SeriesNumber": 27,
  "ShimSetting": [621, -7200, -8865, 424, -12, -192, 18, -33],
  "SliceThickness": 2,
  "SliceTiming": [0, 0.7825, 0.0975, 0.8825, 0.195, 0.98, 0.2925, 1.0775, 0.3925, 1.175, 0.49, 1.2725, 0.5875, 1.3725, 0.685, 0, 0.7825, 0.0975, 0.8825, 0.195, 0.98, 0.2925, 1.0775, 0.3925, 1.175, 0.49, 1.2725, 0.5875, 1.3725, 0.685, 0, 0.7825, 0.0975, 0.8825, 0.195, 0.98, 0.2925, 1.0775, 0.3925, 1.175, 0.49, 1.2725, 0.5875, 1.3725, 0.685, 0, 0.7825, 0.0975, 0.8825, 0.195, 0.98, 0.2925, 1.0775, 0.3925, 1.175, 0.49, 1.2725, 0.5875, 1.3725, 0.685],
  "SoftwareVersions": "syngo_MR_E11",
  "SpacingBetweenSlices": 2,
  "StationName": "MRC35049",
  "TaskName": "motor",
  "TotalReadoutTime": 0.0576811,
  "TxRefAmp": 252.119,
  "WipMemBlock": "2e1e54f1-483f-40ef-8311-a887dd9efa28||Sequence: R016 ve11c/master r/e634e98; Dec 19 2017 11:00:25 by eja",
  "dcmmeta_affine": [
    [-1.9991567134857178, 0.05584142357110977, 0.01593863032758236, 98.97215270996094],
    [0.04135027527809143, 1.7542630434036255, -0.959609866142273, -62.65718078613281],
    [0.04077326878905296, 0.9588757753372192, 1.7546780109405518, -96.01033020019531],
    [0.0, 0.0, 0.0, 1.0]
],
  "dcmmeta_reorient_transform": [
    [0.0, -1.0, 0.0, 103.0],
    [1.0, 0.0, 0.0, 0.0],
    [0.0, 0.0, 1.0, 0.0],
    [0.0, 0.0, 0.0, 1.0]
],
  "dcmmeta_shape": [104, 104, 60, 144],
  "dcmmeta_slice_dim": 2,
  "dcmmeta_version": 0.6,
  "global": {
    "const": {
      "AcquisitionMatrix": [104, 0, 0, 104],
      "AngioFlag": "N",
      "BitsAllocated": 16,
      "BitsStored": 16,
      "BodyPartExamined": "BRAIN",
      "Columns": 832,
      "EchoNumbers": 1,
      "EchoTime": 37.0,
      "EchoTrainLength": 104,
      "FlipAngle": 52.0,
      "HighBit": 15,
      "ImageOrientationPatient": [0.99957837303829, -0.0206751376279, 0.02038663381208, 0.02792071211718, 0.87713154725436, -0.4794378819472],
      "ImagePositionPatient": [-852.74315643854, -741.53218584266, 336.94318498775],
      "ImageType": [
        "ORIGINAL",
        "PRIMARY",
        "M",
        "MB",
        "ND",
        "MOSAIC"
],
      "ImagedNucleus": "1H",
      "ImagingFrequency": 123.259251,
      "InPlanePhaseEncodingDirection": "COL",
      "MRAcquisitionType": "2D",
      "MagneticFieldStrength": 3.0,
      "Manufacturer": "SIEMENS",
      "ManufacturerModelName": "Prisma_fit",
      "Modality": "MR",
      "NumberOfAverages": 1.0,
      "NumberOfPhaseEncodingSteps": 104,
      "PercentPhaseFieldOfView": 100.0,
      "PercentSampling": 100.0,
      "PerformedProcedureStepStartTime": "131454.296000",
      "PhotometricInterpretation": "MONOCHROME2",
      "PixelBandwidth": 2290.0,
      "PixelRepresentation": 0,
      "PixelSpacing": [2.0, 2.0],
      "ProtocolName": "func_task-motor_run-2",
      "RepetitionTime": 1490.0,
      "Rows": 832,
      "SAR": 0.0392442032374,
      "SamplesPerPixel": 1,
      "ScanOptions": "FS",
      "ScanningSequence": "EP",
      "SequenceName": "epfid2d1_104",
      "SequenceVariant": [
        "SK",
        "SS"
],
      "SeriesDescription": "func_task-motor_run-2",
      "SeriesNumber": 27,
      "SeriesTime": "140658.146000",
      "SliceLocation": -53.381638717215,
      "SliceThickness": 2.0,
      "SmallestImagePixelValue": 0,
      "SoftwareVersions": "syngo MR E11",
      "SpacingBetweenSlices": 1.9999999997571,
      "SpecificCharacterSet": "ISO_IR 100",
      "StudyID": "1",
      "StudyTime": "131454.208000",
      "TransmitCoilName": "Body",
      "VariableFlipAngleFlag": "N",
      "WindowCenterWidthExplanation": "Algo1",
      "dBdt": 0.0},
    "slices": {}
  },
  "time": {
    "samples": {
      "AcquisitionNumber": [1, 2, 3, 4, 5, 6, 7, 8, 9, 10, 11, 12, 13, 14, 15, 16, 17, 18, 19, 20, 21, 22, 23, 24, 25, 26, 27, 28, 29, 30, 31, 32, 33, 34, 35, 36, 37, 38, 39, 40, 41, 42, 43, 44, 45, 46, 47, 48, 49, 50, 51, 52, 53, 54, 55, 56, 57, 58, 59, 60, 61, 62, 63, 64, 65, 66, 67, 68, 69, 70, 71, 72, 73, 74, 75, 76, 77, 78, 79, 80, 81, 82, 83, 84, 85, 86, 87, 88, 89, 90, 91, 92, 93, 94, 95, 96, 97, 98, 99, 100, 101, 102, 103, 104, 105, 106, 107, 108, 109, 110, 111, 112, 113, 114, 115, 116, 117, 118, 119, 120, 121, 122, 123, 124, 125, 126, 127, 128, 129, 130, 131, 132, 133, 134, 135, 136, 137, 138, 139, 140, 141, 142, 143, 144],
      "AcquisitionTime": ["140524.637500", "140526.127500", "140527.617500", "140529.107500", "140530.597500", "140532.087500", "140533.577500", "140535.067500", "140536.557500", "140538.047500", "140539.537500", "140541.027500", "140542.517500", "140544.007500", "140545.497500", "140546.987500", "140548.477500", "140549.967500", "140551.457500", "140552.947500", "140554.437500", "140555.927500", "140557.417500", "140558.907500", "140600.397500", "140601.887500", "140603.377500", "140604.867500", "140606.357500", "140607.847500", "140609.337500", "140610.827500", "140612.317500", "140613.807500", "140615.297500", "140616.787500", "140618.277500", "140619.767500", "140621.257500", "140622.747500", "140624.237500", "140625.727500", "140627.217500", "140628.707500", "140630.197500", "140631.687500", "140633.177500", "140634.667500", "140636.157500", "140637.647500", "140639.137500", "140640.627500", "140642.117500", "140643.607500", "140645.097500", "140646.587500", "140648.077500", "140649.567500", "140651.057500", "140652.547500", "140654.037500", "140655.527500", "140657.017500", "140658.507500", "140659.997500", "140701.487500", "140702.977500", "140704.467500", "140705.957500", "140707.447500", "140708.937500", "140710.427500", "140711.917500", "140713.407500", "140714.897500", "140716.387500", "140717.877500", "140719.367500", "140720.857500", "140722.347500", "140723.837500", "140725.327500", "140726.817500", "140728.307500", "140729.797500", "140731.287500", "140732.777500", "140734.267500", "140735.757500", "140737.247500", "140738.737500", "140740.227500", "140741.717500", "140743.207500", "140744.697500", "140746.187500", "140747.677500", "140749.167500", "140750.657500", "140752.147500", "140753.637500", "140755.127500", "140756.617500", "140758.107500", "140759.597500", "140801.087500", "140802.577500", "140804.067500", "140805.557500", "140807.047500", "140808.537500", "140810.027500", "140811.517500", "140813.007500", "140814.497500", "140815.987500", "140817.477500", "140818.967500", "140820.457500", "140821.947500", "140823.437500", "140824.927500", "140826.417500", "140827.907500", "140829.397500", "140830.887500", "140832.377500", "140833.867500", "140835.357500", "140836.847500", "140838.337500", "140839.827500", "140841.317500", "140842.807500", "140844.297500", "140845.787500", "140847.277500", "140848.767500", "140850.257500", "140851.747500", "140853.237500", "140854.727500", "140856.217500", "140857.707500"],
      "ContentTime": ["140658.149000", "140658.158000", "140658.160000", "140658.163000", "140658.166000", "140658.169000", "140658.172000", "140658.175000", "140658.178000", "140658.180000", "140658.183000", "140658.186000", "140658.189000", "140658.192000", "140658.195000", "140658.197000", "140658.200000", "140658.203000", "140658.206000", "140658.209000", "140658.212000", "140658.215000", "140658.218000", "140658.220000", "140658.223000", "140658.226000", "140658.229000", "140658.232000", "140658.240000", "140658.243000", "140658.245000", "140658.248000", "140658.251000", "140658.254000", "140658.257000", "140658.260000", "140658.263000", "140658.265000", "140718.106000", "140718.109000", "140718.112000", "140718.115000", "140718.118000", "140718.121000", "140718.123000", "140718.131000", "140718.134000", "140718.137000", "140718.140000", "140718.143000", "140718.146000", "140718.149000", "140718.152000", "140718.154000", "140718.157000", "140718.160000", "140718.163000", "140718.166000", "140738.106000", "140738.109000", "140738.112000", "140738.115000", "140738.122000", "140738.125000", "140738.128000", "140738.131000", "140738.147000", "140738.150000", "140738.152000", "140738.155000", "140738.158000", "140738.161000", "140738.164000", "140738.166000", "140738.169000", "140738.172000", "140738.175000", "140738.178000", "140758.107000", "140758.110000", "140758.113000", "140758.116000", "140758.119000", "140758.122000", "140758.124000", "140758.127000", "140758.130000", "140758.133000", "140758.136000", "140758.139000", "140758.142000", "140758.145000", "140758.148000", "140758.151000", "140758.154000", "140758.156000", "140758.159000", "140758.162000", "140838.107000", "140838.110000", "140838.113000", "140838.116000", "140838.119000", "140838.121000", "140838.124000", "140838.127000", "140838.130000", "140838.133000", "140838.136000", "140838.139000", "140838.141000", "140838.144000", "140838.147000", "140838.150000", "140838.153000", "140838.156000", "140838.159000", "140838.161000", "140838.164000", "140838.167000", "140838.170000", "140838.173000", "140838.176000", "140838.179000", "140838.181000", "140838.184000", "140838.187000", "140838.201000", "140838.204000", "140859.745000", "140859.748000", "140859.751000", "140859.754000", "140859.757000", "140859.760000", "140859.763000", "140859.766000", "140859.769000", "140859.772000", "140859.774000", "140859.777000", "140859.780000", "140859.783000", "140859.786000"],
      "InstanceCreationTime": ["140658.149000", "140658.158000", "140658.160000", "140658.163000", "140658.166000", "140658.169000", "140658.172000", "140658.175000", "140658.178000", "140658.180000", "140658.183000", "140658.186000", "140658.189000", "140658.192000", "140658.195000", "140658.197000", "140658.200000", "140658.203000", "140658.206000", "140658.209000", "140658.212000", "140658.215000", "140658.218000", "140658.220000", "140658.223000", "140658.226000", "140658.229000", "140658.232000", "140658.240000", "140658.243000", "140658.245000", "140658.248000", "140658.251000", "140658.254000", "140658.257000", "140658.260000", "140658.263000", "140658.265000", "140718.106000", "140718.109000", "140718.112000", "140718.115000", "140718.118000", "140718.121000", "140718.123000", "140718.131000", "140718.134000", "140718.137000", "140718.140000", "140718.143000", "140718.146000", "140718.149000", "140718.152000", "140718.154000", "140718.157000", "140718.160000", "140718.163000", "140718.166000", "140738.106000", "140738.109000", "140738.112000", "140738.115000", "140738.122000", "140738.125000", "140738.128000", "140738.131000", "140738.147000", "140738.150000", "140738.152000", "140738.155000", "140738.158000", "140738.161000", "140738.164000", "140738.166000", "140738.169000", "140738.172000", "140738.175000", "140738.178000", "140758.107000", "140758.110000", "140758.113000", "140758.116000", "140758.119000", "140758.122000", "140758.124000", "140758.127000", "140758.130000", "140758.133000", "140758.136000", "140758.139000", "140758.142000", "140758.145000", "140758.148000", "140758.151000", "140758.154000", "140758.156000", "140758.159000", "140758.162000", "140838.107000", "140838.110000", "140838.113000", "140838.116000", "140838.119000", "140838.121000", "140838.124000", "140838.127000", "140838.130000", "140838.133000", "140838.136000", "140838.139000", "140838.141000", "140838.144000", "140838.147000", "140838.150000", "140838.153000", "140838.156000", "140838.159000", "140838.161000", "140838.164000", "140838.167000", "140838.170000", "140838.173000", "140838.176000", "140838.179000", "140838.181000", "140838.184000", "140838.187000", "140838.201000", "140838.204000", "140859.745000", "140859.748000", "140859.751000", "140859.754000", "140859.757000", "140859.760000", "140859.763000", "140859.766000", "140859.769000", "140859.772000", "140859.774000", "140859.777000", "140859.780000", "140859.783000", "140859.786000"],
      "InstanceNumber": [1, 2, 3, 4, 5, 6, 7, 8, 9, 10, 11, 12, 13, 14, 15, 16, 17, 18, 19, 20, 21, 22, 23, 24, 25, 26, 27, 28, 29, 30, 31, 32, 33, 34, 35, 36, 37, 38, 39, 40, 41, 42, 43, 44, 45, 46, 47, 48, 49, 50, 51, 52, 53, 54, 55, 56, 57, 58, 59, 60, 61, 62, 63, 64, 65, 66, 67, 68, 69, 70, 71, 72, 73, 74, 75, 76, 77, 78, 79, 80, 81, 82, 83, 84, 85, 86, 87, 88, 89, 90, 91, 92, 93, 94, 95, 96, 97, 98, 99, 100, 101, 102, 103, 104, 105, 106, 107, 108, 109, 110, 111, 112, 113, 114, 115, 116, 117, 118, 119, 120, 121, 122, 123, 124, 125, 126, 127, 128, 129, 130, 131, 132, 133, 134, 135, 136, 137, 138, 139, 140, 141, 142, 143, 144],
      "LargestImagePixelValue": [47142, 45645, 45095, 44193, 44417, 43408, 43511, 43509, 43401, 43814, 43675, 43966, 43452, 43346, 43143, 43548, 43490, 43782, 43290, 43963, 43913, 43415, 43929, 43004, 43685, 43114, 43882, 44007, 44528, 43767, 44848, 43809, 44310, 43431, 44449, 44859, 43868, 44593, 43850, 43976, 43611, 44098, 44386, 44787, 43829, 44979, 43474, 44140, 44311, 43857, 43583, 43334, 42780, 43031, 43371, 43156, 43078, 43250, 43277, 44737, 43896, 44046, 44056, 44478, 44232, 44199, 44192, 44505, 43971, 44752, 44723, 44342, 45088, 44255, 44215, 44877, 45045, 44110, 44287, 44166, 43932, 43983, 43657, 44135, 43880, 43720, 43718, 44445, 43313, 44680, 43903, 44009, 44069, 43857, 44185, 43661, 44336, 43864, 43815, 43567, 44010, 43933, 44165, 43746, 43783, 44067, 44168, 43624, 44412, 43812, 44330, 44040, 44116, 43930, 44314, 43579, 43998, 43560, 44002, 44240, 43739, 43815, 44042, 44832, 43520, 44575, 43960, 43331, 44425, 42879, 43242, 43457, 43640, 43152, 43336, 43372, 43442, 43438, 43722, 43305, 43745, 43314, 43124, 43571],
      "WindowCenter": [11109.0, 11044.0, 11001.0, 10987.0, 10985.0, 11012.0, 11026.0, 11007.0, 10976.0, 10934.0, 10943.0, 10951.0, 10955.0, 10946.0, 10959.0, 10972.0, 10970.0, 10950.0, 10933.0, 10961.0, 10988.0, 10985.0, 10970.0, 10942.0, 10940.0, 10937.0, 10954.0, 10947.0, 10955.0, 10938.0, 10959.0, 10950.0, 10948.0, 10925.0, 10935.0, 10949.0, 10938.0, 10963.0, 11000.0, 11001.0, 11004.0, 10998.0, 10988.0, 10977.0, 10969.0, 10980.0, 10969.0, 10972.0, 10952.0, 10941.0, 10959.0, 10968.0, 10958.0, 10949.0, 10953.0, 10948.0, 10937.0, 10917.0, 10946.0, 10990.0, 11020.0, 11027.0, 10985.0, 10969.0, 10949.0, 10936.0, 10919.0, 10960.0, 11016.0, 11029.0, 10997.0, 10962.0, 10957.0, 10944.0, 10990.0, 11020.0, 11013.0, 10969.0, 10968.0, 11003.0, 11026.0, 11009.0, 10971.0, 10973.0, 10992.0, 11020.0, 11018.0, 11013.0, 10982.0, 10986.0, 10955.0, 10952.0, 10950.0, 10946.0, 10953.0, 10946.0, 10960.0, 10965.0, 10965.0, 10976.0, 10992.0, 10974.0, 10968.0, 10954.0, 10961.0, 10960.0, 10967.0, 10957.0, 10967.0, 10957.0, 10959.0, 10969.0, 10992.0, 10984.0, 10955.0, 10928.0, 10960.0, 10998.0, 10995.0, 10964.0, 10938.0, 10942.0, 10967.0, 10967.0, 10953.0, 10952.0, 10940.0, 10939.0, 10941.0, 10925.0, 10945.0, 10953.0, 10947.0, 10934.0, 10932.0, 10933.0, 10931.0, 10936.0, 10936.0, 10939.0, 10934.0, 10936.0, 10941.0, 10965.0],
      "WindowWidth": [23874.0, 23686.0, 23569.0, 23529.0, 23511.0, 23575.0, 23608.0, 23558.0, 23491.0, 23387.0, 23409.0, 23433.0, 23442.0, 23424.0, 23452.0, 23485.0, 23474.0, 23428.0, 23402.0, 23459.0, 23518.0, 23513.0, 23477.0, 23418.0, 23411.0, 23404.0, 23453.0, 23422.0, 23434.0, 23402.0, 23443.0, 23425.0, 23420.0, 23373.0, 23393.0, 23421.0, 23404.0, 23459.0, 23549.0, 23555.0, 23564.0, 23545.0, 23519.0, 23495.0, 23477.0, 23501.0, 23481.0, 23484.0, 23438.0, 23409.0, 23453.0, 23476.0, 23450.0, 23428.0, 23437.0, 23425.0, 23402.0, 23353.0, 23424.0, 23521.0, 23592.0, 23609.0, 23511.0, 23472.0, 23429.0, 23403.0, 23360.0, 23448.0, 23585.0, 23609.0, 23533.0, 23451.0, 23442.0, 23416.0, 23518.0, 23589.0, 23572.0, 23478.0, 23474.0, 23550.0, 23608.0, 23569.0, 23486.0, 23488.0, 23532.0, 23601.0, 23595.0, 23584.0, 23511.0, 23510.0, 23440.0, 23431.0, 23431.0, 23420.0, 23437.0, 23417.0, 23451.0, 23468.0, 23464.0, 23492.0, 23532.0, 23485.0, 23464.0, 23437.0, 23453.0, 23450.0, 23465.0, 23443.0, 23464.0, 23446.0, 23456.0, 23471.0, 23526.0, 23508.0, 23441.0, 23383.0, 23454.0, 23539.0, 23534.0, 23459.0, 23400.0, 23408.0, 23466.0, 23464.0, 23444.0, 23428.0, 23409.0, 23407.0, 23407.0, 23378.0, 23418.0, 23433.0, 23425.0, 23392.0, 23395.0, 23389.0, 23388.0, 23395.0, 23396.0, 23409.0, 23391.0, 23397.0, 23420.0, 23473.0]
    },
    "slices": {}
  }
}