{
  "AcquisitionMatrixPE": 104,
  "AcquisitionNumber": 1,
  "AcquisitionTime": "13:49:31.607500",
  "BandwidthPerPixelPhaseEncode": 17.17,
  "BaseResolution": 104,
  "BodyPartExamined": "BRAIN",
  "CoilString": "HC1-7;NC1_2",
  "ConsistencyInfo": "N4_VE11C_LATEST_20160120",
  "ConversionSoftware": "dcm2niix",
  "ConversionSoftwareVersion": "v1.0.20190720  (JP2:OpenJPEG) GCC7.3.0",
  "DerivedVendorReportedEchoSpacing": 0.000560011,
  "DeviceSerialNumber": "167006",
  "DwellTime": 2.1e-06,
  "EchoTime": 0.037,
  "EchoTrainLength": 104,
  "EffectiveEchoSpacing": 0.000560011,
  "FlipAngle": 52,
  "ImageComments": "Unaliased_MB4_PE3_LB",
  "ImageOrientationPatientDICOM": [0.999578, -0.0206751, 0.0203866, 0.0279207, 0.877132, -0.479438],
  "ImageType": [
    "ORIGINAL",
    "PRIMARY",
    "M",
    "MB",
    "ND",
    "MOSAIC"
],
  "ImagingFrequency": 123.259,
  "InPlanePhaseEncodingDirectionDICOM": "COL",
  "InstitutionAddress": "Chemin_Queen-Mary_4565_Montreal_District_CA_H3W_1W5",
  "InstitutionName": "IUGM",
  "InstitutionalDepartmentName": "Department",
  "MRAcquisitionType": "2D",
  "MagneticFieldStrength": 3,
  "Manufacturer": "Siemens",
  "ManufacturersModelName": "Prisma_fit",
  "Modality": "MR",
  "MultibandAccelerationFactor": 4,
  "PartialFourier": 1,
  "PatientPosition": "HFS",
  "PercentPhaseFOV": 100,
  "PhaseEncodingDirection": "j",
  "PhaseEncodingSteps": 104,
  "PhaseResolution": 1,
  "PixelBandwidth": 2290,
  "ProcedureStepDescription": "hcptrt_generic",
  "ProtocolName": "func_task-motor_run-1",
  "PulseSequenceDetails": "%CustomerSeq%_cmrr_mbep2d_bold",
  "ReceiveCoilActiveElements": "HC1-7;NC1,2",
  "ReceiveCoilName": "HeadNeck_64",
  "ReconMatrixPE": 104,
  "RepetitionTime": 1.49,
  "SAR": 0.0392442,
  "ScanOptions": "FS",
  "ScanningSequence": "EP",
  "SequenceName": "epfid2d1_104",
  "SequenceVariant": "SK_SS",
  "SeriesDescription": "func_task-motor_run-1",
  "SeriesNumber": 19,
  "ShimSetting": [621, -7200, -8865, 424, -12, -192, 18, -33],
  "SliceThickness": 2,
  "SliceTiming": [0, 0.7825, 0.0975, 0.8825, 0.195, 0.98, 0.295, 1.0775, 0.3925, 1.175, 0.49, 1.2725, 0.5875, 1.3725, 0.685, 0, 0.7825, 0.0975, 0.8825, 0.195, 0.98, 0.295, 1.0775, 0.3925, 1.175, 0.49, 1.2725, 0.5875, 1.3725, 0.685, 0, 0.7825, 0.0975, 0.8825, 0.195, 0.98, 0.295, 1.0775, 0.3925, 1.175, 0.49, 1.2725, 0.5875, 1.3725, 0.685, 0, 0.7825, 0.0975, 0.8825, 0.195, 0.98, 0.295, 1.0775, 0.3925, 1.175, 0.49, 1.2725, 0.5875, 1.3725, 0.685],
  "SoftwareVersions": "syngo_MR_E11",
  "SpacingBetweenSlices": 2,
  "StationName": "MRC35049",
  "TaskName": "motor",
  "TotalReadoutTime": 0.0576811,
  "TxRefAmp": 252.119,
  "WipMemBlock": "c97b70db-8fb4-4bd8-9f8c-9f1edac42ee1||Sequence: R016 ve11c/master r/e634e98; Dec 19 2017 11:00:25 by eja",
  "dcmmeta_affine": [
    [-1.9991567134857178, 0.05584142357110977, 0.01593863032758236, 98.97215270996094],
    [0.04135027527809143, 1.7542630434036255, -0.959609866142273, -62.65718078613281],
    [0.04077326878905296, 0.9588757753372192, 1.7546780109405518, -96.01033020019531],
    [0.0, 0.0, 0.0, 1.0]
],
  "dcmmeta_reorient_transform": [
    [0.0, -1.0, 0.0, 103.0],
    [1.0, 0.0, 0.0, 0.0],
    [0.0, 0.0, 1.0, 0.0],
    [0.0, 0.0, 0.0, 1.0]
],
  "dcmmeta_shape": [104, 104, 60, 144],
  "dcmmeta_slice_dim": 2,
  "dcmmeta_version": 0.6,
  "global": {
    "const": {
      "AcquisitionMatrix": [104, 0, 0, 104],
      "AngioFlag": "N",
      "BitsAllocated": 16,
      "BitsStored": 16,
      "BodyPartExamined": "BRAIN",
      "Columns": 832,
      "EchoNumbers": 1,
      "EchoTime": 37.0,
      "EchoTrainLength": 104,
      "FlipAngle": 52.0,
      "HighBit": 15,
      "ImageOrientationPatient": [0.99957837303829, -0.0206751376279, 0.02038663381208, 0.02792071211718, 0.87713154725436, -0.4794378819472],
      "ImagePositionPatient": [-852.74315643854, -741.53218584266, 336.94318498775],
      "ImageType": [
        "ORIGINAL",
        "PRIMARY",
        "M",
        "MB",
        "ND",
        "MOSAIC"
],
      "ImagedNucleus": "1H",
      "ImagingFrequency": 123.259245,
      "InPlanePhaseEncodingDirection": "COL",
      "MRAcquisitionType": "2D",
      "MagneticFieldStrength": 3.0,
      "Manufacturer": "SIEMENS",
      "ManufacturerModelName": "Prisma_fit",
      "Modality": "MR",
      "NumberOfAverages": 1.0,
      "NumberOfPhaseEncodingSteps": 104,
      "PercentPhaseFieldOfView": 100.0,
      "PercentSampling": 100.0,
      "PerformedProcedureStepStartTime": "131454.296000",
      "PhotometricInterpretation": "MONOCHROME2",
      "PixelBandwidth": 2290.0,
      "PixelRepresentation": 0,
      "PixelSpacing": [2.0, 2.0],
      "ProtocolName": "func_task-motor_run-1",
      "RepetitionTime": 1490.0,
      "Rows": 832,
      "SAR": 0.0392442032374,
      "SamplesPerPixel": 1,
      "ScanOptions": "FS",
      "ScanningSequence": "EP",
      "SequenceName": "epfid2d1_104",
      "SequenceVariant": [
        "SK",
        "SS"
],
      "SeriesDescription": "func_task-motor_run-1",
      "SeriesNumber": 19,
      "SeriesTime": "135055.008000",
      "SliceLocation": -53.381638717215,
      "SliceThickness": 2.0,
      "SmallestImagePixelValue": 0,
      "SoftwareVersions": "syngo MR E11",
      "SpacingBetweenSlices": 1.9999999997571,
      "SpecificCharacterSet": "ISO_IR 100",
      "StudyID": "1",
      "StudyTime": "131454.208000",
      "TransmitCoilName": "Body",
      "VariableFlipAngleFlag": "N",
      "WindowCenterWidthExplanation": "Algo1",
      "dBdt": 0.0},
    "slices": {}
  },
  "time": {
    "samples": {
      "AcquisitionNumber": [1, 2, 3, 4, 5, 6, 7, 8, 9, 10, 11, 12, 13, 14, 15, 16, 17, 18, 19, 20, 21, 22, 23, 24, 25, 26, 27, 28, 29, 30, 31, 32, 33, 34, 35, 36, 37, 38, 39, 40, 41, 42, 43, 44, 45, 46, 47, 48, 49, 50, 51, 52, 53, 54, 55, 56, 57, 58, 59, 60, 61, 62, 63, 64, 65, 66, 67, 68, 69, 70, 71, 72, 73, 74, 75, 76, 77, 78, 79, 80, 81, 82, 83, 84, 85, 86, 87, 88, 89, 90, 91, 92, 93, 94, 95, 96, 97, 98, 99, 100, 101, 102, 103, 104, 105, 106, 107, 108, 109, 110, 111, 112, 113, 114, 115, 116, 117, 118, 119, 120, 121, 122, 123, 124, 125, 126, 127, 128, 129, 130, 131, 132, 133, 134, 135, 136, 137, 138, 139, 140, 141, 142, 143, 144],
      "AcquisitionTime": ["134931.607500", "134933.097500", "134934.587500", "134936.077500", "134937.567500", "134939.057500", "134940.547500", "134942.037500", "134943.527500", "134945.017500", "134946.507500", "134947.997500", "134949.487500", "134950.977500", "134952.467500", "134953.957500", "134955.447500", "134956.937500", "134958.427500", "134959.917500", "135001.407500", "135002.897500", "135004.387500", "135005.877500", "135007.367500", "135008.857500", "135010.347500", "135011.837500", "135013.327500", "135014.817500", "135016.307500", "135017.797500", "135019.287500", "135020.777500", "135022.267500", "135023.757500", "135025.247500", "135026.737500", "135028.227500", "135029.717500", "135031.207500", "135032.697500", "135034.187500", "135035.677500", "135037.167500", "135038.657500", "135040.147500", "135041.637500", "135043.127500", "135044.617500", "135046.107500", "135047.597500", "135049.087500", "135050.577500", "135052.067500", "135053.557500", "135055.047500", "135056.537500", "135058.027500", "135059.517500", "135101.007500", "135102.497500", "135103.987500", "135105.477500", "135106.967500", "135108.457500", "135109.947500", "135111.437500", "135112.927500", "135114.417500", "135115.907500", "135117.397500", "135118.887500", "135120.377500", "135121.867500", "135123.357500", "135124.847500", "135126.337500", "135127.827500", "135129.317500", "135130.807500", "135132.297500", "135133.787500", "135135.277500", "135136.767500", "135138.257500", "135139.747500", "135141.237500", "135142.727500", "135144.217500", "135145.707500", "135147.197500", "135148.687500", "135150.177500", "135151.667500", "135153.157500", "135154.647500", "135156.137500", "135157.627500", "135159.117500", "135200.607500", "135202.097500", "135203.587500", "135205.077500", "135206.567500", "135208.057500", "135209.547500", "135211.037500", "135212.527500", "135214.017500", "135215.507500", "135216.997500", "135218.487500", "135219.977500", "135221.467500", "135222.957500", "135224.447500", "135225.937500", "135227.427500", "135228.917500", "135230.407500", "135231.897500", "135233.387500", "135234.877500", "135236.367500", "135237.857500", "135239.347500", "135240.837500", "135242.327500", "135243.817500", "135245.307500", "135246.797500", "135248.287500", "135249.777500", "135251.267500", "135252.757500", "135254.247500", "135255.737500", "135257.227500", "135258.717500", "135300.207500", "135301.697500", "135303.187500", "135304.677500"],
      "ContentTime": ["135055.010000", "135055.014000", "135055.017000", "135055.020000", "135055.022000", "135055.025000", "135055.028000", "135055.031000", "135055.034000", "135055.037000", "135055.040000", "135055.042000", "135055.045000", "135055.048000", "135055.059000", "135055.062000", "135055.064000", "135055.067000", "135055.070000", "135055.073000", "135055.078000", "135055.081000", "135055.084000", "135055.087000", "135055.090000", "135055.093000", "135055.096000", "135055.099000", "135055.102000", "135114.969000", "135114.976000", "135114.979000", "135114.982000", "135114.985000", "135114.988000", "135114.991000", "135114.994000", "135114.996000", "135115.000000", "135115.003000", "135115.006000", "135115.009000", "135115.012000", "135115.015000", "135115.017000", "135115.020000", "135115.023000", "135115.026000", "135115.029000", "135134.968000", "135134.971000", "135134.974000", "135134.977000", "135134.980000", "135134.982000", "135134.985000", "135134.988000", "135134.997000", "135134.999000", "135135.002000", "135135.005000", "135135.008000", "135135.011000", "135135.014000", "135135.016000", "135135.019000", "135135.022000", "135135.025000", "135135.028000", "135154.968000", "135154.971000", "135154.974000", "135154.977000", "135154.979000", "135154.982000", "135155.001000", "135155.004000", "135155.007000", "135155.010000", "135155.013000", "135155.015000", "135155.018000", "135155.021000", "135155.024000", "135155.027000", "135155.030000", "135155.032000", "135155.035000", "135155.038000", "135214.969000", "135214.972000", "135214.975000", "135214.978000", "135214.980000", "135214.983000", "135214.986000", "135214.992000", "135214.994000", "135214.997000", "135215.001000", "135215.004000", "135215.007000", "135215.010000", "135215.013000", "135215.015000", "135215.018000", "135215.021000", "135215.024000", "135215.027000", "135254.969000", "135254.972000", "135254.975000", "135254.978000", "135254.981000", "135254.983000", "135254.986000", "135254.989000", "135254.992000", "135254.995000", "135254.998000", "135255.002000", "135255.005000", "135255.008000", "135255.010000", "135255.013000", "135255.016000", "135255.019000", "135255.022000", "135255.025000", "135255.027000", "135255.030000", "135255.033000", "135255.036000", "135255.039000", "135255.042000", "135255.045000", "135306.818000", "135306.821000", "135306.824000", "135306.827000", "135306.830000", "135306.833000", "135306.836000", "135306.840000"],
      "InstanceCreationTime": ["135055.010000", "135055.014000", "135055.017000", "135055.020000", "135055.022000", "135055.025000", "135055.028000", "135055.031000", "135055.034000", "135055.037000", "135055.040000", "135055.042000", "135055.045000", "135055.048000", "135055.059000", "135055.062000", "135055.064000", "135055.067000", "135055.070000", "135055.073000", "135055.078000", "135055.081000", "135055.084000", "135055.087000", "135055.090000", "135055.093000", "135055.096000", "135055.099000", "135055.102000", "135114.969000", "135114.976000", "135114.979000", "135114.982000", "135114.985000", "135114.988000", "135114.991000", "135114.994000", "135114.996000", "135115.000000", "135115.003000", "135115.006000", "135115.009000", "135115.012000", "135115.015000", "135115.017000", "135115.020000", "135115.023000", "135115.026000", "135115.029000", "135134.968000", "135134.971000", "135134.974000", "135134.977000", "135134.980000", "135134.982000", "135134.985000", "135134.988000", "135134.997000", "135134.999000", "135135.002000", "135135.005000", "135135.008000", "135135.011000", "135135.014000", "135135.016000", "135135.019000", "135135.022000", "135135.025000", "135135.028000", "135154.968000", "135154.971000", "135154.974000", "135154.977000", "135154.979000", "135154.982000", "135155.001000", "135155.004000", "135155.007000", "135155.010000", "135155.013000", "135155.015000", "135155.018000", "135155.021000", "135155.024000", "135155.027000", "135155.030000", "135155.032000", "135155.035000", "135155.038000", "135214.969000", "135214.972000", "135214.975000", "135214.978000", "135214.980000", "135214.983000", "135214.986000", "135214.992000", "135214.994000", "135214.997000", "135215.001000", "135215.004000", "135215.007000", "135215.010000", "135215.013000", "135215.015000", "135215.018000", "135215.021000", "135215.024000", "135215.027000", "135254.969000", "135254.972000", "135254.975000", "135254.978000", "135254.981000", "135254.983000", "135254.986000", "135254.989000", "135254.992000", "135254.995000", "135254.998000", "135255.002000", "135255.005000", "135255.008000", "135255.010000", "135255.013000", "135255.016000", "135255.019000", "135255.022000", "135255.025000", "135255.027000", "135255.030000", "135255.033000", "135255.036000", "135255.039000", "135255.042000", "135255.045000", "135306.818000", "135306.821000", "135306.824000", "135306.827000", "135306.830000", "135306.833000", "135306.836000", "135306.840000"],
      "InstanceNumber": [1, 2, 3, 4, 5, 6, 7, 8, 9, 10, 11, 12, 13, 14, 15, 16, 17, 18, 19, 20, 21, 22, 23, 24, 25, 26, 27, 28, 29, 30, 31, 32, 33, 34, 35, 36, 37, 38, 39, 40, 41, 42, 43, 44, 45, 46, 47, 48, 49, 50, 51, 52, 53, 54, 55, 56, 57, 58, 59, 60, 61, 62, 63, 64, 65, 66, 67, 68, 69, 70, 71, 72, 73, 74, 75, 76, 77, 78, 79, 80, 81, 82, 83, 84, 85, 86, 87, 88, 89, 90, 91, 92, 93, 94, 95, 96, 97, 98, 99, 100, 101, 102, 103, 104, 105, 106, 107, 108, 109, 110, 111, 112, 113, 114, 115, 116, 117, 118, 119, 120, 121, 122, 123, 124, 125, 126, 127, 128, 129, 130, 131, 132, 133, 134, 135, 136, 137, 138, 139, 140, 141, 142, 143, 144],
      "LargestImagePixelValue": [48006, 46695, 44696, 45466, 47473, 45757, 43310, 43063, 43280, 43678, 43699, 43550, 43725, 43285, 43198, 43660, 43632, 43490, 43153, 43826, 43815, 44533, 43798, 43842, 43495, 43757, 43448, 43772, 42843, 43852, 43885, 42933, 43525, 43296, 43510, 43247, 43182, 44903, 44161, 44645, 44232, 44155, 44285, 44880, 44377, 44896, 44065, 44221, 44201, 44386, 44236, 44304, 44108, 45132, 44110, 44001, 43937, 44405, 43801, 44221, 44042, 43590, 43571, 44462, 43690, 43827, 43610, 43992, 43668, 42953, 43868, 43901, 43648, 43568, 43663, 44210, 44947, 44167, 44248, 44237, 44032, 43564, 43515, 43789, 43802, 44410, 43573, 43439, 43958, 44189, 44356, 44801, 44666, 44778, 44386, 44608, 44805, 44927, 43619, 44090, 45134, 44323, 44899, 44881, 44958, 44751, 44663, 45119, 44265, 43728, 43794, 43550, 43186, 43360, 43441, 43126, 43103, 43558, 43202, 43795, 44782, 43640, 45000, 44700, 44713, 44654, 44299, 44972, 43673, 43471, 44278, 43489, 43219, 43291, 43368, 43831, 43635, 43328, 44321, 43972, 43553, 44442, 44725, 44346],
      "WindowCenter": [11143.0, 11072.0, 11029.0, 11033.0, 11029.0, 11012.0, 11007.0, 11044.0, 11062.0, 11062.0, 11059.0, 11043.0, 11043.0, 11034.0, 11035.0, 11043.0, 11035.0, 11032.0, 11036.0, 11045.0, 11055.0, 11075.0, 11076.0, 11068.0, 11061.0, 11050.0, 11050.0, 11039.0, 11027.0, 11019.0, 11007.0, 10999.0, 11018.0, 11023.0, 11024.0, 10998.0, 10985.0, 11016.0, 11061.0, 11075.0, 11054.0, 11028.0, 11017.0, 11046.0, 11065.0, 11076.0, 11047.0, 11048.0, 11049.0, 11069.0, 11089.0, 11090.0, 11064.0, 11032.0, 11034.0, 11081.0, 11091.0, 11087.0, 11055.0, 11044.0, 11043.0, 11035.0, 11017.0, 11018.0, 11014.0, 11015.0, 11008.0, 11009.0, 10974.0, 11013.0, 11057.0, 11047.0, 11012.0, 11003.0, 10991.0, 11010.0, 11029.0, 11066.0, 11030.0, 11005.0, 11002.0, 10999.0, 11018.0, 11022.0, 11025.0, 11028.0, 11001.0, 11013.0, 11033.0, 11040.0, 11020.0, 11036.0, 11056.0, 11056.0, 11058.0, 11048.0, 11050.0, 11027.0, 11003.0, 11049.0, 11073.0, 11059.0, 11036.0, 11053.0, 11055.0, 11045.0, 11046.0, 11052.0, 11044.0, 11020.0, 11030.0, 11046.0, 11044.0, 11029.0, 11019.0, 11002.0, 11001.0, 11006.0, 11001.0, 11033.0, 11035.0, 11029.0, 11041.0, 11047.0, 11056.0, 11053.0, 11040.0, 11041.0, 11028.0, 11018.0, 11017.0, 11008.0, 11010.0, 11014.0, 11013.0, 10998.0, 10985.0, 10991.0, 11036.0, 11036.0, 11036.0, 11048.0, 11056.0, 11045.0],
      "WindowWidth": [23957.0, 23762.0, 23644.0, 23644.0, 23625.0, 23583.0, 23581.0, 23663.0, 23706.0, 23702.0, 23691.0, 23658.0, 23660.0, 23638.0, 23640.0, 23664.0, 23642.0, 23635.0, 23648.0, 23661.0, 23686.0, 23732.0, 23735.0, 23721.0, 23703.0, 23677.0, 23682.0, 23653.0, 23627.0, 23604.0, 23576.0, 23562.0, 23601.0, 23613.0, 23610.0, 23558.0, 23523.0, 23586.0, 23692.0, 23723.0, 23676.0, 23617.0, 23593.0, 23656.0, 23704.0, 23729.0, 23663.0, 23666.0, 23669.0, 23715.0, 23764.0, 23766.0, 23707.0, 23630.0, 23636.0, 23749.0, 23778.0, 23763.0, 23686.0, 23654.0, 23656.0, 23640.0, 23594.0, 23590.0, 23585.0, 23589.0, 23574.0, 23575.0, 23488.0, 23577.0, 23687.0, 23664.0, 23579.0, 23563.0, 23540.0, 23572.0, 23615.0, 23707.0, 23627.0, 23561.0, 23553.0, 23551.0, 23600.0, 23604.0, 23610.0, 23619.0, 23555.0, 23580.0, 23627.0, 23639.0, 23593.0, 23631.0, 23676.0, 23676.0, 23678.0, 23657.0, 23659.0, 23613.0, 23560.0, 23664.0, 23717.0, 23689.0, 23633.0, 23672.0, 23682.0, 23653.0, 23654.0, 23671.0, 23656.0, 23602.0, 23625.0, 23657.0, 23655.0, 23616.0, 23593.0, 23557.0, 23553.0, 23564.0, 23552.0, 23628.0, 23630.0, 23627.0, 23645.0, 23661.0, 23681.0, 23677.0, 23646.0, 23642.0, 23623.0, 23593.0, 23592.0, 23577.0, 23576.0, 23586.0, 23583.0, 23550.0, 23517.0, 23532.0, 23642.0, 23639.0, 23639.0, 23655.0, 23680.0, 23656.0]
    },
    "slices": {}
  }
}