{
  "AcquisitionMatrixPE": 104,
  "AcquisitionNumber": 1,
  "AcquisitionTime": "13:22:28.817500",
  "BandwidthPerPixelPhaseEncode": 17.17,
  "BaseResolution": 104,
  "BodyPartExamined": "BRAIN",
  "CoilString": "HC1-7;NC1_2",
  "ConsistencyInfo": "N4_VE11C_LATEST_20160120",
  "ConversionSoftware": "dcm2niix",
  "ConversionSoftwareVersion": "v1.0.20190720  (JP2:OpenJPEG) GCC7.3.0",
  "DerivedVendorReportedEchoSpacing": 0.000560011,
  "DeviceSerialNumber": "167006",
  "DwellTime": 2.1e-06,
  "EchoTime": 0.037,
  "EchoTrainLength": 104,
  "EffectiveEchoSpacing": 0.000560011,
  "FlipAngle": 52,
  "ImageComments": "Unaliased_MB4_PE3_LB",
  "ImageOrientationPatientDICOM": [0.999578, -0.0206751, 0.0203866, 0.0279207, 0.877132, -0.479438],
  "ImageType": [
    "ORIGINAL",
    "PRIMARY",
    "M",
    "MB",
    "ND",
    "MOSAIC"
],
  "ImagingFrequency": 123.259,
  "InPlanePhaseEncodingDirectionDICOM": "COL",
  "InstitutionAddress": "Chemin_Queen-Mary_4565_Montreal_District_CA_H3W_1W5",
  "InstitutionName": "IUGM",
  "InstitutionalDepartmentName": "Department",
  "MRAcquisitionType": "2D",
  "MagneticFieldStrength": 3,
  "Manufacturer": "Siemens",
  "ManufacturersModelName": "Prisma_fit",
  "Modality": "MR",
  "MultibandAccelerationFactor": 4,
  "PartialFourier": 1,
  "PatientPosition": "HFS",
  "PercentPhaseFOV": 100,
  "PhaseEncodingDirection": "j",
  "PhaseEncodingSteps": 104,
  "PhaseResolution": 1,
  "PixelBandwidth": 2290,
  "ProcedureStepDescription": "hcptrt_generic",
  "ProtocolName": "func_task-language_run-1",
  "PulseSequenceDetails": "%CustomerSeq%_cmrr_mbep2d_bold",
  "ReceiveCoilActiveElements": "HC1-7;NC1,2",
  "ReceiveCoilName": "HeadNeck_64",
  "ReconMatrixPE": 104,
  "RepetitionTime": 1.49,
  "SAR": 0.0392924,
  "ScanOptions": "FS",
  "ScanningSequence": "EP",
  "SequenceName": "epfid2d1_104",
  "SequenceVariant": "SK_SS",
  "SeriesDescription": "func_task-language_run-1",
  "SeriesNumber": 7,
  "ShimSetting": [621, -7200, -8865, 424, -12, -192, 18, -33],
  "SliceThickness": 2,
  "SliceTiming": [0, 0.785, 0.1, 0.8825, 0.1975, 0.98, 0.295, 1.08, 0.3925, 1.1775, 0.49, 1.275, 0.59, 1.3725, 0.6875, 0, 0.785, 0.1, 0.8825, 0.1975, 0.98, 0.295, 1.08, 0.3925, 1.1775, 0.49, 1.275, 0.59, 1.3725, 0.6875, 0, 0.785, 0.1, 0.8825, 0.1975, 0.98, 0.295, 1.08, 0.3925, 1.1775, 0.49, 1.275, 0.59, 1.3725, 0.6875, 0, 0.785, 0.1, 0.8825, 0.1975, 0.98, 0.295, 1.08, 0.3925, 1.1775, 0.49, 1.275, 0.59, 1.3725, 0.6875],
  "SoftwareVersions": "syngo_MR_E11",
  "SpacingBetweenSlices": 2,
  "StationName": "MRC35049",
  "TaskName": "language",
  "TotalReadoutTime": 0.0576811,
  "TxRefAmp": 252.119,
  "WipMemBlock": "283d6ea7-7605-4b57-a6d5-6f7579165bea||Sequence: R016 ve11c/master r/e634e98; Dec 19 2017 11:00:25 by eja",
  "dcmmeta_affine": [
    [-1.9991567134857178, 0.05584142357110977, 0.01593863032758236, 98.97215270996094],
    [0.04135027527809143, 1.7542630434036255, -0.959609866142273, -62.65718078613281],
    [0.04077326878905296, 0.9588757753372192, 1.7546780109405518, -96.01033020019531],
    [0.0, 0.0, 0.0, 1.0]
],
  "dcmmeta_reorient_transform": [
    [0.0, -1.0, 0.0, 103.0],
    [1.0, 0.0, 0.0, 0.0],
    [0.0, 0.0, 1.0, 0.0],
    [0.0, 0.0, 0.0, 1.0]
],
  "dcmmeta_shape": [104, 104, 60, 159],
  "dcmmeta_slice_dim": 2,
  "dcmmeta_version": 0.6,
  "global": {
    "const": {
      "AcquisitionMatrix": [104, 0, 0, 104],
      "AngioFlag": "N",
      "BitsAllocated": 16,
      "BitsStored": 16,
      "BodyPartExamined": "BRAIN",
      "Columns": 832,
      "EchoNumbers": 1,
      "EchoTime": 37.0,
      "EchoTrainLength": 104,
      "FlipAngle": 52.0,
      "HighBit": 15,
      "ImageOrientationPatient": [0.99957837303829, -0.0206751376279, 0.02038663381208, 0.02792071211718, 0.87713154725436, -0.4794378819472],
      "ImagePositionPatient": [-852.74315643854, -741.53218584266, 336.94318498775],
      "ImageType": [
        "ORIGINAL",
        "PRIMARY",
        "M",
        "MB",
        "ND",
        "MOSAIC"
],
      "ImagedNucleus": "1H",
      "ImagingFrequency": 123.259231,
      "InPlanePhaseEncodingDirection": "COL",
      "MRAcquisitionType": "2D",
      "MagneticFieldStrength": 3.0,
      "Manufacturer": "SIEMENS",
      "ManufacturerModelName": "Prisma_fit",
      "Modality": "MR",
      "NumberOfAverages": 1.0,
      "NumberOfPhaseEncodingSteps": 104,
      "PercentPhaseFieldOfView": 100.0,
      "PercentSampling": 100.0,
      "PerformedProcedureStepStartTime": "131454.296000",
      "PhotometricInterpretation": "MONOCHROME2",
      "PixelBandwidth": 2290.0,
      "PixelRepresentation": 0,
      "PixelSpacing": [2.0, 2.0],
      "ProtocolName": "func_task-language_run-1",
      "RepetitionTime": 1490.0,
      "Rows": 832,
      "SAR": 0.03929243135163,
      "SamplesPerPixel": 1,
      "ScanOptions": "FS",
      "ScanningSequence": "EP",
      "SequenceName": "epfid2d1_104",
      "SequenceVariant": [
        "SK",
        "SS"
],
      "SeriesDescription": "func_task-language_run-1",
      "SeriesNumber": 7,
      "SeriesTime": "132354.997000",
      "SliceLocation": -53.381638717215,
      "SliceThickness": 2.0,
      "SmallestImagePixelValue": 0,
      "SoftwareVersions": "syngo MR E11",
      "SpacingBetweenSlices": 1.9999999997571,
      "SpecificCharacterSet": "ISO_IR 100",
      "StudyID": "1",
      "StudyTime": "131454.208000",
      "TransmitCoilName": "Body",
      "VariableFlipAngleFlag": "N",
      "WindowCenterWidthExplanation": "Algo1",
      "dBdt": 0.0},
    "slices": {}
  },
  "time": {
    "samples": {
      "AcquisitionNumber": [1, 2, 3, 4, 5, 6, 7, 8, 9, 10, 11, 12, 13, 14, 15, 16, 17, 18, 19, 20, 21, 22, 23, 24, 25, 26, 27, 28, 29, 30, 31, 32, 33, 34, 35, 36, 37, 38, 39, 40, 41, 42, 43, 44, 45, 46, 47, 48, 49, 50, 51, 52, 53, 54, 55, 56, 57, 58, 59, 60, 61, 62, 63, 64, 65, 66, 67, 68, 69, 70, 71, 72, 73, 74, 75, 76, 77, 78, 79, 80, 81, 82, 83, 84, 85, 86, 87, 88, 89, 90, 91, 92, 93, 94, 95, 96, 97, 98, 99, 100, 101, 102, 103, 104, 105, 106, 107, 108, 109, 110, 111, 112, 113, 114, 115, 116, 117, 118, 119, 120, 121, 122, 123, 124, 125, 126, 127, 128, 129, 130, 131, 132, 133, 134, 135, 136, 137, 138, 139, 140, 141, 142, 143, 144, 145, 146, 147, 148, 149, 150, 151, 152, 153, 154, 155, 156, 157, 158, 159],
      "AcquisitionTime": ["132228.817500", "132230.307500", "132231.797500", "132233.287500", "132234.777500", "132236.267500", "132237.757500", "132239.247500", "132240.737500", "132242.227500", "132243.717500", "132245.207500", "132246.697500", "132248.187500", "132249.677500", "132251.167500", "132252.657500", "132254.147500", "132255.637500", "132257.127500", "132258.617500", "132300.107500", "132301.597500", "132303.087500", "132304.577500", "132306.067500", "132307.557500", "132309.047500", "132310.537500", "132312.027500", "132313.517500", "132315.007500", "132316.497500", "132317.987500", "132319.477500", "132320.967500", "132322.457500", "132323.947500", "132325.437500", "132326.927500", "132328.417500", "132329.907500", "132331.397500", "132332.887500", "132334.377500", "132335.867500", "132337.357500", "132338.847500", "132340.337500", "132341.827500", "132343.317500", "132344.807500", "132346.297500", "132347.787500", "132349.277500", "132350.767500", "132352.257500", "132353.747500", "132355.237500", "132356.727500", "132358.217500", "132359.707500", "132401.197500", "132402.687500", "132404.177500", "132405.667500", "132407.157500", "132408.647500", "132410.137500", "132411.627500", "132413.117500", "132414.607500", "132416.097500", "132417.587500", "132419.077500", "132420.567500", "132422.057500", "132423.547500", "132425.037500", "132426.527500", "132428.017500", "132429.507500", "132430.997500", "132432.487500", "132433.977500", "132435.467500", "132436.957500", "132438.447500", "132439.937500", "132441.427500", "132442.917500", "132444.407500", "132445.897500", "132447.387500", "132448.877500", "132450.367500", "132451.857500", "132453.347500", "132454.837500", "132456.327500", "132457.817500", "132459.307500", "132500.797500", "132502.287500", "132503.777500", "132505.267500", "132506.757500", "132508.247500", "132509.737500", "132511.227500", "132512.717500", "132514.207500", "132515.697500", "132517.187500", "132518.677500", "132520.167500", "132521.657500", "132523.147500", "132524.637500", "132526.127500", "132527.617500", "132529.107500", "132530.597500", "132532.087500", "132533.577500", "132535.067500", "132536.557500", "132538.047500", "132539.537500", "132541.027500", "132542.517500", "132544.007500", "132545.497500", "132546.987500", "132548.477500", "132549.967500", "132551.457500", "132552.947500", "132554.437500", "132555.927500", "132557.417500", "132558.907500", "132600.397500", "132601.887500", "132603.377500", "132604.867500", "132606.357500", "132607.847500", "132609.337500", "132610.827500", "132612.317500", "132613.807500", "132615.297500", "132616.787500", "132618.277500", "132619.767500", "132621.257500", "132622.747500", "132624.237500"],
      "ContentTime": ["132355.001000", "132355.014000", "132355.017000", "132355.022000", "132355.025000", "132355.028000", "132355.031000", "132355.034000", "132355.036000", "132355.039000", "132355.042000", "132355.045000", "132355.048000", "132355.051000", "132355.054000", "132355.057000", "132355.059000", "132355.064000", "132355.067000", "132355.070000", "132355.080000", "132355.083000", "132355.086000", "132355.089000", "132355.092000", "132355.095000", "132355.098000", "132355.101000", "132355.104000", "132414.969000", "132414.972000", "132414.975000", "132414.977000", "132414.980000", "132414.983000", "132414.986000", "132414.989000", "132414.992000", "132414.994000", "132414.997000", "132415.000000", "132415.003000", "132415.006000", "132415.009000", "132415.012000", "132415.014000", "132415.017000", "132415.020000", "132415.023000", "132434.969000", "132434.983000", "132434.986000", "132435.002000", "132435.004000", "132435.007000", "132435.010000", "132435.013000", "132435.016000", "132435.018000", "132435.021000", "132435.024000", "132435.027000", "132435.030000", "132435.033000", "132435.036000", "132435.039000", "132435.042000", "132435.045000", "132435.048000", "132454.969000", "132454.977000", "132454.980000", "132454.989000", "132454.992000", "132454.994000", "132454.997000", "132455.001000", "132455.004000", "132455.007000", "132455.010000", "132455.013000", "132455.016000", "132455.018000", "132455.021000", "132455.024000", "132455.027000", "132455.030000", "132455.033000", "132455.035000", "132455.038000", "132514.969000", "132514.972000", "132514.975000", "132514.978000", "132514.981000", "132514.984000", "132514.987000", "132514.990000", "132514.993000", "132514.996000", "132514.998000", "132515.002000", "132515.011000", "132515.014000", "132515.017000", "132515.019000", "132515.022000", "132515.025000", "132515.028000", "132515.031000", "132554.968000", "132554.971000", "132554.974000", "132554.977000", "132554.980000", "132554.982000", "132554.985000", "132554.988000", "132554.991000", "132554.994000", "132554.997000", "132555.000000", "132555.002000", "132555.005000", "132555.008000", "132555.011000", "132555.014000", "132555.017000", "132555.019000", "132555.022000", "132555.025000", "132555.028000", "132555.031000", "132555.034000", "132555.037000", "132555.039000", "132555.042000", "132626.637000", "132626.640000", "132626.643000", "132626.646000", "132626.649000", "132626.652000", "132626.654000", "132626.657000", "132626.660000", "132626.663000", "132626.666000", "132626.669000", "132626.672000", "132626.674000", "132626.677000", "132626.680000", "132626.683000", "132626.686000", "132626.689000", "132626.692000", "132626.695000", "132626.698000"],
      "InstanceCreationTime": ["132355.001000", "132355.014000", "132355.017000", "132355.022000", "132355.025000", "132355.028000", "132355.031000", "132355.034000", "132355.036000", "132355.039000", "132355.042000", "132355.045000", "132355.048000", "132355.051000", "132355.054000", "132355.057000", "132355.059000", "132355.064000", "132355.067000", "132355.070000", "132355.080000", "132355.083000", "132355.086000", "132355.089000", "132355.092000", "132355.095000", "132355.098000", "132355.101000", "132355.104000", "132414.969000", "132414.972000", "132414.975000", "132414.977000", "132414.980000", "132414.983000", "132414.986000", "132414.989000", "132414.992000", "132414.994000", "132414.997000", "132415.000000", "132415.003000", "132415.006000", "132415.009000", "132415.012000", "132415.014000", "132415.017000", "132415.020000", "132415.023000", "132434.969000", "132434.983000", "132434.986000", "132435.002000", "132435.004000", "132435.007000", "132435.010000", "132435.013000", "132435.016000", "132435.018000", "132435.021000", "132435.024000", "132435.027000", "132435.030000", "132435.033000", "132435.036000", "132435.039000", "132435.042000", "132435.045000", "132435.048000", "132454.969000", "132454.977000", "132454.980000", "132454.989000", "132454.992000", "132454.994000", "132454.997000", "132455.001000", "132455.004000", "132455.007000", "132455.010000", "132455.013000", "132455.016000", "132455.018000", "132455.021000", "132455.024000", "132455.027000", "132455.030000", "132455.033000", "132455.035000", "132455.038000", "132514.969000", "132514.972000", "132514.975000", "132514.978000", "132514.981000", "132514.984000", "132514.987000", "132514.990000", "132514.993000", "132514.996000", "132514.998000", "132515.002000", "132515.011000", "132515.014000", "132515.017000", "132515.019000", "132515.022000", "132515.025000", "132515.028000", "132515.031000", "132554.968000", "132554.971000", "132554.974000", "132554.977000", "132554.980000", "132554.982000", "132554.985000", "132554.988000", "132554.991000", "132554.994000", "132554.997000", "132555.000000", "132555.002000", "132555.005000", "132555.008000", "132555.011000", "132555.014000", "132555.017000", "132555.019000", "132555.022000", "132555.025000", "132555.028000", "132555.031000", "132555.034000", "132555.037000", "132555.039000", "132555.042000", "132626.637000", "132626.640000", "132626.643000", "132626.646000", "132626.649000", "132626.652000", "132626.654000", "132626.657000", "132626.660000", "132626.663000", "132626.666000", "132626.669000", "132626.672000", "132626.674000", "132626.677000", "132626.680000", "132626.683000", "132626.686000", "132626.689000", "132626.692000", "132626.695000", "132626.698000"],
      "InstanceNumber": [1, 2, 3, 4, 5, 6, 7, 8, 9, 10, 11, 12, 13, 14, 15, 16, 17, 18, 19, 20, 21, 22, 23, 24, 25, 26, 27, 28, 29, 30, 31, 32, 33, 34, 35, 36, 37, 38, 39, 40, 41, 42, 43, 44, 45, 46, 47, 48, 49, 50, 51, 52, 53, 54, 55, 56, 57, 58, 59, 60, 61, 62, 63, 64, 65, 66, 67, 68, 69, 70, 71, 72, 73, 74, 75, 76, 77, 78, 79, 80, 81, 82, 83, 84, 85, 86, 87, 88, 89, 90, 91, 92, 93, 94, 95, 96, 97, 98, 99, 100, 101, 102, 103, 104, 105, 106, 107, 108, 109, 110, 111, 112, 113, 114, 115, 116, 117, 118, 119, 120, 121, 122, 123, 124, 125, 126, 127, 128, 129, 130, 131, 132, 133, 134, 135, 136, 137, 138, 139, 140, 141, 142, 143, 144, 145, 146, 147, 148, 149, 150, 151, 152, 153, 154, 155, 156, 157, 158, 159],
      "LargestImagePixelValue": [47479, 47206, 47000, 46503, 46236, 45101, 45943, 44655, 45271, 45097, 46581, 45492, 45618, 45246, 45709, 45177, 46031, 44939, 46364, 45352, 45823, 45508, 44945, 44897, 44873, 44261, 45170, 44451, 44066, 44602, 44175, 44840, 44161, 44772, 44095, 43847, 44376, 44372, 44231, 44723, 44381, 44533, 44604, 44230, 44868, 44069, 44748, 44411, 44739, 44325, 44981, 44654, 44864, 44940, 45013, 45077, 44809, 45121, 45082, 45056, 44601, 45221, 44939, 44744, 44575, 44124, 44929, 44521, 44509, 44331, 44472, 43783, 44318, 43486, 44444, 44411, 44102, 44616, 44001, 44518, 43753, 44522, 44082, 44512, 44034, 44319, 44401, 44142, 44553, 44111, 44792, 44116, 45058, 44349, 44570, 44432, 44066, 44319, 43936, 43769, 44264, 44351, 43959, 44467, 43976, 44369, 44302, 44001, 45071, 45305, 45466, 44833, 44557, 45057, 45682, 44440, 44879, 43844, 45112, 44164, 45556, 45800, 44852, 46217, 45066, 45299, 45821, 45536, 44882, 45267, 43955, 45221, 45095, 45426, 45459, 45488, 45342, 45922, 45966, 45973, 45745, 45591, 45410, 45107, 45921, 45636, 45903, 46019, 45731, 45745, 44840, 44908, 44740, 45023, 45522, 45644, 44959, 45189, 45511],
      "WindowCenter": [11186.0, 11169.0, 11191.0, 11177.0, 11143.0, 11092.0, 11116.0, 11154.0, 11161.0, 11144.0, 11113.0, 11102.0, 11110.0, 11106.0, 11097.0, 11097.0, 11117.0, 11117.0, 11134.0, 11126.0, 11127.0, 11142.0, 11148.0, 11147.0, 11148.0, 11121.0, 11129.0, 11124.0, 11126.0, 11141.0, 11127.0, 11131.0, 11122.0, 11133.0, 11122.0, 11113.0, 11117.0, 11125.0, 11128.0, 11141.0, 11135.0, 11143.0, 11117.0, 11130.0, 11155.0, 11160.0, 11157.0, 11133.0, 11112.0, 11102.0, 11098.0, 11090.0, 11090.0, 11098.0, 11106.0, 11124.0, 11121.0, 11115.0, 11114.0, 11123.0, 11134.0, 11131.0, 11120.0, 11126.0, 11124.0, 11132.0, 11129.0, 11114.0, 11115.0, 11130.0, 11147.0, 11143.0, 11135.0, 11120.0, 11121.0, 11105.0, 11112.0, 11122.0, 11125.0, 11122.0, 11111.0, 11116.0, 11108.0, 11105.0, 11100.0, 11093.0, 11098.0, 11092.0, 11086.0, 11081.0, 11093.0, 11087.0, 11089.0, 11092.0, 11095.0, 11103.0, 11108.0, 11103.0, 11102.0, 11095.0, 11105.0, 11105.0, 11104.0, 11105.0, 11108.0, 11108.0, 11107.0, 11118.0, 11144.0, 11144.0, 11130.0, 11113.0, 11090.0, 11093.0, 11107.0, 11104.0, 11103.0, 11102.0, 11113.0, 11110.0, 11116.0, 11117.0, 11098.0, 11105.0, 11101.0, 11098.0, 11112.0, 11119.0, 11123.0, 11123.0, 11103.0, 11124.0, 11140.0, 11136.0, 11126.0, 11113.0, 11113.0, 11128.0, 11145.0, 11150.0, 11142.0, 11144.0, 11135.0, 11121.0, 11139.0, 11142.0, 11148.0, 11139.0, 11131.0, 11131.0, 11128.0, 11122.0, 11122.0, 11138.0, 11143.0, 11143.0, 11126.0, 11122.0, 11124.0],
      "WindowWidth": [24047.0, 23974.0, 24006.0, 23968.0, 23886.0, 23765.0, 23815.0, 23908.0, 23922.0, 23880.0, 23799.0, 23777.0, 23795.0, 23787.0, 23767.0, 23767.0, 23812.0, 23814.0, 23850.0, 23837.0, 23839.0, 23871.0, 23890.0, 23885.0, 23891.0, 23830.0, 23845.0, 23830.0, 23838.0, 23876.0, 23843.0, 23849.0, 23833.0, 23854.0, 23831.0, 23810.0, 23815.0, 23831.0, 23838.0, 23869.0, 23854.0, 23874.0, 23813.0, 23844.0, 23902.0, 23918.0, 23909.0, 23852.0, 23800.0, 23777.0, 23768.0, 23747.0, 23746.0, 23762.0, 23779.0, 23825.0, 23819.0, 23805.0, 23801.0, 23822.0, 23852.0, 23843.0, 23820.0, 23834.0, 23828.0, 23849.0, 23840.0, 23804.0, 23806.0, 23840.0, 23880.0, 23872.0, 23851.0, 23820.0, 23817.0, 23786.0, 23798.0, 23822.0, 23831.0, 23827.0, 23801.0, 23808.0, 23790.0, 23782.0, 23771.0, 23754.0, 23764.0, 23751.0, 23735.0, 23723.0, 23749.0, 23737.0, 23738.0, 23749.0, 23758.0, 23776.0, 23789.0, 23779.0, 23777.0, 23759.0, 23779.0, 23780.0, 23779.0, 23780.0, 23791.0, 23787.0, 23785.0, 23813.0, 23869.0, 23871.0, 23833.0, 23794.0, 23742.0, 23747.0, 23777.0, 23773.0, 23770.0, 23774.0, 23793.0, 23792.0, 23801.0, 23803.0, 23759.0, 23769.0, 23762.0, 23753.0, 23786.0, 23804.0, 23816.0, 23819.0, 23778.0, 23819.0, 23857.0, 23847.0, 23820.0, 23785.0, 23787.0, 23821.0, 23860.0, 23873.0, 23856.0, 23863.0, 23844.0, 23811.0, 23850.0, 23856.0, 23868.0, 23845.0, 23825.0, 23824.0, 23823.0, 23813.0, 23812.0, 23853.0, 23863.0, 23863.0, 23828.0, 23816.0, 23819.0]
    },
    "slices": {}
  }
}