{
  "AcquisitionMatrixPE": 104,
  "AcquisitionNumber": 1,
  "AcquisitionTime": "13:31:24.412500",
  "BandwidthPerPixelPhaseEncode": 17.17,
  "BaseResolution": 104,
  "BodyPartExamined": "BRAIN",
  "CoilString": "HC1-7;NC1_2",
  "ConsistencyInfo": "N4_VE11C_LATEST_20160120",
  "ConversionSoftware": "dcm2niix",
  "ConversionSoftwareVersion": "v1.0.20190720  (JP2:OpenJPEG) GCC7.3.0",
  "DerivedVendorReportedEchoSpacing": 0.000560011,
  "DeviceSerialNumber": "167006",
  "DwellTime": 2.1e-06,
  "EchoTime": 0.037,
  "EchoTrainLength": 104,
  "EffectiveEchoSpacing": 0.000560011,
  "FlipAngle": 52,
  "ImageComments": "Unaliased_MB4_PE3_LB",
  "ImageOrientationPatientDICOM": [0.999578, -0.0206751, 0.0203866, 0.0279207, 0.877132, -0.479438],
  "ImageType": [
    "ORIGINAL",
    "PRIMARY",
    "M",
    "MB",
    "ND",
    "MOSAIC"
],
  "ImagingFrequency": 123.259,
  "InPlanePhaseEncodingDirectionDICOM": "COL",
  "InstitutionAddress": "Chemin_Queen-Mary_4565_Montreal_District_CA_H3W_1W5",
  "InstitutionName": "IUGM",
  "InstitutionalDepartmentName": "Department",
  "MRAcquisitionType": "2D",
  "MagneticFieldStrength": 3,
  "Manufacturer": "Siemens",
  "ManufacturersModelName": "Prisma_fit",
  "Modality": "MR",
  "MultibandAccelerationFactor": 4,
  "PartialFourier": 1,
  "PatientPosition": "HFS",
  "PercentPhaseFOV": 100,
  "PhaseEncodingDirection": "j",
  "PhaseEncodingSteps": 104,
  "PhaseResolution": 1,
  "PixelBandwidth": 2290,
  "ProcedureStepDescription": "hcptrt_generic",
  "ProtocolName": "func_task-social_run-1",
  "PulseSequenceDetails": "%CustomerSeq%_cmrr_mbep2d_bold",
  "ReceiveCoilActiveElements": "HC1-7;NC1,2",
  "ReceiveCoilName": "HeadNeck_64",
  "ReconMatrixPE": 104,
  "RepetitionTime": 1.49,
  "SAR": 0.0392259,
  "ScanOptions": "FS",
  "ScanningSequence": "EP",
  "SequenceName": "epfid2d1_104",
  "SequenceVariant": "SK_SS",
  "SeriesDescription": "func_task-social_run-1",
  "SeriesNumber": 11,
  "ShimSetting": [621, -7200, -8865, 424, -12, -192, 18, -33],
  "SliceThickness": 2,
  "SliceTiming": [0, 0.785, 0.0975, 0.8825, 0.1975, 0.98, 0.295, 1.0775, 0.3925, 1.1775, 0.49, 1.275, 0.5875, 1.3725, 0.6875, 0, 0.785, 0.0975, 0.8825, 0.1975, 0.98, 0.295, 1.0775, 0.3925, 1.1775, 0.49, 1.275, 0.5875, 1.3725, 0.6875, 0, 0.785, 0.0975, 0.8825, 0.1975, 0.98, 0.295, 1.0775, 0.3925, 1.1775, 0.49, 1.275, 0.5875, 1.3725, 0.6875, 0, 0.785, 0.0975, 0.8825, 0.1975, 0.98, 0.295, 1.0775, 0.3925, 1.1775, 0.49, 1.275, 0.5875, 1.3725, 0.6875],
  "SoftwareVersions": "syngo_MR_E11",
  "SpacingBetweenSlices": 2,
  "StationName": "MRC35049",
  "TaskName": "social",
  "TotalReadoutTime": 0.0576811,
  "TxRefAmp": 252.119,
  "WipMemBlock": "03112ae9-0d7d-4a7e-ab4a-f24ac60cbd7d||Sequence: R016 ve11c/master r/e634e98; Dec 19 2017 11:00:25 by eja",
  "dcmmeta_affine": [
    [-1.9991567134857178, 0.05584142357110977, 0.01593863032758236, 98.97215270996094],
    [0.04135027527809143, 1.7542630434036255, -0.959609866142273, -62.65718078613281],
    [0.04077326878905296, 0.9588757753372192, 1.7546780109405518, -96.01033020019531],
    [0.0, 0.0, 0.0, 1.0]
],
  "dcmmeta_reorient_transform": [
    [0.0, -1.0, 0.0, 103.0],
    [1.0, 0.0, 0.0, 0.0],
    [0.0, 0.0, 1.0, 0.0],
    [0.0, 0.0, 0.0, 1.0]
],
  "dcmmeta_shape": [104, 104, 60, 139],
  "dcmmeta_slice_dim": 2,
  "dcmmeta_version": 0.6,
  "global": {
    "const": {
      "AcquisitionMatrix": [104, 0, 0, 104],
      "AngioFlag": "N",
      "BitsAllocated": 16,
      "BitsStored": 16,
      "BodyPartExamined": "BRAIN",
      "Columns": 832,
      "EchoNumbers": 1,
      "EchoTime": 37.0,
      "EchoTrainLength": 104,
      "FlipAngle": 52.0,
      "HighBit": 15,
      "ImageOrientationPatient": [0.99957837303829, -0.0206751376279, 0.02038663381208, 0.02792071211718, 0.87713154725436, -0.4794378819472],
      "ImagePositionPatient": [-852.74315643854, -741.53218584266, 336.94318498775],
      "ImageType": [
        "ORIGINAL",
        "PRIMARY",
        "M",
        "MB",
        "ND",
        "MOSAIC"
],
      "ImagedNucleus": "1H",
      "ImagingFrequency": 123.259238,
      "InPlanePhaseEncodingDirection": "COL",
      "MRAcquisitionType": "2D",
      "MagneticFieldStrength": 3.0,
      "Manufacturer": "SIEMENS",
      "ManufacturerModelName": "Prisma_fit",
      "Modality": "MR",
      "NumberOfAverages": 1.0,
      "NumberOfPhaseEncodingSteps": 104,
      "PercentPhaseFieldOfView": 100.0,
      "PercentSampling": 100.0,
      "PerformedProcedureStepStartTime": "131454.296000",
      "PhotometricInterpretation": "MONOCHROME2",
      "PixelBandwidth": 2290.0,
      "PixelRepresentation": 0,
      "PixelSpacing": [2.0, 2.0],
      "ProtocolName": "func_task-social_run-1",
      "RepetitionTime": 1490.0,
      "Rows": 832,
      "SAR": 0.03922592386563,
      "SamplesPerPixel": 1,
      "ScanOptions": "FS",
      "ScanningSequence": "EP",
      "SequenceName": "epfid2d1_104",
      "SequenceVariant": [
        "SK",
        "SS"
],
      "SeriesDescription": "func_task-social_run-1",
      "SeriesNumber": 11,
      "SeriesTime": "133232.684000",
      "SliceLocation": -53.381638717215,
      "SliceThickness": 2.0,
      "SmallestImagePixelValue": 0,
      "SoftwareVersions": "syngo MR E11",
      "SpacingBetweenSlices": 1.9999999997571,
      "SpecificCharacterSet": "ISO_IR 100",
      "StudyID": "1",
      "StudyTime": "131454.208000",
      "TransmitCoilName": "Body",
      "VariableFlipAngleFlag": "N",
      "WindowCenterWidthExplanation": "Algo1",
      "dBdt": 0.0},
    "slices": {}
  },
  "time": {
    "samples": {
      "AcquisitionNumber": [1, 2, 3, 4, 5, 6, 7, 8, 9, 10, 11, 12, 13, 14, 15, 16, 17, 18, 19, 20, 21, 22, 23, 24, 25, 26, 27, 28, 29, 30, 31, 32, 33, 34, 35, 36, 37, 38, 39, 40, 41, 42, 43, 44, 45, 46, 47, 48, 49, 50, 51, 52, 53, 54, 55, 56, 57, 58, 59, 60, 61, 62, 63, 64, 65, 66, 67, 68, 69, 70, 71, 72, 73, 74, 75, 76, 77, 78, 79, 80, 81, 82, 83, 84, 85, 86, 87, 88, 89, 90, 91, 92, 93, 94, 95, 96, 97, 98, 99, 100, 101, 102, 103, 104, 105, 106, 107, 108, 109, 110, 111, 112, 113, 114, 115, 116, 117, 118, 119, 120, 121, 122, 123, 124, 125, 126, 127, 128, 129, 130, 131, 132, 133, 134, 135, 136, 137, 138, 139],
      "AcquisitionTime": ["133124.412500", "133125.902500", "133127.392500", "133128.882500", "133130.372500", "133131.862500", "133133.352500", "133134.842500", "133136.332500", "133137.822500", "133139.312500", "133140.802500", "133142.292500", "133143.782500", "133145.272500", "133146.762500", "133148.252500", "133149.742500", "133151.232500", "133152.722500", "133154.212500", "133155.702500", "133157.192500", "133158.682500", "133200.172500", "133201.662500", "133203.152500", "133204.642500", "133206.132500", "133207.622500", "133209.112500", "133210.602500", "133212.092500", "133213.582500", "133215.072500", "133216.562500", "133218.052500", "133219.542500", "133221.032500", "133222.522500", "133224.012500", "133225.502500", "133226.992500", "133228.482500", "133229.972500", "133231.462500", "133232.952500", "133234.442500", "133235.932500", "133237.422500", "133238.912500", "133240.402500", "133241.892500", "133243.382500", "133244.872500", "133246.362500", "133247.852500", "133249.342500", "133250.832500", "133252.322500", "133253.812500", "133255.302500", "133256.792500", "133258.282500", "133259.772500", "133301.262500", "133302.752500", "133304.242500", "133305.732500", "133307.222500", "133308.712500", "133310.202500", "133311.692500", "133313.182500", "133314.672500", "133316.162500", "133317.652500", "133319.142500", "133320.632500", "133322.122500", "133323.612500", "133325.102500", "133326.592500", "133328.082500", "133329.572500", "133331.062500", "133332.552500", "133334.042500", "133335.532500", "133337.022500", "133338.512500", "133340.002500", "133341.492500", "133342.982500", "133344.472500", "133345.962500", "133347.452500", "133348.942500", "133350.432500", "133351.922500", "133353.412500", "133354.902500", "133356.392500", "133357.882500", "133359.372500", "133400.862500", "133402.352500", "133403.842500", "133405.332500", "133406.822500", "133408.312500", "133409.802500", "133411.292500", "133412.782500", "133414.272500", "133415.762500", "133417.252500", "133418.742500", "133420.232500", "133421.722500", "133423.212500", "133424.702500", "133426.192500", "133427.682500", "133429.172500", "133430.662500", "133432.152500", "133433.642500", "133435.132500", "133436.622500", "133438.112500", "133439.602500", "133441.092500", "133442.582500", "133444.072500", "133445.562500", "133447.052500", "133448.542500", "133450.032500"],
      "ContentTime": ["133232.687000", "133232.690000", "133232.693000", "133232.695000", "133232.698000", "133232.701000", "133232.711000", "133232.714000", "133232.717000", "133232.720000", "133232.723000", "133232.726000", "133232.729000", "133232.731000", "133232.734000", "133252.660000", "133252.663000", "133252.666000", "133252.669000", "133252.671000", "133252.674000", "133252.677000", "133252.680000", "133252.683000", "133252.685000", "133252.688000", "133252.691000", "133252.694000", "133252.700000", "133252.703000", "133252.706000", "133252.709000", "133252.712000", "133252.715000", "133252.717000", "133312.660000", "133312.663000", "133312.666000", "133312.669000", "133312.672000", "133312.674000", "133312.677000", "133312.680000", "133312.683000", "133312.685000", "133312.688000", "133312.691000", "133312.694000", "133312.697000", "133312.699000", "133312.702000", "133312.705000", "133312.708000", "133312.711000", "133312.714000", "133332.660000", "133332.663000", "133332.666000", "133332.669000", "133332.671000", "133332.674000", "133332.677000", "133332.680000", "133332.683000", "133332.686000", "133332.688000", "133332.691000", "133332.694000", "133332.697000", "133332.700000", "133332.703000", "133332.706000", "133332.708000", "133332.711000", "133332.714000", "133352.660000", "133352.663000", "133352.666000", "133352.669000", "133352.671000", "133352.674000", "133352.677000", "133352.680000", "133352.683000", "133352.686000", "133352.689000", "133352.691000", "133352.694000", "133352.697000", "133352.700000", "133352.703000", "133352.705000", "133352.708000", "133352.711000", "133352.714000", "133432.660000", "133432.663000", "133432.666000", "133432.669000", "133432.672000", "133432.674000", "133432.677000", "133432.680000", "133432.683000", "133432.686000", "133432.689000", "133432.692000", "133432.694000", "133432.697000", "133432.707000", "133432.717000", "133432.719000", "133432.722000", "133432.725000", "133432.728000", "133432.731000", "133432.734000", "133432.737000", "133432.740000", "133432.743000", "133432.745000", "133432.748000", "133432.751000", "133432.754000", "133432.757000", "133452.614000", "133452.617000", "133452.620000", "133452.623000", "133452.625000", "133452.628000", "133452.631000", "133452.634000", "133452.637000", "133452.640000", "133452.643000", "133452.646000", "133452.649000", "133452.652000"],
      "InstanceCreationTime": ["133232.687000", "133232.690000", "133232.693000", "133232.695000", "133232.698000", "133232.701000", "133232.711000", "133232.714000", "133232.717000", "133232.720000", "133232.723000", "133232.726000", "133232.729000", "133232.731000", "133232.734000", "133252.660000", "133252.663000", "133252.666000", "133252.669000", "133252.671000", "133252.674000", "133252.677000", "133252.680000", "133252.683000", "133252.685000", "133252.688000", "133252.691000", "133252.694000", "133252.700000", "133252.703000", "133252.706000", "133252.709000", "133252.712000", "133252.715000", "133252.717000", "133312.660000", "133312.663000", "133312.666000", "133312.669000", "133312.672000", "133312.674000", "133312.677000", "133312.680000", "133312.683000", "133312.685000", "133312.688000", "133312.691000", "133312.694000", "133312.697000", "133312.699000", "133312.702000", "133312.705000", "133312.708000", "133312.711000", "133312.714000", "133332.660000", "133332.663000", "133332.666000", "133332.669000", "133332.671000", "133332.674000", "133332.677000", "133332.680000", "133332.683000", "133332.686000", "133332.688000", "133332.691000", "133332.694000", "133332.697000", "133332.700000", "133332.703000", "133332.706000", "133332.708000", "133332.711000", "133332.714000", "133352.660000", "133352.663000", "133352.666000", "133352.669000", "133352.671000", "133352.674000", "133352.677000", "133352.680000", "133352.683000", "133352.686000", "133352.689000", "133352.691000", "133352.694000", "133352.697000", "133352.700000", "133352.703000", "133352.705000", "133352.708000", "133352.711000", "133352.714000", "133432.660000", "133432.663000", "133432.666000", "133432.669000", "133432.672000", "133432.674000", "133432.677000", "133432.680000", "133432.683000", "133432.686000", "133432.689000", "133432.692000", "133432.694000", "133432.697000", "133432.707000", "133432.717000", "133432.719000", "133432.722000", "133432.725000", "133432.728000", "133432.731000", "133432.734000", "133432.737000", "133432.740000", "133432.743000", "133432.745000", "133432.748000", "133432.751000", "133432.754000", "133432.757000", "133452.614000", "133452.617000", "133452.620000", "133452.623000", "133452.625000", "133452.628000", "133452.631000", "133452.634000", "133452.637000", "133452.640000", "133452.643000", "133452.646000", "133452.649000", "133452.652000"],
      "InstanceNumber": [1, 2, 3, 4, 5, 6, 7, 8, 9, 10, 11, 12, 13, 14, 15, 16, 17, 18, 19, 20, 21, 22, 23, 24, 25, 26, 27, 28, 29, 30, 31, 32, 33, 34, 35, 36, 37, 38, 39, 40, 41, 42, 43, 44, 45, 46, 47, 48, 49, 50, 51, 52, 53, 54, 55, 56, 57, 58, 59, 60, 61, 62, 63, 64, 65, 66, 67, 68, 69, 70, 71, 72, 73, 74, 75, 76, 77, 78, 79, 80, 81, 82, 83, 84, 85, 86, 87, 88, 89, 90, 91, 92, 93, 94, 95, 96, 97, 98, 99, 100, 101, 102, 103, 104, 105, 106, 107, 108, 109, 110, 111, 112, 113, 114, 115, 116, 117, 118, 119, 120, 121, 122, 123, 124, 125, 126, 127, 128, 129, 130, 131, 132, 133, 134, 135, 136, 137, 138, 139],
      "LargestImagePixelValue": [49003, 47715, 46664, 45830, 45823, 44958, 45558, 44492, 45612, 45135, 45555, 45091, 45204, 45760, 44823, 44849, 45394, 45151, 45375, 45324, 44865, 44859, 45261, 45701, 44883, 45071, 45393, 45170, 44933, 46313, 45459, 44916, 45063, 45180, 45096, 44839, 45096, 44729, 45390, 45843, 44676, 47302, 45739, 46686, 44768, 46004, 44722, 44657, 45425, 44540, 45074, 44755, 45117, 45786, 44751, 44831, 44878, 44874, 45616, 44620, 44471, 44862, 44345, 44286, 44138, 44368, 44610, 44110, 44080, 44260, 44689, 44783, 44352, 44636, 44454, 44859, 44704, 45214, 45110, 45637, 45073, 45922, 45185, 45988, 45369, 46021, 44605, 44944, 44335, 45365, 44472, 44562, 44231, 44324, 44257, 43996, 43970, 43832, 44758, 44223, 43768, 43828, 43557, 44078, 43859, 44152, 44264, 43967, 44063, 43956, 43815, 44200, 44028, 43769, 44671, 43748, 43814, 43509, 44210, 44121, 44487, 43939, 43949, 44124, 44048, 44690, 43391, 43412, 44359, 43529, 44526, 44410, 44206, 44908, 44548, 44405, 44032, 44721, 44457],
      "WindowCenter": [11183.0, 11113.0, 11084.0, 11073.0, 11073.0, 11082.0, 11096.0, 11096.0, 11102.0, 11092.0, 11095.0, 11091.0, 11098.0, 11094.0, 11090.0, 11097.0, 11112.0, 11105.0, 11099.0, 11097.0, 11092.0, 11108.0, 11113.0, 11110.0, 11093.0, 11090.0, 11111.0, 11088.0, 11065.0, 11060.0, 11047.0, 11070.0, 11103.0, 11096.0, 11071.0, 11061.0, 11096.0, 11101.0, 11077.0, 11090.0, 11063.0, 11085.0, 11083.0, 11111.0, 11080.0, 11078.0, 11053.0, 11066.0, 11092.0, 11103.0, 11100.0, 11085.0, 11071.0, 11081.0, 11078.0, 11080.0, 11073.0, 11062.0, 11058.0, 11052.0, 11071.0, 11087.0, 11066.0, 11049.0, 11054.0, 11078.0, 11093.0, 11105.0, 11104.0, 11089.0, 11089.0, 11083.0, 11091.0, 11085.0, 11075.0, 11075.0, 11075.0, 11090.0, 11082.0, 11088.0, 11070.0, 11079.0, 11059.0, 11068.0, 11073.0, 11090.0, 11075.0, 11078.0, 11064.0, 11066.0, 11044.0, 11079.0, 11119.0, 11124.0, 11086.0, 11063.0, 11077.0, 11099.0, 11118.0, 11095.0, 11070.0, 11043.0, 11045.0, 11047.0, 11028.0, 11029.0, 11029.0, 11035.0, 11046.0, 11051.0, 11060.0, 11063.0, 11063.0, 11060.0, 11085.0, 11068.0, 11070.0, 11066.0, 11081.0, 11071.0, 11072.0, 11053.0, 11059.0, 11077.0, 11095.0, 11086.0, 11074.0, 11064.0, 11074.0, 11055.0, 11051.0, 11056.0, 11059.0, 11077.0, 11076.0, 11071.0, 11060.0, 11063.0, 11055.0],
      "WindowWidth": [24035.0, 23843.0, 23755.0, 23724.0, 23716.0, 23739.0, 23768.0, 23771.0, 23779.0, 23760.0, 23768.0, 23761.0, 23773.0, 23763.0, 23757.0, 23771.0, 23807.0, 23791.0, 23776.0, 23771.0, 23764.0, 23799.0, 23807.0, 23800.0, 23762.0, 23755.0, 23799.0, 23747.0, 23693.0, 23677.0, 23652.0, 23709.0, 23784.0, 23769.0, 23712.0, 23685.0, 23766.0, 23784.0, 23722.0, 23751.0, 23690.0, 23729.0, 23735.0, 23796.0, 23732.0, 23721.0, 23670.0, 23701.0, 23757.0, 23789.0, 23780.0, 23750.0, 23712.0, 23736.0, 23731.0, 23733.0, 23716.0, 23688.0, 23677.0, 23668.0, 23709.0, 23749.0, 23703.0, 23666.0, 23674.0, 23729.0, 23768.0, 23798.0, 23798.0, 23763.0, 23758.0, 23743.0, 23763.0, 23748.0, 23724.0, 23728.0, 23729.0, 23759.0, 23742.0, 23750.0, 23709.0, 23730.0, 23684.0, 23700.0, 23716.0, 23754.0, 23725.0, 23728.0, 23698.0, 23699.0, 23654.0, 23734.0, 23830.0, 23841.0, 23757.0, 23699.0, 23733.0, 23784.0, 23825.0, 23771.0, 23721.0, 23650.0, 23659.0, 23661.0, 23618.0, 23618.0, 23616.0, 23640.0, 23657.0, 23673.0, 23696.0, 23700.0, 23699.0, 23695.0, 23751.0, 23714.0, 23719.0, 23712.0, 23746.0, 23721.0, 23719.0, 23681.0, 23691.0, 23735.0, 23775.0, 23750.0, 23734.0, 23702.0, 23718.0, 23682.0, 23675.0, 23686.0, 23692.0, 23732.0, 23729.0, 23720.0, 23692.0, 23698.0, 23679.0]
    },
    "slices": {}
  }
}