{
  "AcquisitionMatrixPE": 104,
  "AcquisitionNumber": 1,
  "AcquisitionTime": "13:59:26.640000",
  "BandwidthPerPixelPhaseEncode": 17.17,
  "BaseResolution": 104,
  "BodyPartExamined": "BRAIN",
  "CoilString": "HC1-7;NC1_2",
  "ConsistencyInfo": "N4_VE11C_LATEST_20160120",
  "ConversionSoftware": "dcm2niix",
  "ConversionSoftwareVersion": "v1.0.20190720  (JP2:OpenJPEG) GCC7.3.0",
  "DerivedVendorReportedEchoSpacing": 0.000560011,
  "DeviceSerialNumber": "167006",
  "DwellTime": 2.1e-06,
  "EchoTime": 0.037,
  "EchoTrainLength": 104,
  "EffectiveEchoSpacing": 0.000560011,
  "FlipAngle": 52,
  "ImageComments": "Unaliased_MB4_PE3_LB",
  "ImageOrientationPatientDICOM": [0.999578, -0.0206751, 0.0203866, 0.0279207, 0.877132, -0.479438],
  "ImageType": [
    "ORIGINAL",
    "PRIMARY",
    "M",
    "MB",
    "ND",
    "MOSAIC"
],
  "ImagingFrequency": 123.259,
  "InPlanePhaseEncodingDirectionDICOM": "COL",
  "InstitutionAddress": "Chemin_Queen-Mary_4565_Montreal_District_CA_H3W_1W5",
  "InstitutionName": "IUGM",
  "InstitutionalDepartmentName": "Department",
  "MRAcquisitionType": "2D",
  "MagneticFieldStrength": 3,
  "Manufacturer": "Siemens",
  "ManufacturersModelName": "Prisma_fit",
  "Modality": "MR",
  "MultibandAccelerationFactor": 4,
  "PartialFourier": 1,
  "PatientPosition": "HFS",
  "PercentPhaseFOV": 100,
  "PhaseEncodingDirection": "j",
  "PhaseEncodingSteps": 104,
  "PhaseResolution": 1,
  "PixelBandwidth": 2290,
  "ProcedureStepDescription": "hcptrt_generic",
  "ProtocolName": "func_task-wm_run-2",
  "PulseSequenceDetails": "%CustomerSeq%_cmrr_mbep2d_bold",
  "ReceiveCoilActiveElements": "HC1-7;NC1,2",
  "ReceiveCoilName": "HeadNeck_64",
  "ReconMatrixPE": 104,
  "RepetitionTime": 1.49,
  "SAR": 0.0393923,
  "ScanOptions": "FS",
  "ScanningSequence": "EP",
  "SequenceName": "epfid2d1_104",
  "SequenceVariant": "SK_SS",
  "SeriesDescription": "func_task-wm_run-2",
  "SeriesNumber": 25,
  "ShimSetting": [621, -7200, -8865, 424, -12, -192, 18, -33],
  "SliceThickness": 2,
  "SliceTiming": [0, 0.7825, 0.0975, 0.88, 0.195, 0.98, 0.2925, 1.0775, 0.39, 1.175, 0.49, 1.2725, 0.5875, 1.37, 0.685, 0, 0.7825, 0.0975, 0.88, 0.195, 0.98, 0.2925, 1.0775, 0.39, 1.175, 0.49, 1.2725, 0.5875, 1.37, 0.685, 0, 0.7825, 0.0975, 0.88, 0.195, 0.98, 0.2925, 1.0775, 0.39, 1.175, 0.49, 1.2725, 0.5875, 1.37, 0.685, 0, 0.7825, 0.0975, 0.88, 0.195, 0.98, 0.2925, 1.0775, 0.39, 1.175, 0.49, 1.2725, 0.5875, 1.37, 0.685],
  "SoftwareVersions": "syngo_MR_E11",
  "SpacingBetweenSlices": 2,
  "StationName": "MRC35049",
  "TaskName": "wm",
  "TotalReadoutTime": 0.0576811,
  "TxRefAmp": 252.119,
  "WipMemBlock": "64aca9df-f9fc-44b5-86ca-9b50b201cc89||Sequence: R016 ve11c/master r/e634e98; Dec 19 2017 11:00:25 by eja",
  "dcmmeta_affine": [
    [-1.9991567134857178, 0.05584142357110977, 0.01593863032758236, 98.97215270996094],
    [0.04135027527809143, 1.7542630434036255, -0.959609866142273, -62.65718078613281],
    [0.04077326878905296, 0.9588757753372192, 1.7546780109405518, -96.01033020019531],
    [0.0, 0.0, 0.0, 1.0]
],
  "dcmmeta_reorient_transform": [
    [0.0, -1.0, 0.0, 103.0],
    [1.0, 0.0, 0.0, 0.0],
    [0.0, 0.0, 1.0, 0.0],
    [0.0, 0.0, 0.0, 1.0]
],
  "dcmmeta_shape": [104, 104, 60, 202],
  "dcmmeta_slice_dim": 2,
  "dcmmeta_version": 0.6,
  "global": {
    "const": {
      "AcquisitionMatrix": [104, 0, 0, 104],
      "AngioFlag": "N",
      "BitsAllocated": 16,
      "BitsStored": 16,
      "BodyPartExamined": "BRAIN",
      "Columns": 832,
      "EchoNumbers": 1,
      "EchoTime": 37.0,
      "EchoTrainLength": 104,
      "FlipAngle": 52.0,
      "HighBit": 15,
      "ImageOrientationPatient": [0.99957837303829, -0.0206751376279, 0.02038663381208, 0.02792071211718, 0.87713154725436, -0.4794378819472],
      "ImagePositionPatient": [-852.74315643854, -741.53218584266, 336.94318498775],
      "ImageType": [
        "ORIGINAL",
        "PRIMARY",
        "M",
        "MB",
        "ND",
        "MOSAIC"
],
      "ImagedNucleus": "1H",
      "ImagingFrequency": 123.25925,
      "InPlanePhaseEncodingDirection": "COL",
      "MRAcquisitionType": "2D",
      "MagneticFieldStrength": 3.0,
      "Manufacturer": "SIEMENS",
      "ManufacturerModelName": "Prisma_fit",
      "Modality": "MR",
      "NumberOfAverages": 1.0,
      "NumberOfPhaseEncodingSteps": 104,
      "PercentPhaseFieldOfView": 100.0,
      "PercentSampling": 100.0,
      "PerformedProcedureStepStartTime": "131454.296000",
      "PhotometricInterpretation": "MONOCHROME2",
      "PixelBandwidth": 2290.0,
      "PixelRepresentation": 0,
      "PixelSpacing": [2.0, 2.0],
      "ProtocolName": "func_task-wm_run-2",
      "RepetitionTime": 1490.0,
      "Rows": 832,
      "SAR": 0.03939232895153,
      "SamplesPerPixel": 1,
      "ScanOptions": "FS",
      "ScanningSequence": "EP",
      "SequenceName": "epfid2d1_104",
      "SequenceVariant": [
        "SK",
        "SS"
],
      "SeriesDescription": "func_task-wm_run-2",
      "SeriesNumber": 25,
      "SeriesTime": "140054.991000",
      "SliceLocation": -53.381638717215,
      "SliceThickness": 2.0,
      "SmallestImagePixelValue": 0,
      "SoftwareVersions": "syngo MR E11",
      "SpacingBetweenSlices": 1.9999999997571,
      "SpecificCharacterSet": "ISO_IR 100",
      "StudyID": "1",
      "StudyTime": "131454.208000",
      "TransmitCoilName": "Body",
      "VariableFlipAngleFlag": "N",
      "WindowCenterWidthExplanation": "Algo1",
      "dBdt": 0.0},
    "slices": {}
  },
  "time": {
    "samples": {
      "AcquisitionNumber": [1, 2, 3, 4, 5, 6, 7, 8, 9, 10, 11, 12, 13, 14, 15, 16, 17, 18, 19, 20, 21, 22, 23, 24, 25, 26, 27, 28, 29, 30, 31, 32, 33, 34, 35, 36, 37, 38, 39, 40, 41, 42, 43, 44, 45, 46, 47, 48, 49, 50, 51, 52, 53, 54, 55, 56, 57, 58, 59, 60, 61, 62, 63, 64, 65, 66, 67, 68, 69, 70, 71, 72, 73, 74, 75, 76, 77, 78, 79, 80, 81, 82, 83, 84, 85, 86, 87, 88, 89, 90, 91, 92, 93, 94, 95, 96, 97, 98, 99, 100, 101, 102, 103, 104, 105, 106, 107, 108, 109, 110, 111, 112, 113, 114, 115, 116, 117, 118, 119, 120, 121, 122, 123, 124, 125, 126, 127, 128, 129, 130, 131, 132, 133, 134, 135, 136, 137, 138, 139, 140, 141, 142, 143, 144, 145, 146, 147, 148, 149, 150, 151, 152, 153, 154, 155, 156, 157, 158, 159, 160, 161, 162, 163, 164, 165, 166, 167, 168, 169, 170, 171, 172, 173, 174, 175, 176, 177, 178, 179, 180, 181, 182, 183, 184, 185, 186, 187, 188, 189, 190, 191, 192, 193, 194, 195, 196, 197, 198, 199, 200, 201, 202],
      "AcquisitionTime": ["135926.640000", "135928.130000", "135929.620000", "135931.110000", "135932.600000", "135934.090000", "135935.580000", "135937.070000", "135938.560000", "135940.050000", "135941.540000", "135943.030000", "135944.520000", "135946.010000", "135947.500000", "135948.990000", "135950.480000", "135951.970000", "135953.460000", "135954.950000", "135956.440000", "135957.930000", "135959.420000", "140000.910000", "140002.400000", "140003.890000", "140005.380000", "140006.870000", "140008.360000", "140009.850000", "140011.340000", "140012.830000", "140014.320000", "140015.810000", "140017.300000", "140018.790000", "140020.280000", "140021.770000", "140023.260000", "140024.750000", "140026.240000", "140027.730000", "140029.220000", "140030.710000", "140032.200000", "140033.690000", "140035.180000", "140036.670000", "140038.160000", "140039.650000", "140041.140000", "140042.630000", "140044.120000", "140045.610000", "140047.100000", "140048.590000", "140050.080000", "140051.570000", "140053.060000", "140054.550000", "140056.040000", "140057.530000", "140059.020000", "140100.510000", "140102.000000", "140103.490000", "140104.980000", "140106.470000", "140107.960000", "140109.450000", "140110.940000", "140112.430000", "140113.920000", "140115.410000", "140116.900000", "140118.390000", "140119.880000", "140121.370000", "140122.860000", "140124.350000", "140125.840000", "140127.330000", "140128.820000", "140130.310000", "140131.800000", "140133.290000", "140134.780000", "140136.270000", "140137.760000", "140139.250000", "140140.740000", "140142.230000", "140143.720000", "140145.210000", "140146.700000", "140148.190000", "140149.680000", "140151.170000", "140152.660000", "140154.150000", "140155.640000", "140157.130000", "140158.620000", "140200.110000", "140201.600000", "140203.090000", "140204.580000", "140206.070000", "140207.560000", "140209.050000", "140210.540000", "140212.030000", "140213.520000", "140215.010000", "140216.500000", "140217.990000", "140219.480000", "140220.970000", "140222.460000", "140223.950000", "140225.440000", "140226.930000", "140228.420000", "140229.910000", "140231.400000", "140232.890000", "140234.380000", "140235.870000", "140237.360000", "140238.850000", "140240.340000", "140241.830000", "140243.320000", "140244.810000", "140246.300000", "140247.790000", "140249.280000", "140250.770000", "140252.260000", "140253.750000", "140255.240000", "140256.730000", "140258.220000", "140259.710000", "140301.200000", "140302.690000", "140304.180000", "140305.670000", "140307.160000", "140308.650000", "140310.140000", "140311.630000", "140313.120000", "140314.610000", "140316.100000", "140317.590000", "140319.080000", "140320.570000", "140322.060000", "140323.550000", "140325.040000", "140326.530000", "140328.020000", "140329.510000", "140331.000000", "140332.490000", "140333.980000", "140335.470000", "140336.960000", "140338.450000", "140339.940000", "140341.430000", "140342.920000", "140344.410000", "140345.900000", "140347.390000", "140348.880000", "140350.370000", "140351.860000", "140353.350000", "140354.840000", "140356.330000", "140357.820000", "140359.310000", "140400.800000", "140402.290000", "140403.780000", "140405.270000", "140406.760000", "140408.250000", "140409.740000", "140411.230000", "140412.720000", "140414.210000", "140415.700000", "140417.190000", "140418.680000", "140420.170000", "140421.660000", "140423.150000", "140424.640000", "140426.130000"],
      "ContentTime": ["140054.994000", "140054.997000", "140055.001000", "140055.004000", "140055.007000", "140055.010000", "140055.013000", "140055.015000", "140055.018000", "140055.021000", "140055.024000", "140055.027000", "140055.030000", "140055.033000", "140055.036000", "140055.039000", "140055.042000", "140055.044000", "140055.047000", "140055.050000", "140055.053000", "140055.056000", "140055.059000", "140055.071000", "140055.074000", "140055.077000", "140055.080000", "140055.082000", "140055.085000", "140055.088000", "140055.091000", "140055.094000", "140055.104000", "140055.107000", "140055.110000", "140114.972000", "140114.975000", "140114.979000", "140114.985000", "140114.987000", "140114.991000", "140114.994000", "140114.998000", "140115.001000", "140115.004000", "140115.007000", "140115.010000", "140115.014000", "140115.017000", "140115.020000", "140115.023000", "140115.027000", "140115.031000", "140115.034000", "140115.038000", "140134.969000", "140134.972000", "140134.975000", "140134.978000", "140134.980000", "140134.983000", "140134.986000", "140134.989000", "140134.992000", "140134.995000", "140134.998000", "140135.002000", "140135.005000", "140135.008000", "140135.011000", "140135.013000", "140135.016000", "140135.019000", "140135.022000", "140135.025000", "140154.969000", "140154.972000", "140154.988000", "140154.991000", "140154.994000", "140154.997000", "140155.000000", "140155.003000", "140155.006000", "140155.009000", "140155.012000", "140155.015000", "140155.017000", "140155.020000", "140155.023000", "140155.026000", "140155.029000", "140155.032000", "140155.035000", "140155.038000", "140155.040000", "140234.969000", "140234.972000", "140234.975000", "140234.978000", "140234.981000", "140234.984000", "140234.986000", "140234.989000", "140234.992000", "140235.002000", "140235.005000", "140235.007000", "140235.010000", "140235.013000", "140235.016000", "140235.019000", "140235.022000", "140235.025000", "140235.028000", "140235.030000", "140235.033000", "140235.036000", "140235.039000", "140235.042000", "140235.045000", "140235.048000", "140235.050000", "140235.053000", "140235.056000", "140235.059000", "140314.968000", "140314.971000", "140314.974000", "140314.977000", "140314.980000", "140314.982000", "140314.985000", "140314.988000", "140314.991000", "140314.994000", "140314.997000", "140315.001000", "140315.004000", "140315.007000", "140315.009000", "140315.012000", "140315.016000", "140315.018000", "140315.021000", "140315.024000", "140315.027000", "140315.030000", "140315.033000", "140315.036000", "140315.039000", "140315.042000", "140354.969000", "140354.972000", "140354.975000", "140354.978000", "140354.981000", "140354.984000", "140354.987000", "140354.990000", "140354.993000", "140354.995000", "140354.998000", "140355.011000", "140355.014000", "140355.016000", "140355.019000", "140355.022000", "140355.025000", "140355.028000", "140355.034000", "140355.037000", "140355.040000", "140355.042000", "140355.045000", "140355.048000", "140355.051000", "140355.054000", "140355.057000", "140428.129000", "140428.132000", "140428.136000", "140428.139000", "140428.142000", "140428.144000", "140428.147000", "140428.150000", "140428.153000", "140428.156000", "140428.159000", "140428.162000", "140428.165000", "140428.167000", "140428.170000", "140428.173000", "140428.176000", "140428.179000", "140428.182000", "140428.185000", "140428.188000", "140428.190000", "140428.193000"],
      "InstanceCreationTime": ["140054.994000", "140054.997000", "140055.001000", "140055.004000", "140055.007000", "140055.010000", "140055.013000", "140055.015000", "140055.018000", "140055.021000", "140055.024000", "140055.027000", "140055.030000", "140055.033000", "140055.036000", "140055.039000", "140055.042000", "140055.044000", "140055.047000", "140055.050000", "140055.053000", "140055.056000", "140055.059000", "140055.071000", "140055.074000", "140055.077000", "140055.080000", "140055.082000", "140055.085000", "140055.088000", "140055.091000", "140055.094000", "140055.104000", "140055.107000", "140055.110000", "140114.972000", "140114.975000", "140114.979000", "140114.985000", "140114.987000", "140114.991000", "140114.994000", "140114.998000", "140115.001000", "140115.004000", "140115.007000", "140115.010000", "140115.014000", "140115.017000", "140115.020000", "140115.023000", "140115.027000", "140115.031000", "140115.034000", "140115.038000", "140134.969000", "140134.972000", "140134.975000", "140134.978000", "140134.980000", "140134.983000", "140134.986000", "140134.989000", "140134.992000", "140134.995000", "140134.998000", "140135.002000", "140135.005000", "140135.008000", "140135.011000", "140135.013000", "140135.016000", "140135.019000", "140135.022000", "140135.025000", "140154.969000", "140154.972000", "140154.988000", "140154.991000", "140154.994000", "140154.997000", "140155.000000", "140155.003000", "140155.006000", "140155.009000", "140155.012000", "140155.015000", "140155.017000", "140155.020000", "140155.023000", "140155.026000", "140155.029000", "140155.032000", "140155.035000", "140155.038000", "140155.040000", "140234.969000", "140234.972000", "140234.975000", "140234.978000", "140234.981000", "140234.984000", "140234.986000", "140234.989000", "140234.992000", "140235.002000", "140235.005000", "140235.007000", "140235.010000", "140235.013000", "140235.016000", "140235.019000", "140235.022000", "140235.025000", "140235.028000", "140235.030000", "140235.033000", "140235.036000", "140235.039000", "140235.042000", "140235.045000", "140235.048000", "140235.050000", "140235.053000", "140235.056000", "140235.059000", "140314.968000", "140314.971000", "140314.974000", "140314.977000", "140314.980000", "140314.982000", "140314.985000", "140314.988000", "140314.991000", "140314.994000", "140314.997000", "140315.001000", "140315.004000", "140315.007000", "140315.009000", "140315.012000", "140315.016000", "140315.018000", "140315.021000", "140315.024000", "140315.027000", "140315.030000", "140315.033000", "140315.036000", "140315.039000", "140315.042000", "140354.969000", "140354.972000", "140354.975000", "140354.978000", "140354.981000", "140354.984000", "140354.987000", "140354.990000", "140354.993000", "140354.995000", "140354.998000", "140355.011000", "140355.014000", "140355.016000", "140355.019000", "140355.022000", "140355.025000", "140355.028000", "140355.034000", "140355.037000", "140355.040000", "140355.042000", "140355.045000", "140355.048000", "140355.051000", "140355.054000", "140355.057000", "140428.129000", "140428.132000", "140428.136000", "140428.139000", "140428.142000", "140428.144000", "140428.147000", "140428.150000", "140428.153000", "140428.156000", "140428.159000", "140428.162000", "140428.165000", "140428.167000", "140428.170000", "140428.173000", "140428.176000", "140428.179000", "140428.182000", "140428.185000", "140428.188000", "140428.190000", "140428.193000"],
      "InstanceNumber": [1, 2, 3, 4, 5, 6, 7, 8, 9, 10, 11, 12, 13, 14, 15, 16, 17, 18, 19, 20, 21, 22, 23, 24, 25, 26, 27, 28, 29, 30, 31, 32, 33, 34, 35, 36, 37, 38, 39, 40, 41, 42, 43, 44, 45, 46, 47, 48, 49, 50, 51, 52, 53, 54, 55, 56, 57, 58, 59, 60, 61, 62, 63, 64, 65, 66, 67, 68, 69, 70, 71, 72, 73, 74, 75, 76, 77, 78, 79, 80, 81, 82, 83, 84, 85, 86, 87, 88, 89, 90, 91, 92, 93, 94, 95, 96, 97, 98, 99, 100, 101, 102, 103, 104, 105, 106, 107, 108, 109, 110, 111, 112, 113, 114, 115, 116, 117, 118, 119, 120, 121, 122, 123, 124, 125, 126, 127, 128, 129, 130, 131, 132, 133, 134, 135, 136, 137, 138, 139, 140, 141, 142, 143, 144, 145, 146, 147, 148, 149, 150, 151, 152, 153, 154, 155, 156, 157, 158, 159, 160, 161, 162, 163, 164, 165, 166, 167, 168, 169, 170, 171, 172, 173, 174, 175, 176, 177, 178, 179, 180, 181, 182, 183, 184, 185, 186, 187, 188, 189, 190, 191, 192, 193, 194, 195, 196, 197, 198, 199, 200, 201, 202],
      "LargestImagePixelValue": [46812, 45470, 44335, 43671, 43427, 42975, 42794, 42844, 42746, 43179, 43108, 43102, 43176, 42711, 42915, 43232, 42478, 42785, 42736, 43134, 43242, 43009, 43244, 43133, 43073, 42769, 43455, 42886, 43534, 42669, 43869, 42624, 43094, 42680, 43526, 42797, 43132, 43539, 43391, 43766, 43411, 42585, 43444, 44312, 43210, 44429, 44435, 44193, 46076, 43166, 43011, 43399, 43325, 43070, 43043, 42656, 42576, 42580, 42846, 43905, 43146, 43146, 42841, 43156, 42857, 43191, 43272, 42860, 43110, 42989, 43369, 43142, 43194, 43114, 42704, 43073, 42691, 43349, 42858, 43709, 43048, 43328, 43051, 43195, 43540, 43324, 43112, 43476, 43084, 43593, 43025, 43240, 42733, 42517, 42668, 42987, 42915, 42884, 43234, 43339, 42854, 43110, 42907, 43459, 42864, 43383, 43036, 43355, 42813, 43303, 43639, 43334, 43174, 42971, 43295, 43284, 43379, 42845, 43196, 43188, 43191, 43243, 43396, 43972, 43809, 43425, 43797, 43716, 43735, 43613, 43720, 43303, 43746, 43149, 43407, 43336, 44078, 43513, 43258, 43930, 43867, 42705, 43493, 45370, 43475, 43218, 43198, 43479, 43847, 42984, 42887, 43197, 42869, 43795, 43274, 43470, 42598, 43284, 43575, 44121, 43555, 43372, 42494, 43939, 42471, 42647, 42928, 43129, 42762, 44008, 43049, 44074, 43145, 43412, 42974, 43117, 43025, 42974, 43561, 42530, 43424, 42900, 43357, 43118, 43540, 42659, 44001, 42818, 43317, 43422, 43140, 42964, 42294, 42930, 44085, 42551, 43251, 44020, 43817, 42635, 42941, 42963],
      "WindowCenter": [11082.0, 11025.0, 10988.0, 10950.0, 10939.0, 10939.0, 10933.0, 10930.0, 10922.0, 10918.0, 10919.0, 10929.0, 10937.0, 10933.0, 10932.0, 10938.0, 10934.0, 10931.0, 10938.0, 10938.0, 10931.0, 10921.0, 10917.0, 10918.0, 10917.0, 10927.0, 10933.0, 10927.0, 10932.0, 10923.0, 10921.0, 10912.0, 10927.0, 10906.0, 10919.0, 10921.0, 10909.0, 10917.0, 10912.0, 10930.0, 10923.0, 10903.0, 10895.0, 10877.0, 10875.0, 10918.0, 10948.0, 10953.0, 10938.0, 10860.0, 10854.0, 10890.0, 10922.0, 10928.0, 10917.0, 10892.0, 10884.0, 10876.0, 10890.0, 10909.0, 10907.0, 10915.0, 10917.0, 10925.0, 10929.0, 10938.0, 10946.0, 10948.0, 10948.0, 10944.0, 10947.0, 10946.0, 10945.0, 10939.0, 10934.0, 10942.0, 10935.0, 10938.0, 10930.0, 10931.0, 10920.0, 10920.0, 10916.0, 10915.0, 10904.0, 10921.0, 10934.0, 10934.0, 10917.0, 10899.0, 10871.0, 10859.0, 10901.0, 10930.0, 10939.0, 10924.0, 10874.0, 10844.0, 10884.0, 10920.0, 10926.0, 10888.0, 10886.0, 10885.0, 10867.0, 10889.0, 10922.0, 10936.0, 10932.0, 10917.0, 10904.0, 10888.0, 10892.0, 10888.0, 10903.0, 10905.0, 10915.0, 10911.0, 10918.0, 10917.0, 10927.0, 10934.0, 10934.0, 10930.0, 10921.0, 10908.0, 10910.0, 10911.0, 10922.0, 10916.0, 10920.0, 10904.0, 10904.0, 10906.0, 10920.0, 10923.0, 10925.0, 10925.0, 10927.0, 10920.0, 10897.0, 10943.0, 10974.0, 10951.0, 10878.0, 10878.0, 10895.0, 10894.0, 10897.0, 10891.0, 10883.0, 10857.0, 10837.0, 10864.0, 10905.0, 10943.0, 10938.0, 10934.0, 10931.0, 10943.0, 10951.0, 10948.0, 10937.0, 10947.0, 10933.0, 10931.0, 10921.0, 10920.0, 10917.0, 10943.0, 10937.0, 10940.0, 10933.0, 10934.0, 10923.0, 10922.0, 10908.0, 10904.0, 10909.0, 10898.0, 10908.0, 10914.0, 10911.0, 10914.0, 10926.0, 10913.0, 10920.0, 10904.0, 10890.0, 10895.0, 10908.0, 10896.0, 10860.0, 10873.0, 10933.0, 10928.0, 10939.0, 10925.0, 10882.0, 10848.0, 10865.0, 10889.0],
      "WindowWidth": [23805.0, 23635.0, 23531.0, 23435.0, 23403.0, 23401.0, 23387.0, 23378.0, 23358.0, 23351.0, 23349.0, 23371.0, 23393.0, 23385.0, 23383.0, 23397.0, 23393.0, 23383.0, 23396.0, 23397.0, 23383.0, 23358.0, 23346.0, 23351.0, 23348.0, 23371.0, 23384.0, 23371.0, 23381.0, 23369.0, 23355.0, 23338.0, 23371.0, 23326.0, 23350.0, 23360.0, 23330.0, 23346.0, 23330.0, 23372.0, 23356.0, 23320.0, 23295.0, 23251.0, 23249.0, 23344.0, 23416.0, 23429.0, 23391.0, 23220.0, 23205.0, 23286.0, 23363.0, 23375.0, 23342.0, 23282.0, 23265.0, 23249.0, 23280.0, 23320.0, 23318.0, 23337.0, 23344.0, 23359.0, 23370.0, 23391.0, 23409.0, 23420.0, 23418.0, 23409.0, 23412.0, 23412.0, 23411.0, 23397.0, 23387.0, 23402.0, 23388.0, 23392.0, 23373.0, 23374.0, 23353.0, 23359.0, 23343.0, 23340.0, 23313.0, 23352.0, 23382.0, 23383.0, 23344.0, 23304.0, 23239.0, 23211.0, 23310.0, 23378.0, 23395.0, 23363.0, 23253.0, 23182.0, 23272.0, 23352.0, 23368.0, 23280.0, 23273.0, 23273.0, 23228.0, 23276.0, 23356.0, 23387.0, 23380.0, 23342.0, 23309.0, 23275.0, 23288.0, 23280.0, 23314.0, 23315.0, 23339.0, 23337.0, 23350.0, 23346.0, 23371.0, 23381.0, 23383.0, 23372.0, 23349.0, 23323.0, 23327.0, 23326.0, 23354.0, 23339.0, 23348.0, 23311.0, 23309.0, 23318.0, 23347.0, 23356.0, 23356.0, 23363.0, 23364.0, 23349.0, 23294.0, 23408.0, 23475.0, 23421.0, 23256.0, 23254.0, 23293.0, 23291.0, 23286.0, 23272.0, 23256.0, 23200.0, 23156.0, 23214.0, 23312.0, 23403.0, 23393.0, 23381.0, 23370.0, 23396.0, 23421.0, 23410.0, 23387.0, 23407.0, 23383.0, 23379.0, 23355.0, 23349.0, 23346.0, 23398.0, 23387.0, 23390.0, 23380.0, 23381.0, 23355.0, 23353.0, 23324.0, 23311.0, 23321.0, 23300.0, 23320.0, 23345.0, 23327.0, 23335.0, 23361.0, 23332.0, 23340.0, 23314.0, 23278.0, 23286.0, 23323.0, 23297.0, 23215.0, 23240.0, 23378.0, 23372.0, 23415.0, 23383.0, 23286.0, 23210.0, 23234.0, 23291.0]
    },
    "slices": {}
  }
}