{
  "AcquisitionMatrixPE": 104,
  "AcquisitionNumber": 1,
  "AcquisitionTime": "13:54:31.620000",
  "BandwidthPerPixelPhaseEncode": 17.17,
  "BaseResolution": 104,
  "BodyPartExamined": "BRAIN",
  "CoilString": "HC1-7;NC1_2",
  "ConsistencyInfo": "N4_VE11C_LATEST_20160120",
  "ConversionSoftware": "dcm2niix",
  "ConversionSoftwareVersion": "v1.0.20190720  (JP2:OpenJPEG) GCC7.3.0",
  "DerivedVendorReportedEchoSpacing": 0.000560011,
  "DeviceSerialNumber": "167006",
  "DwellTime": 2.1e-06,
  "EchoTime": 0.037,
  "EchoTrainLength": 104,
  "EffectiveEchoSpacing": 0.000560011,
  "FlipAngle": 52,
  "ImageComments": "Unaliased_MB4_PE3_LB",
  "ImageOrientationPatientDICOM": [0.999573, -0.0208282, 0.0204703, 0.0280952, 0.877128, -0.479434],
  "ImageType": [
    "ORIGINAL",
    "PRIMARY",
    "M",
    "MB",
    "ND",
    "MOSAIC"
],
  "ImagingFrequency": 123.259,
  "InPlanePhaseEncodingDirectionDICOM": "COL",
  "InstitutionAddress": "Chemin_Queen-Mary_4565_Montreal_District_CA_H3W_1W5",
  "InstitutionName": "IUGM",
  "InstitutionalDepartmentName": "Department",
  "MRAcquisitionType": "2D",
  "MagneticFieldStrength": 3,
  "Manufacturer": "Siemens",
  "ManufacturersModelName": "Prisma_fit",
  "Modality": "MR",
  "MultibandAccelerationFactor": 4,
  "PartialFourier": 1,
  "PatientPosition": "HFS",
  "PercentPhaseFOV": 100,
  "PhaseEncodingDirection": "j",
  "PhaseEncodingSteps": 104,
  "PhaseResolution": 1,
  "PixelBandwidth": 2290,
  "ProcedureStepDescription": "hcptrt_generic",
  "ProtocolName": "func_task-language_run-2",
  "PulseSequenceDetails": "%CustomerSeq%_cmrr_mbep2d_bold",
  "ReceiveCoilActiveElements": "HC1-7;NC1,2",
  "ReceiveCoilName": "HeadNeck_64",
  "ReconMatrixPE": 104,
  "RepetitionTime": 1.49,
  "SAR": 0.0392924,
  "ScanOptions": "FS",
  "ScanningSequence": "EP",
  "SequenceName": "epfid2d1_104",
  "SequenceVariant": "SK_SS",
  "SeriesDescription": "func_task-language_run-2",
  "SeriesNumber": 23,
  "ShimSetting": [621, -7200, -8865, 424, -12, -192, 18, -33],
  "SliceThickness": 2,
  "SliceTiming": [0, 0.785, 0.1, 0.8825, 0.1975, 0.98, 0.295, 1.08, 0.3925, 1.1775, 0.49, 1.275, 0.59, 1.3725, 0.6875, 0, 0.785, 0.1, 0.8825, 0.1975, 0.98, 0.295, 1.08, 0.3925, 1.1775, 0.49, 1.275, 0.59, 1.3725, 0.6875, 0, 0.785, 0.1, 0.8825, 0.1975, 0.98, 0.295, 1.08, 0.3925, 1.1775, 0.49, 1.275, 0.59, 1.3725, 0.6875, 0, 0.785, 0.1, 0.8825, 0.1975, 0.98, 0.295, 1.08, 0.3925, 1.1775, 0.49, 1.275, 0.59, 1.3725, 0.6875],
  "SoftwareVersions": "syngo_MR_E11",
  "SpacingBetweenSlices": 2,
  "StationName": "MRC35049",
  "TaskName": "language",
  "TotalReadoutTime": 0.0576811,
  "TxRefAmp": 252.119,
  "WipMemBlock": "e00166fb-6808-4507-a1ba-1fdd7fe7d154||Sequence: R016 ve11c/master r/e634e98; Dec 19 2017 11:00:25 by eja",
  "dcmmeta_affine": [
    [-1.9991469383239746, 0.05619035288691521, 0.01593857817351818, 98.95384979248047],
    [0.0416564866900444, 1.7542558908462524, -0.959609866142273, -62.672733306884766],
    [0.040940579026937485, 0.9588686227798462, 1.7546780109405518, -96.01866149902344],
    [0.0, 0.0, 0.0, 1.0]
],
  "dcmmeta_reorient_transform": [
    [0.0, -1.0, 0.0, 103.0],
    [1.0, 0.0, 0.0, 0.0],
    [0.0, 0.0, 1.0, 0.0],
    [0.0, 0.0, 0.0, 1.0]
],
  "dcmmeta_shape": [104, 104, 60, 159],
  "dcmmeta_slice_dim": 2,
  "dcmmeta_version": 0.6,
  "global": {
    "const": {
      "AcquisitionMatrix": [104, 0, 0, 104],
      "AngioFlag": "N",
      "BitsAllocated": 16,
      "BitsStored": 16,
      "BodyPartExamined": "BRAIN",
      "Columns": 832,
      "EchoNumbers": 1,
      "EchoTime": 37.0,
      "EchoTrainLength": 104,
      "FlipAngle": 52.0,
      "HighBit": 15,
      "ImageOrientationPatient": [0.99957348480948, -0.0208282427239, 0.02047028995546, 0.02809517576334, 0.87712792864286, -0.4794343103007],
      "ImagePositionPatient": [-852.88424318577, -741.40179171806, 336.87061146656],
      "ImageType": [
        "ORIGINAL",
        "PRIMARY",
        "M",
        "MB",
        "ND",
        "MOSAIC"
],
      "ImagedNucleus": "1H",
      "ImagingFrequency": 123.259249,
      "InPlanePhaseEncodingDirection": "COL",
      "MRAcquisitionType": "2D",
      "MagneticFieldStrength": 3.0,
      "Manufacturer": "SIEMENS",
      "ManufacturerModelName": "Prisma_fit",
      "Modality": "MR",
      "NumberOfAverages": 1.0,
      "NumberOfPhaseEncodingSteps": 104,
      "PercentPhaseFieldOfView": 100.0,
      "PercentSampling": 100.0,
      "PerformedProcedureStepStartTime": "131454.296000",
      "PhotometricInterpretation": "MONOCHROME2",
      "PixelBandwidth": 2290.0,
      "PixelRepresentation": 0,
      "PixelSpacing": [2.0, 2.0],
      "ProtocolName": "func_task-language_run-2",
      "RepetitionTime": 1490.0,
      "Rows": 832,
      "SAR": 0.03929243135163,
      "SamplesPerPixel": 1,
      "ScanOptions": "FS",
      "ScanningSequence": "EP",
      "SequenceName": "epfid2d1_104",
      "SequenceVariant": [
        "SK",
        "SS"
],
      "SeriesDescription": "func_task-language_run-2",
      "SeriesNumber": 23,
      "SeriesTime": "135552.690000",
      "SliceLocation": -53.381638642184,
      "SliceThickness": 2.0,
      "SmallestImagePixelValue": 0,
      "SoftwareVersions": "syngo MR E11",
      "SpacingBetweenSlices": 1.9999999997571,
      "SpecificCharacterSet": "ISO_IR 100",
      "StudyID": "1",
      "StudyTime": "131454.208000",
      "TransmitCoilName": "Body",
      "VariableFlipAngleFlag": "N",
      "WindowCenterWidthExplanation": "Algo1",
      "dBdt": 0.0},
    "slices": {}
  },
  "time": {
    "samples": {
      "AcquisitionNumber": [1, 2, 3, 4, 5, 6, 7, 8, 9, 10, 11, 12, 13, 14, 15, 16, 17, 18, 19, 20, 21, 22, 23, 24, 25, 26, 27, 28, 29, 30, 31, 32, 33, 34, 35, 36, 37, 38, 39, 40, 41, 42, 43, 44, 45, 46, 47, 48, 49, 50, 51, 52, 53, 54, 55, 56, 57, 58, 59, 60, 61, 62, 63, 64, 65, 66, 67, 68, 69, 70, 71, 72, 73, 74, 75, 76, 77, 78, 79, 80, 81, 82, 83, 84, 85, 86, 87, 88, 89, 90, 91, 92, 93, 94, 95, 96, 97, 98, 99, 100, 101, 102, 103, 104, 105, 106, 107, 108, 109, 110, 111, 112, 113, 114, 115, 116, 117, 118, 119, 120, 121, 122, 123, 124, 125, 126, 127, 128, 129, 130, 131, 132, 133, 134, 135, 136, 137, 138, 139, 140, 141, 142, 143, 144, 145, 146, 147, 148, 149, 150, 151, 152, 153, 154, 155, 156, 157, 158, 159],
      "AcquisitionTime": ["135431.620000", "135433.110000", "135434.600000", "135436.090000", "135437.580000", "135439.070000", "135440.560000", "135442.050000", "135443.540000", "135445.030000", "135446.520000", "135448.010000", "135449.500000", "135450.990000", "135452.480000", "135453.970000", "135455.460000", "135456.950000", "135458.440000", "135459.930000", "135501.420000", "135502.910000", "135504.400000", "135505.890000", "135507.380000", "135508.870000", "135510.360000", "135511.850000", "135513.340000", "135514.830000", "135516.320000", "135517.810000", "135519.300000", "135520.790000", "135522.280000", "135523.770000", "135525.260000", "135526.750000", "135528.240000", "135529.730000", "135531.220000", "135532.710000", "135534.200000", "135535.690000", "135537.180000", "135538.670000", "135540.160000", "135541.650000", "135543.140000", "135544.630000", "135546.120000", "135547.610000", "135549.100000", "135550.590000", "135552.080000", "135553.570000", "135555.060000", "135556.550000", "135558.040000", "135559.530000", "135601.020000", "135602.510000", "135604.000000", "135605.490000", "135606.980000", "135608.470000", "135609.960000", "135611.450000", "135612.940000", "135614.430000", "135615.920000", "135617.410000", "135618.900000", "135620.390000", "135621.880000", "135623.370000", "135624.860000", "135626.350000", "135627.840000", "135629.330000", "135630.820000", "135632.310000", "135633.800000", "135635.290000", "135636.780000", "135638.270000", "135639.760000", "135641.250000", "135642.740000", "135644.230000", "135645.720000", "135647.210000", "135648.700000", "135650.190000", "135651.680000", "135653.170000", "135654.660000", "135656.150000", "135657.640000", "135659.130000", "135700.620000", "135702.110000", "135703.600000", "135705.090000", "135706.580000", "135708.070000", "135709.560000", "135711.050000", "135712.540000", "135714.030000", "135715.520000", "135717.010000", "135718.500000", "135719.990000", "135721.480000", "135722.970000", "135724.460000", "135725.950000", "135727.440000", "135728.930000", "135730.420000", "135731.910000", "135733.400000", "135734.890000", "135736.380000", "135737.870000", "135739.360000", "135740.850000", "135742.340000", "135743.830000", "135745.320000", "135746.810000", "135748.300000", "135749.790000", "135751.280000", "135752.770000", "135754.260000", "135755.750000", "135757.240000", "135758.730000", "135800.220000", "135801.710000", "135803.200000", "135804.690000", "135806.180000", "135807.670000", "135809.160000", "135810.650000", "135812.140000", "135813.630000", "135815.120000", "135816.610000", "135818.100000", "135819.590000", "135821.080000", "135822.570000", "135824.060000", "135825.550000", "135827.040000"],
      "ContentTime": ["135552.692000", "135552.696000", "135552.698000", "135552.701000", "135552.704000", "135552.707000", "135552.710000", "135552.713000", "135552.716000", "135552.719000", "135552.721000", "135552.724000", "135552.727000", "135552.730000", "135552.733000", "135552.736000", "135552.748000", "135552.751000", "135552.754000", "135552.757000", "135552.759000", "135552.762000", "135552.765000", "135552.768000", "135552.771000", "135552.774000", "135552.777000", "135612.660000", "135612.663000", "135612.666000", "135612.669000", "135612.672000", "135612.675000", "135612.677000", "135612.680000", "135612.683000", "135612.686000", "135612.689000", "135612.691000", "135612.709000", "135612.712000", "135612.714000", "135612.717000", "135612.720000", "135612.723000", "135612.726000", "135612.729000", "135632.660000", "135632.670000", "135632.673000", "135632.676000", "135632.678000", "135632.681000", "135632.684000", "135632.687000", "135632.690000", "135632.693000", "135632.696000", "135632.698000", "135632.703000", "135632.706000", "135632.709000", "135632.712000", "135632.715000", "135632.718000", "135632.720000", "135632.723000", "135652.660000", "135652.663000", "135652.666000", "135652.669000", "135652.671000", "135652.674000", "135652.677000", "135652.680000", "135652.683000", "135652.686000", "135652.688000", "135652.691000", "135652.694000", "135652.697000", "135652.700000", "135652.703000", "135652.706000", "135652.708000", "135652.711000", "135652.714000", "135652.717000", "135732.660000", "135732.663000", "135732.666000", "135732.669000", "135732.672000", "135732.675000", "135732.677000", "135732.680000", "135732.683000", "135732.686000", "135732.689000", "135732.692000", "135732.704000", "135732.707000", "135732.710000", "135732.713000", "135732.715000", "135732.718000", "135732.721000", "135732.724000", "135732.727000", "135732.731000", "135732.734000", "135732.737000", "135732.740000", "135732.743000", "135732.746000", "135732.749000", "135732.751000", "135732.754000", "135732.757000", "135732.760000", "135812.660000", "135812.663000", "135812.666000", "135812.669000", "135812.672000", "135812.674000", "135812.677000", "135812.680000", "135812.683000", "135812.686000", "135812.689000", "135812.692000", "135812.694000", "135812.697000", "135812.700000", "135812.703000", "135812.706000", "135812.709000", "135812.712000", "135812.714000", "135812.717000", "135812.720000", "135812.723000", "135812.726000", "135812.729000", "135812.731000", "135812.734000", "135829.531000", "135829.535000", "135829.538000", "135829.540000", "135829.543000", "135829.546000", "135829.549000", "135829.552000", "135829.555000", "135829.558000", "135829.561000", "135829.564000"],
      "InstanceCreationTime": ["135552.692000", "135552.696000", "135552.698000", "135552.701000", "135552.704000", "135552.707000", "135552.710000", "135552.713000", "135552.716000", "135552.719000", "135552.721000", "135552.724000", "135552.727000", "135552.730000", "135552.733000", "135552.736000", "135552.748000", "135552.751000", "135552.754000", "135552.757000", "135552.759000", "135552.762000", "135552.765000", "135552.768000", "135552.771000", "135552.774000", "135552.777000", "135612.660000", "135612.663000", "135612.666000", "135612.669000", "135612.672000", "135612.675000", "135612.677000", "135612.680000", "135612.683000", "135612.686000", "135612.689000", "135612.691000", "135612.709000", "135612.712000", "135612.714000", "135612.717000", "135612.720000", "135612.723000", "135612.726000", "135612.729000", "135632.660000", "135632.670000", "135632.673000", "135632.676000", "135632.678000", "135632.681000", "135632.684000", "135632.687000", "135632.690000", "135632.693000", "135632.696000", "135632.698000", "135632.703000", "135632.706000", "135632.709000", "135632.712000", "135632.715000", "135632.718000", "135632.720000", "135632.723000", "135652.660000", "135652.663000", "135652.666000", "135652.669000", "135652.671000", "135652.674000", "135652.677000", "135652.680000", "135652.683000", "135652.686000", "135652.688000", "135652.691000", "135652.694000", "135652.697000", "135652.700000", "135652.703000", "135652.706000", "135652.708000", "135652.711000", "135652.714000", "135652.717000", "135732.660000", "135732.663000", "135732.666000", "135732.669000", "135732.672000", "135732.675000", "135732.677000", "135732.680000", "135732.683000", "135732.686000", "135732.689000", "135732.692000", "135732.704000", "135732.707000", "135732.710000", "135732.713000", "135732.715000", "135732.718000", "135732.721000", "135732.724000", "135732.727000", "135732.731000", "135732.734000", "135732.737000", "135732.740000", "135732.743000", "135732.746000", "135732.749000", "135732.751000", "135732.754000", "135732.757000", "135732.760000", "135812.660000", "135812.663000", "135812.666000", "135812.669000", "135812.672000", "135812.674000", "135812.677000", "135812.680000", "135812.683000", "135812.686000", "135812.689000", "135812.692000", "135812.694000", "135812.697000", "135812.700000", "135812.703000", "135812.706000", "135812.709000", "135812.712000", "135812.714000", "135812.717000", "135812.720000", "135812.723000", "135812.726000", "135812.729000", "135812.731000", "135812.734000", "135829.531000", "135829.535000", "135829.538000", "135829.540000", "135829.543000", "135829.546000", "135829.549000", "135829.552000", "135829.555000", "135829.558000", "135829.561000", "135829.564000"],
      "InstanceNumber": [1, 2, 3, 4, 5, 6, 7, 8, 9, 10, 11, 12, 13, 14, 15, 16, 17, 18, 19, 20, 21, 22, 23, 24, 25, 26, 27, 28, 29, 30, 31, 32, 33, 34, 35, 36, 37, 38, 39, 40, 41, 42, 43, 44, 45, 46, 47, 48, 49, 50, 51, 52, 53, 54, 55, 56, 57, 58, 59, 60, 61, 62, 63, 64, 65, 66, 67, 68, 69, 70, 71, 72, 73, 74, 75, 76, 77, 78, 79, 80, 81, 82, 83, 84, 85, 86, 87, 88, 89, 90, 91, 92, 93, 94, 95, 96, 97, 98, 99, 100, 101, 102, 103, 104, 105, 106, 107, 108, 109, 110, 111, 112, 113, 114, 115, 116, 117, 118, 119, 120, 121, 122, 123, 124, 125, 126, 127, 128, 129, 130, 131, 132, 133, 134, 135, 136, 137, 138, 139, 140, 141, 142, 143, 144, 145, 146, 147, 148, 149, 150, 151, 152, 153, 154, 155, 156, 157, 158, 159],
      "LargestImagePixelValue": [45686, 44281, 43623, 43685, 43080, 43096, 42755, 42554, 42479, 42098, 42553, 42299, 42506, 42315, 42744, 43092, 42775, 42210, 42973, 42630, 42860, 42233, 42465, 42609, 42435, 42331, 42442, 42336, 42076, 42199, 42696, 42648, 43093, 43388, 43114, 42843, 42922, 42870, 42703, 42443, 42586, 42939, 42631, 42732, 43383, 43116, 43507, 43029, 43187, 42613, 42660, 43014, 43106, 43549, 43058, 42769, 42581, 43184, 43315, 42912, 42829, 42955, 42799, 42924, 42661, 43116, 42554, 42830, 42644, 42888, 42777, 42886, 42387, 43277, 42614, 43411, 42442, 42902, 42747, 43217, 43100, 42945, 43415, 43294, 43257, 42816, 43222, 42739, 43200, 43333, 43302, 43172, 43440, 43404, 42870, 42781, 43842, 42965, 43189, 42679, 42942, 42824, 43020, 42849, 42839, 42602, 42536, 43046, 42966, 42807, 43152, 43369, 43469, 43757, 43714, 43527, 43584, 42927, 42660, 43352, 43181, 42857, 42899, 43017, 43013, 43412, 43194, 43543, 42916, 43161, 42832, 42791, 42611, 43116, 42758, 43019, 42925, 42509, 43024, 43232, 42691, 42989, 42772, 42732, 42480, 43064, 43125, 43172, 43211, 43105, 43210, 42523, 43067, 42673, 43959, 43494, 43795, 43529, 43348],
      "WindowCenter": [11044.0, 10980.0, 11014.0, 11004.0, 10993.0, 10965.0, 10958.0, 10938.0, 10956.0, 10951.0, 10941.0, 10912.0, 10927.0, 10957.0, 10976.0, 10963.0, 10927.0, 10918.0, 10951.0, 10964.0, 10976.0, 10955.0, 10953.0, 10939.0, 10931.0, 10926.0, 10931.0, 10935.0, 10943.0, 10934.0, 10947.0, 10941.0, 10955.0, 10973.0, 10978.0, 10967.0, 10957.0, 10947.0, 10951.0, 10950.0, 10949.0, 10951.0, 10940.0, 10965.0, 10981.0, 10975.0, 10963.0, 10956.0, 10945.0, 10923.0, 10930.0, 10936.0, 10954.0, 10962.0, 10957.0, 10914.0, 10919.0, 10944.0, 10939.0, 10929.0, 10962.0, 10986.0, 10979.0, 10951.0, 10933.0, 10953.0, 10949.0, 10949.0, 10936.0, 10930.0, 10922.0, 10938.0, 10948.0, 10955.0, 10951.0, 10963.0, 10948.0, 10949.0, 10961.0, 10980.0, 10968.0, 10953.0, 10945.0, 10945.0, 10935.0, 10930.0, 10926.0, 10931.0, 10940.0, 10950.0, 10944.0, 10949.0, 10960.0, 10963.0, 10959.0, 10968.0, 10980.0, 10971.0, 10966.0, 10946.0, 10942.0, 10948.0, 10961.0, 10976.0, 10971.0, 10968.0, 10946.0, 10961.0, 10970.0, 10971.0, 10963.0, 10949.0, 10940.0, 10945.0, 10973.0, 10982.0, 11014.0, 11012.0, 10998.0, 10956.0, 10941.0, 10967.0, 10973.0, 10978.0, 10953.0, 10926.0, 10928.0, 10942.0, 10932.0, 10927.0, 10922.0, 10929.0, 10933.0, 10938.0, 10924.0, 10924.0, 10940.0, 10944.0, 10944.0, 10961.0, 10966.0, 10973.0, 10965.0, 10956.0, 10949.0, 10948.0, 10950.0, 10948.0, 10954.0, 10964.0, 10977.0, 10958.0, 10965.0, 10958.0, 10966.0, 10972.0, 11016.0, 10965.0, 10912.0],
      "WindowWidth": [23723.0, 23538.0, 23604.0, 23563.0, 23529.0, 23461.0, 23446.0, 23395.0, 23437.0, 23425.0, 23404.0, 23341.0, 23371.0, 23440.0, 23486.0, 23449.0, 23374.0, 23348.0, 23424.0, 23457.0, 23486.0, 23441.0, 23442.0, 23400.0, 23382.0, 23372.0, 23380.0, 23392.0, 23413.0, 23391.0, 23416.0, 23406.0, 23441.0, 23475.0, 23485.0, 23462.0, 23439.0, 23415.0, 23432.0, 23422.0, 23419.0, 23430.0, 23402.0, 23464.0, 23494.0, 23479.0, 23447.0, 23435.0, 23407.0, 23363.0, 23372.0, 23387.0, 23429.0, 23442.0, 23436.0, 23337.0, 23345.0, 23404.0, 23396.0, 23374.0, 23447.0, 23504.0, 23486.0, 23420.0, 23379.0, 23428.0, 23418.0, 23419.0, 23389.0, 23371.0, 23355.0, 23394.0, 23424.0, 23433.0, 23422.0, 23452.0, 23418.0, 23418.0, 23450.0, 23495.0, 23459.0, 23426.0, 23402.0, 23406.0, 23380.0, 23368.0, 23357.0, 23376.0, 23395.0, 23421.0, 23399.0, 23416.0, 23435.0, 23444.0, 23437.0, 23460.0, 23485.0, 23471.0, 23452.0, 23406.0, 23397.0, 23410.0, 23445.0, 23477.0, 23464.0, 23463.0, 23413.0, 23447.0, 23465.0, 23464.0, 23446.0, 23409.0, 23390.0, 23398.0, 23469.0, 23487.0, 23567.0, 23559.0, 23529.0, 23433.0, 23395.0, 23454.0, 23469.0, 23480.0, 23420.0, 23356.0, 23362.0, 23390.0, 23370.0, 23358.0, 23349.0, 23365.0, 23376.0, 23386.0, 23356.0, 23356.0, 23392.0, 23404.0, 23402.0, 23440.0, 23460.0, 23467.0, 23451.0, 23430.0, 23417.0, 23407.0, 23418.0, 23408.0, 23427.0, 23450.0, 23483.0, 23435.0, 23454.0, 23444.0, 23461.0, 23478.0, 23580.0, 23467.0, 23359.0]
    },
    "slices": {}
  }
}