{
  "AcquisitionMatrixPE": 104,
  "AcquisitionNumber": 1,
  "AcquisitionTime": "14:21:24.800000",
  "BandwidthPerPixelPhaseEncode": 17.17,
  "BaseResolution": 104,
  "BodyPartExamined": "BRAIN",
  "CoilString": "HC1-7;NC1_2",
  "ConsistencyInfo": "N4_VE11C_LATEST_20160120",
  "ConversionSoftware": "dcm2niix",
  "ConversionSoftwareVersion": "v1.0.20190720  (JP2:OpenJPEG) GCC7.3.0",
  "DerivedVendorReportedEchoSpacing": 0.000560011,
  "DeviceSerialNumber": "167006",
  "DwellTime": 2.1e-06,
  "EchoTime": 0.037,
  "EchoTrainLength": 104,
  "EffectiveEchoSpacing": 0.000560011,
  "FlipAngle": 52,
  "ImageComments": "Unaliased_MB4_PE3_LB",
  "ImageOrientationPatientDICOM": [0.999578, -0.0206751, 0.0203866, 0.0279207, 0.877132, -0.479438],
  "ImageType": [
    "ORIGINAL",
    "PRIMARY",
    "M",
    "MB",
    "ND",
    "MOSAIC"
],
  "ImagingFrequency": 123.259,
  "InPlanePhaseEncodingDirectionDICOM": "COL",
  "InstitutionAddress": "Chemin_Queen-Mary_4565_Montreal_District_CA_H3W_1W5",
  "InstitutionName": "IUGM",
  "InstitutionalDepartmentName": "Department",
  "MRAcquisitionType": "2D",
  "MagneticFieldStrength": 3,
  "Manufacturer": "Siemens",
  "ManufacturersModelName": "Prisma_fit",
  "Modality": "MR",
  "MultibandAccelerationFactor": 4,
  "PartialFourier": 1,
  "PatientPosition": "HFS",
  "PercentPhaseFOV": 100,
  "PhaseEncodingDirection": "j",
  "PhaseEncodingSteps": 104,
  "PhaseResolution": 1,
  "PixelBandwidth": 2290,
  "ProcedureStepDescription": "hcptrt_generic",
  "ProtocolName": "func_task-gambling_run-2",
  "PulseSequenceDetails": "%CustomerSeq%_cmrr_mbep2d_bold",
  "ReceiveCoilActiveElements": "HC1-7;NC1,2",
  "ReceiveCoilName": "HeadNeck_64",
  "ReconMatrixPE": 104,
  "RepetitionTime": 1.49,
  "SAR": 0.0391853,
  "ScanOptions": "FS",
  "ScanningSequence": "EP",
  "SequenceName": "epfid2d1_104",
  "SequenceVariant": "SK_SS",
  "SeriesDescription": "func_task-gambling_run-2",
  "SeriesNumber": 35,
  "ShimSetting": [621, -7200, -8865, 424, -12, -192, 18, -33],
  "SliceThickness": 2,
  "SliceTiming": [0, 0.785, 0.0975, 0.8825, 0.195, 0.98, 0.295, 1.0775, 0.3925, 1.175, 0.49, 1.275, 0.5875, 1.3725, 0.685, 0, 0.785, 0.0975, 0.8825, 0.195, 0.98, 0.295, 1.0775, 0.3925, 1.175, 0.49, 1.275, 0.5875, 1.3725, 0.685, 0, 0.785, 0.0975, 0.8825, 0.195, 0.98, 0.295, 1.0775, 0.3925, 1.175, 0.49, 1.275, 0.5875, 1.3725, 0.685, 0, 0.785, 0.0975, 0.8825, 0.195, 0.98, 0.295, 1.0775, 0.3925, 1.175, 0.49, 1.275, 0.5875, 1.3725, 0.685],
  "SoftwareVersions": "syngo_MR_E11",
  "SpacingBetweenSlices": 2,
  "StationName": "MRC35049",
  "TaskName": "gambling",
  "TotalReadoutTime": 0.0576811,
  "TxRefAmp": 252.119,
  "WipMemBlock": "0e10c790-366c-413d-af15-b1e7255bd9c6||Sequence: R016 ve11c/master r/e634e98; Dec 19 2017 11:00:25 by eja",
  "dcmmeta_affine": [
    [-1.9991567134857178, 0.05584142357110977, 0.01593863032758236, 98.97215270996094],
    [0.04135027527809143, 1.7542630434036255, -0.959609866142273, -62.65718078613281],
    [0.04077326878905296, 0.9588757753372192, 1.7546780109405518, -96.01033020019531],
    [0.0, 0.0, 0.0, 1.0]
],
  "dcmmeta_reorient_transform": [
    [0.0, -1.0, 0.0, 103.0],
    [1.0, 0.0, 0.0, 0.0],
    [0.0, 0.0, 1.0, 0.0],
    [0.0, 0.0, 0.0, 1.0]
],
  "dcmmeta_shape": [104, 104, 60, 129],
  "dcmmeta_slice_dim": 2,
  "dcmmeta_version": 0.6,
  "global": {
    "const": {
      "AcquisitionMatrix": [104, 0, 0, 104],
      "AngioFlag": "N",
      "BitsAllocated": 16,
      "BitsStored": 16,
      "BodyPartExamined": "BRAIN",
      "Columns": 832,
      "EchoNumbers": 1,
      "EchoTime": 37.0,
      "EchoTrainLength": 104,
      "FlipAngle": 52.0,
      "HighBit": 15,
      "ImageOrientationPatient": [0.99957837303829, -0.0206751376279, 0.02038663381208, 0.02792071211718, 0.87713154725436, -0.4794378819472],
      "ImagePositionPatient": [-852.74315643854, -741.53218584266, 336.94318498775],
      "ImageType": [
        "ORIGINAL",
        "PRIMARY",
        "M",
        "MB",
        "ND",
        "MOSAIC"
],
      "ImagedNucleus": "1H",
      "ImagingFrequency": 123.259256,
      "InPlanePhaseEncodingDirection": "COL",
      "MRAcquisitionType": "2D",
      "MagneticFieldStrength": 3.0,
      "Manufacturer": "SIEMENS",
      "ManufacturerModelName": "Prisma_fit",
      "Modality": "MR",
      "NumberOfAverages": 1.0,
      "NumberOfPhaseEncodingSteps": 104,
      "PercentPhaseFieldOfView": 100.0,
      "PercentSampling": 100.0,
      "PerformedProcedureStepStartTime": "131454.296000",
      "PhotometricInterpretation": "MONOCHROME2",
      "PixelBandwidth": 2290.0,
      "PixelRepresentation": 0,
      "PixelSpacing": [2.0, 2.0],
      "ProtocolName": "func_task-gambling_run-2",
      "RepetitionTime": 1490.0,
      "Rows": 832,
      "SAR": 0.03918533192599,
      "SamplesPerPixel": 1,
      "ScanOptions": "FS",
      "ScanningSequence": "EP",
      "SequenceName": "epfid2d1_104",
      "SequenceVariant": [
        "SK",
        "SS"
],
      "SeriesDescription": "func_task-gambling_run-2",
      "SeriesNumber": 35,
      "SeriesTime": "142232.696000",
      "SliceLocation": -53.381638717215,
      "SliceThickness": 2.0,
      "SmallestImagePixelValue": 0,
      "SoftwareVersions": "syngo MR E11",
      "SpacingBetweenSlices": 1.9999999997571,
      "SpecificCharacterSet": "ISO_IR 100",
      "StudyID": "1",
      "StudyTime": "131454.208000",
      "TransmitCoilName": "Body",
      "VariableFlipAngleFlag": "N",
      "WindowCenterWidthExplanation": "Algo1",
      "dBdt": 0.0},
    "slices": {}
  },
  "time": {
    "samples": {
      "AcquisitionNumber": [1, 2, 3, 4, 5, 6, 7, 8, 9, 10, 11, 12, 13, 14, 15, 16, 17, 18, 19, 20, 21, 22, 23, 24, 25, 26, 27, 28, 29, 30, 31, 32, 33, 34, 35, 36, 37, 38, 39, 40, 41, 42, 43, 44, 45, 46, 47, 48, 49, 50, 51, 52, 53, 54, 55, 56, 57, 58, 59, 60, 61, 62, 63, 64, 65, 66, 67, 68, 69, 70, 71, 72, 73, 74, 75, 76, 77, 78, 79, 80, 81, 82, 83, 84, 85, 86, 87, 88, 89, 90, 91, 92, 93, 94, 95, 96, 97, 98, 99, 100, 101, 102, 103, 104, 105, 106, 107, 108, 109, 110, 111, 112, 113, 114, 115, 116, 117, 118, 119, 120, 121, 122, 123, 124, 125, 126, 127, 128, 129],
      "AcquisitionTime": ["142124.800000", "142126.290000", "142127.780000", "142129.270000", "142130.760000", "142132.250000", "142133.740000", "142135.230000", "142136.720000", "142138.210000", "142139.700000", "142141.190000", "142142.680000", "142144.170000", "142145.660000", "142147.150000", "142148.640000", "142150.130000", "142151.620000", "142153.110000", "142154.600000", "142156.090000", "142157.580000", "142159.070000", "142200.560000", "142202.050000", "142203.540000", "142205.030000", "142206.520000", "142208.010000", "142209.500000", "142210.990000", "142212.480000", "142213.970000", "142215.460000", "142216.950000", "142218.440000", "142219.930000", "142221.420000", "142222.910000", "142224.400000", "142225.890000", "142227.380000", "142228.870000", "142230.360000", "142231.850000", "142233.340000", "142234.830000", "142236.320000", "142237.810000", "142239.300000", "142240.790000", "142242.280000", "142243.770000", "142245.260000", "142246.750000", "142248.240000", "142249.730000", "142251.220000", "142252.710000", "142254.200000", "142255.690000", "142257.180000", "142258.670000", "142300.160000", "142301.650000", "142303.140000", "142304.630000", "142306.120000", "142307.610000", "142309.100000", "142310.590000", "142312.080000", "142313.570000", "142315.060000", "142316.550000", "142318.040000", "142319.530000", "142321.020000", "142322.510000", "142324.000000", "142325.490000", "142326.980000", "142328.470000", "142329.960000", "142331.450000", "142332.940000", "142334.430000", "142335.920000", "142337.410000", "142338.900000", "142340.390000", "142341.880000", "142343.370000", "142344.860000", "142346.350000", "142347.840000", "142349.330000", "142350.820000", "142352.310000", "142353.800000", "142355.290000", "142356.780000", "142358.270000", "142359.760000", "142401.250000", "142402.740000", "142404.230000", "142405.720000", "142407.210000", "142408.700000", "142410.190000", "142411.680000", "142413.170000", "142414.660000", "142416.150000", "142417.640000", "142419.130000", "142420.620000", "142422.110000", "142423.600000", "142425.090000", "142426.580000", "142428.070000", "142429.560000", "142431.050000", "142432.540000", "142434.030000", "142435.520000"],
      "ContentTime": ["142232.698000", "142232.702000", "142232.704000", "142232.707000", "142232.721000", "142232.723000", "142232.726000", "142232.729000", "142232.732000", "142232.735000", "142232.737000", "142232.744000", "142232.752000", "142232.755000", "142252.660000", "142252.663000", "142252.666000", "142252.669000", "142252.671000", "142252.674000", "142252.677000", "142252.680000", "142252.683000", "142252.685000", "142252.688000", "142252.691000", "142252.694000", "142252.703000", "142252.706000", "142252.709000", "142252.712000", "142252.714000", "142252.717000", "142252.720000", "142312.660000", "142312.663000", "142312.666000", "142312.668000", "142312.671000", "142312.674000", "142312.677000", "142312.680000", "142312.683000", "142312.686000", "142312.688000", "142312.691000", "142312.694000", "142312.697000", "142312.700000", "142312.702000", "142312.705000", "142312.708000", "142312.720000", "142312.723000", "142332.660000", "142332.663000", "142332.666000", "142332.669000", "142332.672000", "142332.675000", "142332.677000", "142332.680000", "142332.683000", "142332.686000", "142332.689000", "142332.692000", "142332.695000", "142332.697000", "142332.700000", "142332.703000", "142332.706000", "142332.709000", "142332.711000", "142332.714000", "142332.717000", "142352.660000", "142352.663000", "142352.666000", "142352.669000", "142352.672000", "142352.674000", "142352.677000", "142352.680000", "142352.683000", "142352.686000", "142352.688000", "142352.691000", "142352.694000", "142352.697000", "142352.700000", "142352.703000", "142352.710000", "142352.713000", "142352.716000", "142352.719000", "142432.660000", "142432.663000", "142432.666000", "142432.668000", "142432.671000", "142432.674000", "142432.677000", "142432.680000", "142432.683000", "142432.685000", "142432.688000", "142432.691000", "142432.694000", "142432.698000", "142432.701000", "142432.704000", "142432.707000", "142432.710000", "142432.712000", "142432.715000", "142432.718000", "142432.721000", "142432.724000", "142432.727000", "142432.729000", "142432.732000", "142432.735000", "142432.738000", "142432.741000", "142432.744000", "142437.351000", "142437.354000", "142437.357000", "142437.360000"],
      "InstanceCreationTime": ["142232.698000", "142232.702000", "142232.704000", "142232.707000", "142232.721000", "142232.723000", "142232.726000", "142232.729000", "142232.732000", "142232.735000", "142232.737000", "142232.744000", "142232.752000", "142232.755000", "142252.660000", "142252.663000", "142252.666000", "142252.669000", "142252.671000", "142252.674000", "142252.677000", "142252.680000", "142252.683000", "142252.685000", "142252.688000", "142252.691000", "142252.694000", "142252.703000", "142252.706000", "142252.709000", "142252.712000", "142252.714000", "142252.717000", "142252.720000", "142312.660000", "142312.663000", "142312.666000", "142312.668000", "142312.671000", "142312.674000", "142312.677000", "142312.680000", "142312.683000", "142312.686000", "142312.688000", "142312.691000", "142312.694000", "142312.697000", "142312.700000", "142312.702000", "142312.705000", "142312.708000", "142312.720000", "142312.723000", "142332.660000", "142332.663000", "142332.666000", "142332.669000", "142332.672000", "142332.675000", "142332.677000", "142332.680000", "142332.683000", "142332.686000", "142332.689000", "142332.692000", "142332.695000", "142332.697000", "142332.700000", "142332.703000", "142332.706000", "142332.709000", "142332.711000", "142332.714000", "142332.717000", "142352.660000", "142352.663000", "142352.666000", "142352.669000", "142352.672000", "142352.674000", "142352.677000", "142352.680000", "142352.683000", "142352.686000", "142352.688000", "142352.691000", "142352.694000", "142352.697000", "142352.700000", "142352.703000", "142352.710000", "142352.713000", "142352.716000", "142352.719000", "142432.660000", "142432.663000", "142432.666000", "142432.668000", "142432.671000", "142432.674000", "142432.677000", "142432.680000", "142432.683000", "142432.685000", "142432.688000", "142432.691000", "142432.694000", "142432.698000", "142432.701000", "142432.704000", "142432.707000", "142432.710000", "142432.712000", "142432.715000", "142432.718000", "142432.721000", "142432.724000", "142432.727000", "142432.729000", "142432.732000", "142432.735000", "142432.738000", "142432.741000", "142432.744000", "142437.351000", "142437.354000", "142437.357000", "142437.360000"],
      "InstanceNumber": [1, 2, 3, 4, 5, 6, 7, 8, 9, 10, 11, 12, 13, 14, 15, 16, 17, 18, 19, 20, 21, 22, 23, 24, 25, 26, 27, 28, 29, 30, 31, 32, 33, 34, 35, 36, 37, 38, 39, 40, 41, 42, 43, 44, 45, 46, 47, 48, 49, 50, 51, 52, 53, 54, 55, 56, 57, 58, 59, 60, 61, 62, 63, 64, 65, 66, 67, 68, 69, 70, 71, 72, 73, 74, 75, 76, 77, 78, 79, 80, 81, 82, 83, 84, 85, 86, 87, 88, 89, 90, 91, 92, 93, 94, 95, 96, 97, 98, 99, 100, 101, 102, 103, 104, 105, 106, 107, 108, 109, 110, 111, 112, 113, 114, 115, 116, 117, 118, 119, 120, 121, 122, 123, 124, 125, 126, 127, 128, 129],
      "LargestImagePixelValue": [46298, 44963, 43865, 43813, 43559, 43084, 43429, 43615, 43195, 42943, 42728, 43095, 43199, 42598, 42173, 43423, 43245, 42987, 42795, 42683, 42553, 42784, 42706, 43211, 42632, 42640, 42571, 42705, 42388, 42242, 43781, 42868, 42843, 43562, 42250, 42502, 43401, 42925, 43218, 42833, 42631, 43125, 43047, 42247, 41951, 42395, 42435, 42365, 42884, 41909, 41936, 41935, 41885, 41939, 42440, 42388, 42412, 42067, 42112, 42481, 42098, 42258, 42680, 41864, 42343, 43140, 42218, 43022, 43009, 42737, 42909, 42866, 42788, 42871, 42586, 42754, 42889, 42431, 43246, 42845, 42148, 42766, 42174, 42626, 42412, 42660, 42583, 43358, 42738, 43171, 43142, 42542, 42792, 42605, 42622, 42504, 42590, 42472, 42892, 41985, 42249, 42299, 43141, 43377, 42952, 43747, 43366, 42966, 43227, 42767, 42442, 43257, 42236, 42623, 42204, 42462, 42282, 42445, 42686, 41740, 42681, 41766, 42153, 41809, 42477, 42557, 44057, 43119, 42581],
      "WindowCenter": [11000.0, 10935.0, 10865.0, 10818.0, 10831.0, 10904.0, 10950.0, 10938.0, 10902.0, 10870.0, 10859.0, 10864.0, 10882.0, 10902.0, 10894.0, 10912.0, 10904.0, 10915.0, 10909.0, 10883.0, 10894.0, 10922.0, 10946.0, 10953.0, 10930.0, 10911.0, 10899.0, 10880.0, 10883.0, 10917.0, 10940.0, 10908.0, 10877.0, 10886.0, 10903.0, 10941.0, 10937.0, 10926.0, 10913.0, 10899.0, 10883.0, 10866.0, 10849.0, 10874.0, 10906.0, 10941.0, 10955.0, 10933.0, 10904.0, 10878.0, 10877.0, 10913.0, 10912.0, 10910.0, 10900.0, 10894.0, 10918.0, 10914.0, 10875.0, 10854.0, 10838.0, 10838.0, 10892.0, 10898.0, 10865.0, 10866.0, 10902.0, 10927.0, 10879.0, 10858.0, 10843.0, 10870.0, 10887.0, 10879.0, 10858.0, 10847.0, 10848.0, 10849.0, 10875.0, 10877.0, 10870.0, 10883.0, 10882.0, 10904.0, 10917.0, 10935.0, 10943.0, 10957.0, 10898.0, 10848.0, 10858.0, 10882.0, 10895.0, 10877.0, 10863.0, 10855.0, 10852.0, 10852.0, 10867.0, 10875.0, 10892.0, 10885.0, 10875.0, 10888.0, 10912.0, 10952.0, 10960.0, 10939.0, 10922.0, 10909.0, 10924.0, 10941.0, 10913.0, 10892.0, 10879.0, 10916.0, 10914.0, 10894.0, 10891.0, 10864.0, 10879.0, 10875.0, 10856.0, 10851.0, 10909.0, 10957.0, 10981.0, 10941.0, 10887.0],
      "WindowWidth": [23611.0, 23434.0, 23250.0, 23133.0, 23153.0, 23318.0, 23428.0, 23396.0, 23306.0, 23232.0, 23208.0, 23223.0, 23267.0, 23316.0, 23304.0, 23343.0, 23321.0, 23346.0, 23337.0, 23278.0, 23297.0, 23363.0, 23424.0, 23439.0, 23381.0, 23335.0, 23305.0, 23259.0, 23272.0, 23361.0, 23398.0, 23332.0, 23256.0, 23276.0, 23315.0, 23403.0, 23397.0, 23367.0, 23332.0, 23304.0, 23271.0, 23231.0, 23192.0, 23252.0, 23333.0, 23412.0, 23439.0, 23392.0, 23322.0, 23267.0, 23263.0, 23349.0, 23342.0, 23338.0, 23317.0, 23308.0, 23364.0, 23351.0, 23257.0, 23202.0, 23168.0, 23170.0, 23290.0, 23312.0, 23237.0, 23228.0, 23317.0, 23373.0, 23269.0, 23218.0, 23177.0, 23238.0, 23277.0, 23255.0, 23203.0, 23179.0, 23186.0, 23189.0, 23249.0, 23253.0, 23240.0, 23263.0, 23267.0, 23310.0, 23341.0, 23392.0, 23408.0, 23435.0, 23309.0, 23188.0, 23203.0, 23262.0, 23289.0, 23249.0, 23218.0, 23194.0, 23191.0, 23191.0, 23223.0, 23257.0, 23292.0, 23279.0, 23249.0, 23275.0, 23335.0, 23418.0, 23448.0, 23404.0, 23362.0, 23335.0, 23366.0, 23403.0, 23338.0, 23298.0, 23258.0, 23346.0, 23341.0, 23295.0, 23290.0, 23231.0, 23257.0, 23249.0, 23209.0, 23209.0, 23343.0, 23461.0, 23505.0, 23416.0, 23295.0]
    },
    "slices": {}
  }
}