{
  "AcquisitionMatrixPE": 104,
  "AcquisitionNumber": 1,
  "AcquisitionTime": "10:06:50.290000",
  "BandwidthPerPixelPhaseEncode": 17.17,
  "BaseResolution": 104,
  "BodyPartExamined": "BRAIN",
  "CoilString": "HC1-7;NC1_2",
  "ConsistencyInfo": "N4_VE11C_LATEST_20160120",
  "ConversionSoftware": "dcm2niix",
  "ConversionSoftwareVersion": "v1.0.20200427",
  "DerivedVendorReportedEchoSpacing": 0.000560011,
  "DeviceSerialNumber": "167006",
  "DwellTime": 2.1e-06,
  "EchoTime": 0.037,
  "EchoTrainLength": 104,
  "EffectiveEchoSpacing": 0.000560011,
  "FlipAngle": 52,
  "ImageComments": "Unaliased_MB4_PE3_LB",
  "ImageOrientationPatientDICOM": [0.998234, -0.00679046, -0.0590197, -0.00696905, 0.973203, -0.229843],
  "ImageType": [
    "ORIGINAL",
    "PRIMARY",
    "M",
    "MB",
    "ND",
    "MOSAIC"
],
  "ImagingFrequency": 123.259,
  "InPlanePhaseEncodingDirectionDICOM": "COL",
  "InstitutionAddress": "Chemin_Queen-Mary_4565_Montreal_District_CA_H3W_1W5",
  "InstitutionName": "IUGM",
  "InstitutionalDepartmentName": "Department",
  "MRAcquisitionType": "2D",
  "MagneticFieldStrength": 3,
  "Manufacturer": "Siemens",
  "ManufacturersModelName": "Prisma_fit",
  "Modality": "MR",
  "MultibandAccelerationFactor": 4,
  "PartialFourier": 1,
  "PatientPosition": "HFS",
  "PercentPhaseFOV": 100,
  "PercentSampling": 100,
  "PhaseEncodingDirection": "j",
  "PhaseEncodingSteps": 104,
  "PhaseResolution": 1,
  "PixelBandwidth": 2290,
  "ProcedureStepDescription": "hcptrt_generic",
  "ProtocolName": "func_task-relational_run-2",
  "PulseSequenceDetails": "%CustomerSeq%_cmrr_mbep2d_bold",
  "ReceiveCoilActiveElements": "HC1-7;NC1,2",
  "ReceiveCoilName": "HeadNeck_64",
  "ReconMatrixPE": 104,
  "RepetitionTime": 1.49,
  "SAR": 0.0275157,
  "ScanOptions": "FS",
  "ScanningSequence": "EP",
  "SequenceName": "epfid2d1_104",
  "SequenceVariant": "SK_SS",
  "SeriesDescription": "func_task-relational_run-2",
  "SeriesNumber": 31,
  "ShimSetting": [599, -7249, -8850, 591, -41, -295, -19, 59],
  "SliceThickness": 2,
  "SliceTiming": [0, 0.785, 0.1, 0.8825, 0.1975, 0.98, 0.295, 1.08, 0.3925, 1.1775, 0.49, 1.275, 0.59, 1.3725, 0.6875, 0, 0.785, 0.1, 0.8825, 0.1975, 0.98, 0.295, 1.08, 0.3925, 1.1775, 0.49, 1.275, 0.59, 1.3725, 0.6875, 0, 0.785, 0.1, 0.8825, 0.1975, 0.98, 0.295, 1.08, 0.3925, 1.1775, 0.49, 1.275, 0.59, 1.3725, 0.6875, 0, 0.785, 0.1, 0.8825, 0.1975, 0.98, 0.295, 1.08, 0.3925, 1.1775, 0.49, 1.275, 0.59, 1.3725, 0.6875],
  "SoftwareVersions": "syngo_MR_E11",
  "SpacingBetweenSlices": 2,
  "StationName": "MRC35049",
  "TaskName": "relational",
  "TotalReadoutTime": 0.0576811,
  "TxRefAmp": 215.491,
  "WipMemBlock": "ffd7d193-02f0-4788-9ac1-4d8329bb674a||Sequence: R016 ve11c/master r/e634e98; Dec 19 2017 11:00:25 by eja",
  "dcmmeta_affine": [
    [-1.9964674711227417, -0.013938107527792454, -0.1179976612329483, 106.94478607177734],
    [0.013580920174717903, 1.9464056491851807, -0.4596962034702301, -73.65485382080078],
    [-0.11803930252790451, 0.4596855044364929, 1.9428731203079224, -52.00031280517578],
    [0.0, 0.0, 0.0, 1.0]
],
  "dcmmeta_reorient_transform": [
    [0.0, -1.0, 0.0, 103.0],
    [1.0, 0.0, 0.0, 0.0],
    [0.0, 0.0, 1.0, 0.0],
    [0.0, 0.0, 0.0, 1.0]
],
  "dcmmeta_shape": [104, 104, 60, 119],
  "dcmmeta_slice_dim": 2,
  "dcmmeta_version": 0.6,
  "global": {
    "const": {
      "AcquisitionMatrix": [104, 0, 0, 104],
      "AngioFlag": "N",
      "BitsAllocated": 16,
      "BitsStored": 16,
      "BodyPartExamined": "BRAIN",
      "Columns": 832,
      "EchoNumbers": 1,
      "EchoTime": 37.0,
      "EchoTrainLength": 104,
      "FlipAngle": 52.0,
      "HighBit": 15,
      "ImageOrientationPatient": [0.99823372531837, -0.0067904599356, -0.0590196517346, -0.0069690535481, 0.97320282691566, -0.2298427505405],
      "ImagePositionPatient": [-827.1498383006, -830.37313208253, 205.63912172022],
      "ImageType": [
        "ORIGINAL",
        "PRIMARY",
        "M",
        "MB",
        "ND",
        "MOSAIC"
],
      "ImagedNucleus": "1H",
      "ImagingFrequency": 123.25907,
      "InPlanePhaseEncodingDirection": "COL",
      "MRAcquisitionType": "2D",
      "MagneticFieldStrength": 3.0,
      "Manufacturer": "SIEMENS",
      "ManufacturerModelName": "Prisma_fit",
      "Modality": "MR",
      "NumberOfAverages": 1.0,
      "NumberOfPhaseEncodingSteps": 104,
      "PercentPhaseFieldOfView": 100.0,
      "PercentSampling": 100.0,
      "PerformedProcedureStepStartTime": "085633.797000",
      "PhotometricInterpretation": "MONOCHROME2",
      "PixelBandwidth": 2290.0,
      "PixelRepresentation": 0,
      "PixelSpacing": [2.0, 2.0],
      "ProtocolName": "func_task-relational_run-2",
      "RepetitionTime": 1490.0,
      "Rows": 832,
      "SAR": 0.02751567437375,
      "SamplesPerPixel": 1,
      "ScanOptions": "FS",
      "ScanningSequence": "EP",
      "SequenceName": "epfid2d1_104",
      "SequenceVariant": [
        "SK",
        "SS"
],
      "SeriesDescription": "func_task-relational_run-2",
      "SeriesNumber": 31,
      "SeriesTime": "100821.964000",
      "SliceLocation": -39.895195104196,
      "SliceThickness": 2.0,
      "SmallestImagePixelValue": 0,
      "SoftwareVersions": "syngo MR E11",
      "SpacingBetweenSlices": 2.0000000443886,
      "SpecificCharacterSet": "ISO_IR 100",
      "StudyID": "1",
      "StudyTime": "085633.694000",
      "TransmitCoilName": "Body",
      "VariableFlipAngleFlag": "N",
      "WindowCenterWidthExplanation": "Algo1",
      "dBdt": 0.0},
    "slices": {}
  },
  "time": {
    "samples": {
      "AcquisitionNumber": [1, 2, 3, 4, 5, 6, 7, 8, 9, 10, 11, 12, 13, 14, 15, 16, 17, 18, 19, 20, 21, 22, 23, 24, 25, 26, 27, 28, 29, 30, 31, 32, 33, 34, 35, 36, 37, 38, 39, 40, 41, 42, 43, 44, 45, 46, 47, 48, 49, 50, 51, 52, 53, 54, 55, 56, 57, 58, 59, 60, 61, 62, 63, 64, 65, 66, 67, 68, 69, 70, 71, 72, 73, 74, 75, 76, 77, 78, 79, 80, 81, 82, 83, 84, 85, 86, 87, 88, 89, 90, 91, 92, 93, 94, 95, 96, 97, 98, 99, 100, 101, 102, 103, 104, 105, 106, 107, 108, 109, 110, 111, 112, 113, 114, 115, 116, 117, 118, 119],
      "AcquisitionTime": ["100650.290000", "100651.780000", "100653.270000", "100654.760000", "100656.250000", "100657.740000", "100659.230000", "100700.720000", "100702.210000", "100703.700000", "100705.190000", "100706.680000", "100708.170000", "100709.660000", "100711.150000", "100712.640000", "100714.130000", "100715.620000", "100717.110000", "100718.600000", "100720.090000", "100721.580000", "100723.070000", "100724.560000", "100726.050000", "100727.540000", "100729.030000", "100730.520000", "100732.010000", "100733.500000", "100734.990000", "100736.480000", "100737.970000", "100739.460000", "100740.950000", "100742.440000", "100743.930000", "100745.420000", "100746.910000", "100748.400000", "100749.890000", "100751.380000", "100752.870000", "100754.360000", "100755.850000", "100757.340000", "100758.830000", "100800.320000", "100801.810000", "100803.300000", "100804.790000", "100806.280000", "100807.770000", "100809.260000", "100810.750000", "100812.240000", "100813.730000", "100815.220000", "100816.710000", "100818.200000", "100819.690000", "100821.180000", "100822.670000", "100824.160000", "100825.650000", "100827.140000", "100828.630000", "100830.120000", "100831.610000", "100833.100000", "100834.590000", "100836.080000", "100837.570000", "100839.060000", "100840.550000", "100842.040000", "100843.530000", "100845.020000", "100846.510000", "100848.000000", "100849.490000", "100850.980000", "100852.470000", "100853.960000", "100855.450000", "100856.940000", "100858.430000", "100859.920000", "100901.410000", "100902.900000", "100904.390000", "100905.880000", "100907.370000", "100908.860000", "100910.350000", "100911.840000", "100913.330000", "100914.820000", "100916.310000", "100917.800000", "100919.290000", "100920.780000", "100922.270000", "100923.760000", "100925.250000", "100926.740000", "100928.230000", "100929.720000", "100931.210000", "100932.700000", "100934.190000", "100935.680000", "100937.170000", "100938.660000", "100940.150000", "100941.640000", "100943.130000", "100944.620000", "100946.110000"],
      "ContentTime": ["100821.967000", "100821.970000", "100821.973000", "100821.976000", "100821.979000", "100821.982000", "100821.985000", "100821.987000", "100821.990000", "100821.993000", "100821.996000", "100822.000000", "100822.003000", "100822.006000", "100822.008000", "100822.011000", "100822.014000", "100822.017000", "100822.020000", "100822.023000", "100822.025000", "100822.028000", "100822.031000", "100822.034000", "100822.037000", "100822.040000", "100822.043000", "100822.045000", "100822.048000", "100822.051000", "100822.054000", "100822.057000", "100822.059000", "100822.062000", "100822.065000", "100822.079000", "100822.081000", "100841.936000", "100841.943000", "100841.946000", "100841.949000", "100841.952000", "100841.955000", "100841.957000", "100841.961000", "100841.964000", "100841.967000", "100841.970000", "100841.973000", "100841.976000", "100841.979000", "100841.981000", "100841.984000", "100841.987000", "100841.990000", "100841.993000", "100841.996000", "100901.937000", "100901.940000", "100901.943000", "100901.946000", "100901.948000", "100901.951000", "100901.954000", "100901.957000", "100901.960000", "100901.963000", "100901.965000", "100901.968000", "100901.971000", "100901.974000", "100901.977000", "100901.980000", "100901.982000", "100901.985000", "100901.988000", "100901.991000", "100921.937000", "100921.940000", "100921.943000", "100921.946000", "100921.949000", "100921.951000", "100921.954000", "100921.957000", "100921.960000", "100921.963000", "100921.966000", "100921.968000", "100921.971000", "100921.980000", "100921.983000", "100921.986000", "100921.989000", "100921.992000", "100921.995000", "100921.998000", "100948.503000", "100948.506000", "100948.509000", "100948.517000", "100948.520000", "100948.523000", "100948.526000", "100948.529000", "100948.532000", "100948.535000", "100948.537000", "100948.541000", "100948.544000", "100948.547000", "100948.549000", "100948.553000", "100948.555000", "100948.558000", "100948.561000", "100948.564000", "100948.567000", "100948.570000"],
      "InstanceCreationTime": ["100821.967000", "100821.970000", "100821.973000", "100821.976000", "100821.979000", "100821.982000", "100821.985000", "100821.987000", "100821.990000", "100821.993000", "100821.996000", "100822.000000", "100822.003000", "100822.006000", "100822.008000", "100822.011000", "100822.014000", "100822.017000", "100822.020000", "100822.023000", "100822.025000", "100822.028000", "100822.031000", "100822.034000", "100822.037000", "100822.040000", "100822.043000", "100822.045000", "100822.048000", "100822.051000", "100822.054000", "100822.057000", "100822.059000", "100822.062000", "100822.065000", "100822.079000", "100822.081000", "100841.936000", "100841.943000", "100841.946000", "100841.949000", "100841.952000", "100841.955000", "100841.957000", "100841.961000", "100841.964000", "100841.967000", "100841.970000", "100841.973000", "100841.976000", "100841.979000", "100841.981000", "100841.984000", "100841.987000", "100841.990000", "100841.993000", "100841.996000", "100901.937000", "100901.940000", "100901.943000", "100901.946000", "100901.948000", "100901.951000", "100901.954000", "100901.957000", "100901.960000", "100901.963000", "100901.965000", "100901.968000", "100901.971000", "100901.974000", "100901.977000", "100901.980000", "100901.982000", "100901.985000", "100901.988000", "100901.991000", "100921.937000", "100921.940000", "100921.943000", "100921.946000", "100921.949000", "100921.951000", "100921.954000", "100921.957000", "100921.960000", "100921.963000", "100921.966000", "100921.968000", "100921.971000", "100921.980000", "100921.983000", "100921.986000", "100921.989000", "100921.992000", "100921.995000", "100921.998000", "100948.503000", "100948.506000", "100948.509000", "100948.517000", "100948.520000", "100948.523000", "100948.526000", "100948.529000", "100948.532000", "100948.535000", "100948.537000", "100948.541000", "100948.544000", "100948.547000", "100948.549000", "100948.553000", "100948.555000", "100948.558000", "100948.561000", "100948.564000", "100948.567000", "100948.570000"],
      "InstanceNumber": [1, 2, 3, 4, 5, 6, 7, 8, 9, 10, 11, 12, 13, 14, 15, 16, 17, 18, 19, 20, 21, 22, 23, 24, 25, 26, 27, 28, 29, 30, 31, 32, 33, 34, 35, 36, 37, 38, 39, 40, 41, 42, 43, 44, 45, 46, 47, 48, 49, 50, 51, 52, 53, 54, 55, 56, 57, 58, 59, 60, 61, 62, 63, 64, 65, 66, 67, 68, 69, 70, 71, 72, 73, 74, 75, 76, 77, 78, 79, 80, 81, 82, 83, 84, 85, 86, 87, 88, 89, 90, 91, 92, 93, 94, 95, 96, 97, 98, 99, 100, 101, 102, 103, 104, 105, 106, 107, 108, 109, 110, 111, 112, 113, 114, 115, 116, 117, 118, 119],
      "LargestImagePixelValue": [43659, 42151, 41541, 40750, 41413, 40585, 40908, 40963, 41177, 40019, 40431, 39634, 41171, 40379, 40971, 40368, 40899, 40685, 40298, 40057, 40415, 40895, 41323, 41309, 40754, 40981, 40600, 41091, 41189, 40842, 41261, 40428, 40721, 41089, 41096, 41850, 41417, 41586, 41043, 41460, 41425, 41733, 41694, 41422, 41146, 40246, 41425, 40578, 41410, 40708, 41055, 41217, 40341, 40563, 40288, 39852, 40146, 40457, 40549, 40046, 40227, 39573, 40012, 40021, 40007, 40095, 39613, 39830, 39691, 39768, 40360, 40264, 39905, 40016, 40581, 39919, 40622, 40301, 40077, 39982, 40009, 40060, 39855, 39856, 39879, 39991, 40327, 40018, 40113, 39787, 40080, 40250, 40040, 40101, 40397, 39672, 40450, 40013, 40084, 40034, 39969, 40489, 39785, 40120, 39836, 39903, 39942, 39906, 40015, 40092, 40168, 40233, 40266, 40821, 40765, 40696, 40660, 40645, 40337],
      "WindowCenter": [9845.0, 9788.0, 9757.0, 9739.0, 9751.0, 9753.0, 9761.0, 9770.0, 9786.0, 9791.0, 9803.0, 9810.0, 9818.0, 9811.0, 9815.0, 9803.0, 9808.0, 9799.0, 9801.0, 9804.0, 9816.0, 9816.0, 9824.0, 9823.0, 9812.0, 9810.0, 9802.0, 9808.0, 9823.0, 9819.0, 9817.0, 9796.0, 9802.0, 9808.0, 9814.0, 9817.0, 9816.0, 9814.0, 9802.0, 9813.0, 9799.0, 9807.0, 9807.0, 9817.0, 9815.0, 9822.0, 9818.0, 9820.0, 9819.0, 9820.0, 9813.0, 9816.0, 9806.0, 9802.0, 9804.0, 9805.0, 9801.0, 9805.0, 9813.0, 9799.0, 9795.0, 9791.0, 9799.0, 9804.0, 9798.0, 9795.0, 9790.0, 9801.0, 9799.0, 9795.0, 9794.0, 9797.0, 9798.0, 9799.0, 9814.0, 9808.0, 9814.0, 9807.0, 9807.0, 9805.0, 9807.0, 9813.0, 9808.0, 9813.0, 9823.0, 9809.0, 9816.0, 9809.0, 9810.0, 9800.0, 9799.0, 9804.0, 9804.0, 9808.0, 9806.0, 9799.0, 9804.0, 9806.0, 9809.0, 9807.0, 9808.0, 9811.0, 9807.0, 9798.0, 9791.0, 9790.0, 9797.0, 9795.0, 9797.0, 9791.0, 9795.0, 9796.0, 9795.0, 9806.0, 9800.0, 9805.0, 9806.0, 9808.0, 9799.0],
      "WindowWidth": [21006.0, 20852.0, 20770.0, 20723.0, 20738.0, 20744.0, 20761.0, 20782.0, 20812.0, 20825.0, 20856.0, 20871.0, 20885.0, 20874.0, 20876.0, 20855.0, 20861.0, 20843.0, 20849.0, 20860.0, 20881.0, 20881.0, 20900.0, 20896.0, 20876.0, 20869.0, 20852.0, 20864.0, 20894.0, 20889.0, 20884.0, 20840.0, 20852.0, 20866.0, 20877.0, 20884.0, 20880.0, 20875.0, 20852.0, 20872.0, 20845.0, 20863.0, 20863.0, 20885.0, 20879.0, 20897.0, 20883.0, 20891.0, 20890.0, 20896.0, 20879.0, 20881.0, 20864.0, 20854.0, 20862.0, 20863.0, 20860.0, 20864.0, 20877.0, 20852.0, 20840.0, 20834.0, 20850.0, 20863.0, 20847.0, 20841.0, 20833.0, 20867.0, 20855.0, 20847.0, 20840.0, 20849.0, 20852.0, 20858.0, 20888.0, 20875.0, 20887.0, 20872.0, 20873.0, 20870.0, 20874.0, 20885.0, 20876.0, 20885.0, 20906.0, 20881.0, 20892.0, 20880.0, 20882.0, 20859.0, 20853.0, 20863.0, 20864.0, 20878.0, 20869.0, 20856.0, 20864.0, 20871.0, 20879.0, 20876.0, 20877.0, 20880.0, 20875.0, 20854.0, 20841.0, 20840.0, 20853.0, 20847.0, 20853.0, 20841.0, 20846.0, 20850.0, 20845.0, 20871.0, 20856.0, 20862.0, 20862.0, 20870.0, 20849.0]
    },
    "slices": {}
  }
}