{
  "AcquisitionMatrixPE": 104,
  "AcquisitionNumber": 1,
  "AcquisitionTime": "09:31:58.362500",
  "BandwidthPerPixelPhaseEncode": 17.17,
  "BaseResolution": 104,
  "BodyPartExamined": "BRAIN",
  "CoilString": "HC1-7;NC1_2",
  "ConsistencyInfo": "N4_VE11C_LATEST_20160120",
  "ConversionSoftware": "dcm2niix",
  "ConversionSoftwareVersion": "v1.0.20200427",
  "DerivedVendorReportedEchoSpacing": 0.000560011,
  "DeviceSerialNumber": "167006",
  "DwellTime": 2.1e-06,
  "EchoTime": 0.037,
  "EchoTrainLength": 104,
  "EffectiveEchoSpacing": 0.000560011,
  "FlipAngle": 52,
  "ImageComments": "Unaliased_MB4_PE3_LB",
  "ImageOrientationPatientDICOM": [0.998234, -0.00679046, -0.0590197, -0.00696905, 0.973203, -0.229843],
  "ImageType": [
    "ORIGINAL",
    "PRIMARY",
    "M",
    "MB",
    "ND",
    "MOSAIC"
],
  "ImagingFrequency": 123.259,
  "InPlanePhaseEncodingDirectionDICOM": "COL",
  "InstitutionAddress": "Chemin_Queen-Mary_4565_Montreal_District_CA_H3W_1W5",
  "InstitutionName": "IUGM",
  "InstitutionalDepartmentName": "Department",
  "MRAcquisitionType": "2D",
  "MagneticFieldStrength": 3,
  "Manufacturer": "Siemens",
  "ManufacturersModelName": "Prisma_fit",
  "Modality": "MR",
  "MultibandAccelerationFactor": 4,
  "PartialFourier": 1,
  "PatientPosition": "HFS",
  "PercentPhaseFOV": 100,
  "PercentSampling": 100,
  "PhaseEncodingDirection": "j",
  "PhaseEncodingSteps": 104,
  "PhaseResolution": 1,
  "PixelBandwidth": 2290,
  "ProcedureStepDescription": "hcptrt_generic",
  "ProtocolName": "func_task-social_run-1",
  "PulseSequenceDetails": "%CustomerSeq%_cmrr_mbep2d_bold",
  "ReceiveCoilActiveElements": "HC1-7;NC1,2",
  "ReceiveCoilName": "HeadNeck_64",
  "ReconMatrixPE": 104,
  "RepetitionTime": 1.49,
  "SAR": 0.0275773,
  "ScanOptions": "FS",
  "ScanningSequence": "EP",
  "SequenceName": "epfid2d1_104",
  "SequenceVariant": "SK_SS",
  "SeriesDescription": "func_task-social_run-1",
  "SeriesNumber": 13,
  "ShimSetting": [599, -7249, -8850, 591, -41, -295, -19, 59],
  "SliceThickness": 2,
  "SliceTiming": [0, 0.785, 0.0975, 0.8825, 0.195, 0.98, 0.295, 1.0775, 0.3925, 1.175, 0.49, 1.275, 0.5875, 1.3725, 0.685, 0, 0.785, 0.0975, 0.8825, 0.195, 0.98, 0.295, 1.0775, 0.3925, 1.175, 0.49, 1.275, 0.5875, 1.3725, 0.685, 0, 0.785, 0.0975, 0.8825, 0.195, 0.98, 0.295, 1.0775, 0.3925, 1.175, 0.49, 1.275, 0.5875, 1.3725, 0.685, 0, 0.785, 0.0975, 0.8825, 0.195, 0.98, 0.295, 1.0775, 0.3925, 1.175, 0.49, 1.275, 0.5875, 1.3725, 0.685],
  "SoftwareVersions": "syngo_MR_E11",
  "SpacingBetweenSlices": 2,
  "StationName": "MRC35049",
  "TaskName": "social",
  "TotalReadoutTime": 0.0576811,
  "TxRefAmp": 215.491,
  "WipMemBlock": "860b1af7-910a-4f3c-863e-9773d70f0d21||Sequence: R016 ve11c/master r/e634e98; Dec 19 2017 11:00:25 by eja",
  "dcmmeta_affine": [
    [-1.9964674711227417, -0.013938107527792454, -0.1179976612329483, 106.94478607177734],
    [0.013580920174717903, 1.9464056491851807, -0.4596962034702301, -73.65485382080078],
    [-0.11803930252790451, 0.4596855044364929, 1.9428731203079224, -52.00031280517578],
    [0.0, 0.0, 0.0, 1.0]
],
  "dcmmeta_reorient_transform": [
    [0.0, -1.0, 0.0, 103.0],
    [1.0, 0.0, 0.0, 0.0],
    [0.0, 0.0, 1.0, 0.0],
    [0.0, 0.0, 0.0, 1.0]
],
  "dcmmeta_shape": [104, 104, 60, 139],
  "dcmmeta_slice_dim": 2,
  "dcmmeta_version": 0.6,
  "global": {
    "const": {
      "AcquisitionMatrix": [104, 0, 0, 104],
      "AngioFlag": "N",
      "BitsAllocated": 16,
      "BitsStored": 16,
      "BodyPartExamined": "BRAIN",
      "Columns": 832,
      "EchoNumbers": 1,
      "EchoTime": 37.0,
      "EchoTrainLength": 104,
      "FlipAngle": 52.0,
      "HighBit": 15,
      "ImageOrientationPatient": [0.99823372531837, -0.0067904599356, -0.0590196517346, -0.0069690535481, 0.97320282691566, -0.2298427505405],
      "ImagePositionPatient": [-827.1498383006, -830.37313208253, 205.63912172022],
      "ImageType": [
        "ORIGINAL",
        "PRIMARY",
        "M",
        "MB",
        "ND",
        "MOSAIC"
],
      "ImagedNucleus": "1H",
      "ImagingFrequency": 123.259065,
      "InPlanePhaseEncodingDirection": "COL",
      "MRAcquisitionType": "2D",
      "MagneticFieldStrength": 3.0,
      "Manufacturer": "SIEMENS",
      "ManufacturerModelName": "Prisma_fit",
      "Modality": "MR",
      "NumberOfAverages": 1.0,
      "NumberOfPhaseEncodingSteps": 104,
      "PercentPhaseFieldOfView": 100.0,
      "PercentSampling": 100.0,
      "PerformedProcedureStepStartTime": "085633.797000",
      "PhotometricInterpretation": "MONOCHROME2",
      "PixelBandwidth": 2290.0,
      "PixelRepresentation": 0,
      "PixelSpacing": [2.0, 2.0],
      "ProtocolName": "func_task-social_run-1",
      "RepetitionTime": 1490.0,
      "Rows": 832,
      "SAR": 0.02757727702666,
      "SamplesPerPixel": 1,
      "ScanOptions": "FS",
      "ScanningSequence": "EP",
      "SequenceName": "epfid2d1_104",
      "SequenceVariant": [
        "SK",
        "SS"
],
      "SeriesDescription": "func_task-social_run-1",
      "SeriesNumber": 13,
      "SeriesTime": "093321.968000",
      "SliceLocation": -39.895195104196,
      "SliceThickness": 2.0,
      "SmallestImagePixelValue": 0,
      "SoftwareVersions": "syngo MR E11",
      "SpacingBetweenSlices": 2.0000000443886,
      "SpecificCharacterSet": "ISO_IR 100",
      "StudyID": "1",
      "StudyTime": "085633.694000",
      "TransmitCoilName": "Body",
      "VariableFlipAngleFlag": "N",
      "WindowCenterWidthExplanation": "Algo1",
      "dBdt": 0.0},
    "slices": {}
  },
  "time": {
    "samples": {
      "AcquisitionNumber": [1, 2, 3, 4, 5, 6, 7, 8, 9, 10, 11, 12, 13, 14, 15, 16, 17, 18, 19, 20, 21, 22, 23, 24, 25, 26, 27, 28, 29, 30, 31, 32, 33, 34, 35, 36, 37, 38, 39, 40, 41, 42, 43, 44, 45, 46, 47, 48, 49, 50, 51, 52, 53, 54, 55, 56, 57, 58, 59, 60, 61, 62, 63, 64, 65, 66, 67, 68, 69, 70, 71, 72, 73, 74, 75, 76, 77, 78, 79, 80, 81, 82, 83, 84, 85, 86, 87, 88, 89, 90, 91, 92, 93, 94, 95, 96, 97, 98, 99, 100, 101, 102, 103, 104, 105, 106, 107, 108, 109, 110, 111, 112, 113, 114, 115, 116, 117, 118, 119, 120, 121, 122, 123, 124, 125, 126, 127, 128, 129, 130, 131, 132, 133, 134, 135, 136, 137, 138, 139],
      "AcquisitionTime": ["093158.362500", "093159.852500", "093201.342500", "093202.832500", "093204.322500", "093205.812500", "093207.302500", "093208.792500", "093210.282500", "093211.772500", "093213.262500", "093214.752500", "093216.242500", "093217.732500", "093219.222500", "093220.712500", "093222.202500", "093223.692500", "093225.182500", "093226.672500", "093228.162500", "093229.652500", "093231.142500", "093232.632500", "093234.122500", "093235.612500", "093237.102500", "093238.592500", "093240.082500", "093241.572500", "093243.062500", "093244.552500", "093246.042500", "093247.532500", "093249.022500", "093250.512500", "093252.002500", "093253.492500", "093254.982500", "093256.472500", "093257.962500", "093259.452500", "093300.942500", "093302.432500", "093303.922500", "093305.412500", "093306.902500", "093308.392500", "093309.882500", "093311.372500", "093312.862500", "093314.352500", "093315.842500", "093317.332500", "093318.822500", "093320.312500", "093321.802500", "093323.292500", "093324.782500", "093326.272500", "093327.762500", "093329.252500", "093330.742500", "093332.232500", "093333.722500", "093335.212500", "093336.702500", "093338.192500", "093339.682500", "093341.172500", "093342.662500", "093344.152500", "093345.642500", "093347.132500", "093348.622500", "093350.112500", "093351.602500", "093353.092500", "093354.582500", "093356.072500", "093357.562500", "093359.052500", "093400.542500", "093402.032500", "093403.522500", "093405.012500", "093406.502500", "093407.992500", "093409.482500", "093410.972500", "093412.462500", "093413.952500", "093415.442500", "093416.932500", "093418.422500", "093419.912500", "093421.402500", "093422.892500", "093424.382500", "093425.872500", "093427.362500", "093428.852500", "093430.342500", "093431.832500", "093433.322500", "093434.812500", "093436.302500", "093437.792500", "093439.282500", "093440.772500", "093442.262500", "093443.752500", "093445.242500", "093446.732500", "093448.222500", "093449.712500", "093451.202500", "093452.692500", "093454.182500", "093455.672500", "093457.162500", "093458.652500", "093500.142500", "093501.632500", "093503.122500", "093504.612500", "093506.102500", "093507.592500", "093509.082500", "093510.572500", "093512.062500", "093513.552500", "093515.042500", "093516.532500", "093518.022500", "093519.512500", "093521.002500", "093522.492500", "093523.982500"],
      "ContentTime": ["093321.970000", "093321.973000", "093321.978000", "093321.981000", "093321.984000", "093321.987000", "093321.989000", "093321.992000", "093321.995000", "093321.998000", "093322.002000", "093322.005000", "093322.007000", "093322.010000", "093322.013000", "093322.016000", "093322.019000", "093322.022000", "093322.024000", "093322.027000", "093322.030000", "093322.033000", "093322.036000", "093322.039000", "093322.041000", "093322.044000", "093322.047000", "093322.050000", "093341.936000", "093341.945000", "093341.948000", "093341.951000", "093341.954000", "093341.957000", "093341.960000", "093341.962000", "093341.965000", "093341.968000", "093341.971000", "093341.974000", "093341.977000", "093341.979000", "093341.982000", "093341.985000", "093341.988000", "093341.991000", "093341.994000", "093341.996000", "093401.936000", "093401.939000", "093401.941000", "093401.944000", "093401.947000", "093401.950000", "093401.953000", "093401.956000", "093401.959000", "093401.962000", "093401.964000", "093401.967000", "093401.970000", "093401.973000", "093401.976000", "093401.978000", "093401.985000", "093401.988000", "093401.991000", "093401.994000", "093421.937000", "093421.940000", "093421.942000", "093421.945000", "093421.948000", "093421.951000", "093421.954000", "093421.957000", "093421.960000", "093421.963000", "093421.965000", "093421.968000", "093421.971000", "093421.979000", "093421.982000", "093421.985000", "093421.988000", "093421.991000", "093421.993000", "093421.996000", "093441.937000", "093441.940000", "093441.943000", "093441.945000", "093441.948000", "093441.951000", "093441.954000", "093441.957000", "093441.960000", "093441.963000", "093441.965000", "093441.968000", "093441.971000", "093441.974000", "093441.977000", "093441.980000", "093441.983000", "093441.985000", "093441.988000", "093441.991000", "093521.937000", "093521.940000", "093521.943000", "093521.945000", "093521.948000", "093521.951000", "093521.954000", "093521.957000", "093521.960000", "093521.963000", "093521.966000", "093521.981000", "093521.984000", "093521.987000", "093521.989000", "093521.992000", "093521.995000", "093521.998000", "093522.002000", "093522.005000", "093522.008000", "093522.027000", "093522.030000", "093522.033000", "093522.036000", "093522.039000", "093522.042000", "093522.044000", "093526.344000", "093526.347000", "093526.350000"],
      "InstanceCreationTime": ["093321.970000", "093321.973000", "093321.978000", "093321.981000", "093321.984000", "093321.987000", "093321.989000", "093321.992000", "093321.995000", "093321.998000", "093322.002000", "093322.005000", "093322.007000", "093322.010000", "093322.013000", "093322.016000", "093322.019000", "093322.022000", "093322.024000", "093322.027000", "093322.030000", "093322.033000", "093322.036000", "093322.039000", "093322.041000", "093322.044000", "093322.047000", "093322.050000", "093341.936000", "093341.945000", "093341.948000", "093341.951000", "093341.954000", "093341.957000", "093341.960000", "093341.962000", "093341.965000", "093341.968000", "093341.971000", "093341.974000", "093341.977000", "093341.979000", "093341.982000", "093341.985000", "093341.988000", "093341.991000", "093341.994000", "093341.996000", "093401.936000", "093401.939000", "093401.941000", "093401.944000", "093401.947000", "093401.950000", "093401.953000", "093401.956000", "093401.959000", "093401.962000", "093401.964000", "093401.967000", "093401.970000", "093401.973000", "093401.976000", "093401.978000", "093401.985000", "093401.988000", "093401.991000", "093401.994000", "093421.937000", "093421.940000", "093421.942000", "093421.945000", "093421.948000", "093421.951000", "093421.954000", "093421.957000", "093421.960000", "093421.963000", "093421.965000", "093421.968000", "093421.971000", "093421.979000", "093421.982000", "093421.985000", "093421.988000", "093421.991000", "093421.993000", "093421.996000", "093441.937000", "093441.940000", "093441.943000", "093441.945000", "093441.948000", "093441.951000", "093441.954000", "093441.957000", "093441.960000", "093441.963000", "093441.965000", "093441.968000", "093441.971000", "093441.974000", "093441.977000", "093441.980000", "093441.983000", "093441.985000", "093441.988000", "093441.991000", "093521.937000", "093521.940000", "093521.943000", "093521.945000", "093521.948000", "093521.951000", "093521.954000", "093521.957000", "093521.960000", "093521.963000", "093521.966000", "093521.981000", "093521.984000", "093521.987000", "093521.989000", "093521.992000", "093521.995000", "093521.998000", "093522.002000", "093522.005000", "093522.008000", "093522.027000", "093522.030000", "093522.033000", "093522.036000", "093522.039000", "093522.042000", "093522.044000", "093526.344000", "093526.347000", "093526.350000"],
      "InstanceNumber": [1, 2, 3, 4, 5, 6, 7, 8, 9, 10, 11, 12, 13, 14, 15, 16, 17, 18, 19, 20, 21, 22, 23, 24, 25, 26, 27, 28, 29, 30, 31, 32, 33, 34, 35, 36, 37, 38, 39, 40, 41, 42, 43, 44, 45, 46, 47, 48, 49, 50, 51, 52, 53, 54, 55, 56, 57, 58, 59, 60, 61, 62, 63, 64, 65, 66, 67, 68, 69, 70, 71, 72, 73, 74, 75, 76, 77, 78, 79, 80, 81, 82, 83, 84, 85, 86, 87, 88, 89, 90, 91, 92, 93, 94, 95, 96, 97, 98, 99, 100, 101, 102, 103, 104, 105, 106, 107, 108, 109, 110, 111, 112, 113, 114, 115, 116, 117, 118, 119, 120, 121, 122, 123, 124, 125, 126, 127, 128, 129, 130, 131, 132, 133, 134, 135, 136, 137, 138, 139],
      "LargestImagePixelValue": [43201, 42305, 41135, 40866, 40245, 39772, 40982, 40707, 40944, 40297, 40365, 40617, 40079, 40758, 40187, 40012, 40417, 40405, 40586, 40499, 39685, 39874, 40268, 40288, 40681, 40803, 40525, 40269, 40204, 40168, 40650, 41509, 41095, 41714, 41060, 39687, 40207, 40052, 39762, 40324, 40182, 40314, 40317, 39884, 40448, 40641, 40438, 41240, 40807, 41143, 40207, 40708, 40493, 40921, 41001, 40612, 40251, 39950, 40708, 40999, 40883, 41580, 41649, 40846, 40824, 40897, 41440, 40778, 41076, 40616, 40701, 41490, 40648, 40447, 40714, 40439, 40752, 40477, 40797, 40395, 40782, 40740, 40325, 41097, 41128, 41219, 41659, 41553, 41167, 40714, 40941, 41738, 40566, 41299, 41207, 41029, 40791, 40471, 40016, 40548, 40329, 40684, 39928, 40342, 40376, 41150, 40979, 41014, 40853, 41015, 41202, 40224, 40085, 40066, 39983, 40857, 40722, 41395, 40994, 40906, 40568, 39728, 40573, 40593, 40243, 40438, 40247, 41067, 40445, 41343, 40966, 41081, 41108, 40995, 41121, 40649, 40833, 40324, 40816],
      "WindowCenter": [9897.0, 9848.0, 9813.0, 9787.0, 9776.0, 9769.0, 9796.0, 9799.0, 9814.0, 9818.0, 9820.0, 9830.0, 9830.0, 9836.0, 9831.0, 9823.0, 9836.0, 9830.0, 9829.0, 9834.0, 9823.0, 9837.0, 9844.0, 9830.0, 9821.0, 9816.0, 9809.0, 9803.0, 9809.0, 9816.0, 9817.0, 9832.0, 9826.0, 9839.0, 9833.0, 9815.0, 9827.0, 9828.0, 9824.0, 9826.0, 9819.0, 9819.0, 9827.0, 9822.0, 9827.0, 9825.0, 9817.0, 9829.0, 9826.0, 9833.0, 9814.0, 9819.0, 9811.0, 9808.0, 9809.0, 9811.0, 9817.0, 9811.0, 9811.0, 9824.0, 9819.0, 9838.0, 9840.0, 9836.0, 9842.0, 9841.0, 9839.0, 9827.0, 9825.0, 9818.0, 9817.0, 9829.0, 9831.0, 9827.0, 9821.0, 9818.0, 9812.0, 9811.0, 9809.0, 9810.0, 9817.0, 9818.0, 9810.0, 9814.0, 9812.0, 9809.0, 9824.0, 9830.0, 9839.0, 9845.0, 9846.0, 9843.0, 9828.0, 9833.0, 9832.0, 9831.0, 9827.0, 9820.0, 9819.0, 9818.0, 9812.0, 9818.0, 9805.0, 9812.0, 9803.0, 9813.0, 9807.0, 9808.0, 9817.0, 9825.0, 9840.0, 9829.0, 9822.0, 9822.0, 9821.0, 9824.0, 9816.0, 9815.0, 9822.0, 9823.0, 9824.0, 9807.0, 9819.0, 9817.0, 9811.0, 9809.0, 9809.0, 9816.0, 9810.0, 9824.0, 9824.0, 9825.0, 9823.0, 9815.0, 9815.0, 9816.0, 9824.0, 9820.0, 9820.0],
      "WindowWidth": [21133.0, 20996.0, 20905.0, 20841.0, 20809.0, 20792.0, 20847.0, 20854.0, 20883.0, 20896.0, 20900.0, 20925.0, 20928.0, 20935.0, 20924.0, 20910.0, 20936.0, 20926.0, 20923.0, 20930.0, 20910.0, 20940.0, 20952.0, 20924.0, 20904.0, 20887.0, 20872.0, 20864.0, 20874.0, 20889.0, 20893.0, 20923.0, 20914.0, 20939.0, 20926.0, 20892.0, 20915.0, 20916.0, 20911.0, 20912.0, 20895.0, 20897.0, 20914.0, 20908.0, 20916.0, 20907.0, 20890.0, 20913.0, 20911.0, 20926.0, 20889.0, 20901.0, 20881.0, 20872.0, 20876.0, 20881.0, 20893.0, 20881.0, 20881.0, 20903.0, 20898.0, 20934.0, 20941.0, 20933.0, 20947.0, 20944.0, 20936.0, 20915.0, 20906.0, 20892.0, 20890.0, 20912.0, 20921.0, 20913.0, 20901.0, 20891.0, 20879.0, 20880.0, 20875.0, 20878.0, 20892.0, 20893.0, 20875.0, 20880.0, 20874.0, 20872.0, 20906.0, 20918.0, 20937.0, 20955.0, 20959.0, 20947.0, 20917.0, 20924.0, 20922.0, 20919.0, 20912.0, 20898.0, 20896.0, 20895.0, 20881.0, 20893.0, 20868.0, 20880.0, 20862.0, 20878.0, 20867.0, 20869.0, 20888.0, 20909.0, 20937.0, 20918.0, 20904.0, 20904.0, 20899.0, 20903.0, 20886.0, 20883.0, 20897.0, 20902.0, 20904.0, 20874.0, 20895.0, 20889.0, 20878.0, 20872.0, 20871.0, 20887.0, 20877.0, 20901.0, 20902.0, 20904.0, 20902.0, 20883.0, 20881.0, 20883.0, 20901.0, 20900.0, 20899.0]
    },
    "slices": {}
  }
}