{
  "AcquisitionMatrixPE": 104,
  "AcquisitionNumber": 1,
  "AcquisitionTime": "09:47:51.440000",
  "BandwidthPerPixelPhaseEncode": 17.17,
  "BaseResolution": 104,
  "BodyPartExamined": "BRAIN",
  "CoilString": "HC1-7;NC1_2",
  "ConsistencyInfo": "N4_VE11C_LATEST_20160120",
  "ConversionSoftware": "dcm2niix",
  "ConversionSoftwareVersion": "v1.0.20200427",
  "DerivedVendorReportedEchoSpacing": 0.000560011,
  "DeviceSerialNumber": "167006",
  "DwellTime": 2.1e-06,
  "EchoTime": 0.037,
  "EchoTrainLength": 104,
  "EffectiveEchoSpacing": 0.000560011,
  "FlipAngle": 52,
  "ImageComments": "Unaliased_MB4_PE3_LB",
  "ImageOrientationPatientDICOM": [0.998234, -0.00679046, -0.0590197, -0.00696905, 0.973203, -0.229843],
  "ImageType": [
    "ORIGINAL",
    "PRIMARY",
    "M",
    "MB",
    "ND",
    "MOSAIC"
],
  "ImagingFrequency": 123.259,
  "InPlanePhaseEncodingDirectionDICOM": "COL",
  "InstitutionAddress": "Chemin_Queen-Mary_4565_Montreal_District_CA_H3W_1W5",
  "InstitutionName": "IUGM",
  "InstitutionalDepartmentName": "Department",
  "MRAcquisitionType": "2D",
  "MagneticFieldStrength": 3,
  "Manufacturer": "Siemens",
  "ManufacturersModelName": "Prisma_fit",
  "Modality": "MR",
  "MultibandAccelerationFactor": 4,
  "PartialFourier": 1,
  "PatientPosition": "HFS",
  "PercentPhaseFOV": 100,
  "PercentSampling": 100,
  "PhaseEncodingDirection": "j",
  "PhaseEncodingSteps": 104,
  "PhaseResolution": 1,
  "PixelBandwidth": 2290,
  "ProcedureStepDescription": "hcptrt_generic",
  "ProtocolName": "func_task-language_run-1",
  "PulseSequenceDetails": "%CustomerSeq%_cmrr_mbep2d_bold",
  "ReceiveCoilActiveElements": "HC1-7;NC1,2",
  "ReceiveCoilName": "HeadNeck_64",
  "ReconMatrixPE": 104,
  "RepetitionTime": 1.49,
  "SAR": 0.027624,
  "ScanOptions": "FS",
  "ScanningSequence": "EP",
  "SequenceName": "epfid2d1_104",
  "SequenceVariant": "SK_SS",
  "SeriesDescription": "func_task-language_run-1",
  "SeriesNumber": 21,
  "ShimSetting": [599, -7249, -8850, 591, -41, -295, -19, 59],
  "SliceThickness": 2,
  "SliceTiming": [0, 0.7825, 0.0975, 0.8825, 0.195, 0.98, 0.2925, 1.0775, 0.3925, 1.175, 0.49, 1.2725, 0.5875, 1.3725, 0.685, 0, 0.7825, 0.0975, 0.8825, 0.195, 0.98, 0.2925, 1.0775, 0.3925, 1.175, 0.49, 1.2725, 0.5875, 1.3725, 0.685, 0, 0.7825, 0.0975, 0.8825, 0.195, 0.98, 0.2925, 1.0775, 0.3925, 1.175, 0.49, 1.2725, 0.5875, 1.3725, 0.685, 0, 0.7825, 0.0975, 0.8825, 0.195, 0.98, 0.2925, 1.0775, 0.3925, 1.175, 0.49, 1.2725, 0.5875, 1.3725, 0.685],
  "SoftwareVersions": "syngo_MR_E11",
  "SpacingBetweenSlices": 2,
  "StationName": "MRC35049",
  "TaskName": "language",
  "TotalReadoutTime": 0.0576811,
  "TxRefAmp": 215.491,
  "WipMemBlock": "316efbb1-b4a7-45aa-923b-4a75c7521568||Sequence: R016 ve11c/master r/e634e98; Dec 19 2017 11:00:25 by eja",
  "dcmmeta_affine": [
    [-1.9964674711227417, -0.013938107527792454, -0.1179976612329483, 106.94478607177734],
    [0.013580920174717903, 1.9464056491851807, -0.4596962034702301, -73.65485382080078],
    [-0.11803930252790451, 0.4596855044364929, 1.9428731203079224, -52.00031280517578],
    [0.0, 0.0, 0.0, 1.0]
],
  "dcmmeta_reorient_transform": [
    [0.0, -1.0, 0.0, 103.0],
    [1.0, 0.0, 0.0, 0.0],
    [0.0, 0.0, 1.0, 0.0],
    [0.0, 0.0, 0.0, 1.0]
],
  "dcmmeta_shape": [104, 104, 60, 159],
  "dcmmeta_slice_dim": 2,
  "dcmmeta_version": 0.6,
  "global": {
    "const": {
      "AcquisitionMatrix": [104, 0, 0, 104],
      "AngioFlag": "N",
      "BitsAllocated": 16,
      "BitsStored": 16,
      "BodyPartExamined": "BRAIN",
      "Columns": 832,
      "EchoNumbers": 1,
      "EchoTime": 37.0,
      "EchoTrainLength": 104,
      "FlipAngle": 52.0,
      "HighBit": 15,
      "ImageOrientationPatient": [0.99823372531837, -0.0067904599356, -0.0590196517346, -0.0069690535481, 0.97320282691566, -0.2298427505405],
      "ImagePositionPatient": [-827.1498383006, -830.37313208253, 205.63912172022],
      "ImageType": [
        "ORIGINAL",
        "PRIMARY",
        "M",
        "MB",
        "ND",
        "MOSAIC"
],
      "ImagedNucleus": "1H",
      "ImagingFrequency": 123.259068,
      "InPlanePhaseEncodingDirection": "COL",
      "MRAcquisitionType": "2D",
      "MagneticFieldStrength": 3.0,
      "Manufacturer": "SIEMENS",
      "ManufacturerModelName": "Prisma_fit",
      "Modality": "MR",
      "NumberOfAverages": 1.0,
      "NumberOfPhaseEncodingSteps": 104,
      "PercentPhaseFieldOfView": 100.0,
      "PercentSampling": 100.0,
      "PerformedProcedureStepStartTime": "085633.797000",
      "PhotometricInterpretation": "MONOCHROME2",
      "PixelBandwidth": 2290.0,
      "PixelRepresentation": 0,
      "PixelSpacing": [2.0, 2.0],
      "ProtocolName": "func_task-language_run-1",
      "RepetitionTime": 1490.0,
      "Rows": 832,
      "SAR": 0.02762403626853,
      "SamplesPerPixel": 1,
      "ScanOptions": "FS",
      "ScanningSequence": "EP",
      "SequenceName": "epfid2d1_104",
      "SequenceVariant": [
        "SK",
        "SS"
],
      "SeriesDescription": "func_task-language_run-1",
      "SeriesNumber": 21,
      "SeriesTime": "094903.059000",
      "SliceLocation": -39.895195104196,
      "SliceThickness": 2.0,
      "SmallestImagePixelValue": 0,
      "SoftwareVersions": "syngo MR E11",
      "SpacingBetweenSlices": 2.0000000443886,
      "SpecificCharacterSet": "ISO_IR 100",
      "StudyID": "1",
      "StudyTime": "085633.694000",
      "TransmitCoilName": "Body",
      "VariableFlipAngleFlag": "N",
      "WindowCenterWidthExplanation": "Algo1",
      "dBdt": 0.0},
    "slices": {}
  },
  "time": {
    "samples": {
      "AcquisitionNumber": [1, 2, 3, 4, 5, 6, 7, 8, 9, 10, 11, 12, 13, 14, 15, 16, 17, 18, 19, 20, 21, 22, 23, 24, 25, 26, 27, 28, 29, 30, 31, 32, 33, 34, 35, 36, 37, 38, 39, 40, 41, 42, 43, 44, 45, 46, 47, 48, 49, 50, 51, 52, 53, 54, 55, 56, 57, 58, 59, 60, 61, 62, 63, 64, 65, 66, 67, 68, 69, 70, 71, 72, 73, 74, 75, 76, 77, 78, 79, 80, 81, 82, 83, 84, 85, 86, 87, 88, 89, 90, 91, 92, 93, 94, 95, 96, 97, 98, 99, 100, 101, 102, 103, 104, 105, 106, 107, 108, 109, 110, 111, 112, 113, 114, 115, 116, 117, 118, 119, 120, 121, 122, 123, 124, 125, 126, 127, 128, 129, 130, 131, 132, 133, 134, 135, 136, 137, 138, 139, 140, 141, 142, 143, 144, 145, 146, 147, 148, 149, 150, 151, 152, 153, 154, 155, 156, 157, 158, 159],
      "AcquisitionTime": ["094751.440000", "094752.930000", "094754.420000", "094755.910000", "094757.400000", "094758.890000", "094800.380000", "094801.870000", "094803.360000", "094804.850000", "094806.340000", "094807.830000", "094809.320000", "094810.810000", "094812.300000", "094813.790000", "094815.280000", "094816.770000", "094818.260000", "094819.750000", "094821.240000", "094822.730000", "094824.220000", "094825.710000", "094827.200000", "094828.690000", "094830.180000", "094831.670000", "094833.160000", "094834.650000", "094836.140000", "094837.630000", "094839.120000", "094840.610000", "094842.100000", "094843.590000", "094845.080000", "094846.570000", "094848.060000", "094849.550000", "094851.040000", "094852.530000", "094854.020000", "094855.510000", "094857.000000", "094858.490000", "094859.980000", "094901.470000", "094902.960000", "094904.450000", "094905.940000", "094907.430000", "094908.920000", "094910.410000", "094911.900000", "094913.390000", "094914.880000", "094916.370000", "094917.860000", "094919.350000", "094920.840000", "094922.330000", "094923.820000", "094925.310000", "094926.800000", "094928.290000", "094929.780000", "094931.270000", "094932.760000", "094934.250000", "094935.740000", "094937.230000", "094938.720000", "094940.210000", "094941.700000", "094943.190000", "094944.680000", "094946.170000", "094947.660000", "094949.150000", "094950.640000", "094952.130000", "094953.620000", "094955.110000", "094956.600000", "094958.090000", "094959.580000", "095001.070000", "095002.560000", "095004.050000", "095005.540000", "095007.030000", "095008.520000", "095010.010000", "095011.500000", "095012.990000", "095014.480000", "095015.970000", "095017.460000", "095018.950000", "095020.440000", "095021.930000", "095023.420000", "095024.910000", "095026.400000", "095027.890000", "095029.380000", "095030.870000", "095032.360000", "095033.850000", "095035.340000", "095036.830000", "095038.320000", "095039.810000", "095041.300000", "095042.790000", "095044.280000", "095045.770000", "095047.260000", "095048.750000", "095050.240000", "095051.730000", "095053.220000", "095054.710000", "095056.200000", "095057.690000", "095059.180000", "095100.670000", "095102.160000", "095103.650000", "095105.140000", "095106.630000", "095108.120000", "095109.610000", "095111.100000", "095112.590000", "095114.080000", "095115.570000", "095117.060000", "095118.550000", "095120.040000", "095121.530000", "095123.020000", "095124.510000", "095126.000000", "095127.490000", "095128.980000", "095130.470000", "095131.960000", "095133.450000", "095134.940000", "095136.430000", "095137.920000", "095139.410000", "095140.900000", "095142.390000", "095143.880000", "095145.370000", "095146.860000"],
      "ContentTime": ["094903.063000", "094903.067000", "094903.070000", "094903.073000", "094903.096000", "094903.098000", "094903.107000", "094903.109000", "094903.112000", "094903.115000", "094903.118000", "094903.121000", "094903.130000", "094903.133000", "094903.136000", "094903.138000", "094903.141000", "094903.144000", "094923.025000", "094923.028000", "094923.031000", "094923.034000", "094923.036000", "094923.039000", "094923.042000", "094923.046000", "094923.049000", "094923.053000", "094923.055000", "094923.058000", "094923.061000", "094923.064000", "094923.067000", "094923.070000", "094923.073000", "094923.075000", "094923.078000", "094923.081000", "094923.100000", "094943.025000", "094943.028000", "094943.031000", "094943.033000", "094943.036000", "094943.039000", "094943.042000", "094943.045000", "094943.048000", "094943.050000", "094943.053000", "094943.062000", "094943.065000", "094943.067000", "094943.070000", "094943.073000", "094943.076000", "094943.079000", "094943.082000", "094943.084000", "095003.025000", "095003.028000", "095003.031000", "095003.033000", "095003.036000", "095003.039000", "095003.042000", "095003.045000", "095003.048000", "095003.051000", "095003.054000", "095003.057000", "095003.059000", "095003.062000", "095003.065000", "095003.068000", "095003.071000", "095003.074000", "095003.077000", "095003.079000", "095023.026000", "095023.029000", "095023.032000", "095023.034000", "095023.037000", "095023.040000", "095023.043000", "095023.046000", "095023.049000", "095023.051000", "095023.054000", "095023.057000", "095023.060000", "095023.063000", "095023.066000", "095023.069000", "095023.072000", "095023.074000", "095023.077000", "095023.080000", "095103.025000", "095103.028000", "095103.031000", "095103.033000", "095103.036000", "095103.039000", "095103.042000", "095103.045000", "095103.048000", "095103.051000", "095103.053000", "095103.056000", "095103.059000", "095103.062000", "095103.065000", "095103.068000", "095103.071000", "095103.074000", "095103.077000", "095103.080000", "095103.083000", "095103.085000", "095103.088000", "095103.091000", "095103.094000", "095103.097000", "095103.100000", "095103.102000", "095103.105000", "095143.025000", "095143.028000", "095143.031000", "095143.034000", "095143.036000", "095143.039000", "095143.042000", "095143.045000", "095143.048000", "095143.051000", "095143.053000", "095143.056000", "095143.059000", "095143.062000", "095143.065000", "095143.068000", "095143.071000", "095143.073000", "095143.076000", "095143.079000", "095143.082000", "095143.085000", "095143.088000", "095143.091000", "095143.093000", "095143.096000", "095149.259000", "095149.262000", "095149.265000", "095149.268000", "095149.271000"],
      "InstanceCreationTime": ["094903.063000", "094903.067000", "094903.070000", "094903.073000", "094903.096000", "094903.098000", "094903.107000", "094903.109000", "094903.112000", "094903.115000", "094903.118000", "094903.121000", "094903.130000", "094903.133000", "094903.136000", "094903.138000", "094903.141000", "094903.144000", "094923.025000", "094923.028000", "094923.031000", "094923.034000", "094923.036000", "094923.039000", "094923.042000", "094923.046000", "094923.049000", "094923.053000", "094923.055000", "094923.058000", "094923.061000", "094923.064000", "094923.067000", "094923.070000", "094923.073000", "094923.075000", "094923.078000", "094923.081000", "094923.100000", "094943.025000", "094943.028000", "094943.031000", "094943.033000", "094943.036000", "094943.039000", "094943.042000", "094943.045000", "094943.048000", "094943.050000", "094943.053000", "094943.062000", "094943.065000", "094943.067000", "094943.070000", "094943.073000", "094943.076000", "094943.079000", "094943.082000", "094943.084000", "095003.025000", "095003.028000", "095003.031000", "095003.033000", "095003.036000", "095003.039000", "095003.042000", "095003.045000", "095003.048000", "095003.051000", "095003.054000", "095003.057000", "095003.059000", "095003.062000", "095003.065000", "095003.068000", "095003.071000", "095003.074000", "095003.077000", "095003.079000", "095023.026000", "095023.029000", "095023.032000", "095023.034000", "095023.037000", "095023.040000", "095023.043000", "095023.046000", "095023.049000", "095023.051000", "095023.054000", "095023.057000", "095023.060000", "095023.063000", "095023.066000", "095023.069000", "095023.072000", "095023.074000", "095023.077000", "095023.080000", "095103.025000", "095103.028000", "095103.031000", "095103.033000", "095103.036000", "095103.039000", "095103.042000", "095103.045000", "095103.048000", "095103.051000", "095103.053000", "095103.056000", "095103.059000", "095103.062000", "095103.065000", "095103.068000", "095103.071000", "095103.074000", "095103.077000", "095103.080000", "095103.083000", "095103.085000", "095103.088000", "095103.091000", "095103.094000", "095103.097000", "095103.100000", "095103.102000", "095103.105000", "095143.025000", "095143.028000", "095143.031000", "095143.034000", "095143.036000", "095143.039000", "095143.042000", "095143.045000", "095143.048000", "095143.051000", "095143.053000", "095143.056000", "095143.059000", "095143.062000", "095143.065000", "095143.068000", "095143.071000", "095143.073000", "095143.076000", "095143.079000", "095143.082000", "095143.085000", "095143.088000", "095143.091000", "095143.093000", "095143.096000", "095149.259000", "095149.262000", "095149.265000", "095149.268000", "095149.271000"],
      "InstanceNumber": [1, 2, 3, 4, 5, 6, 7, 8, 9, 10, 11, 12, 13, 14, 15, 16, 17, 18, 19, 20, 21, 22, 23, 24, 25, 26, 27, 28, 29, 30, 31, 32, 33, 34, 35, 36, 37, 38, 39, 40, 41, 42, 43, 44, 45, 46, 47, 48, 49, 50, 51, 52, 53, 54, 55, 56, 57, 58, 59, 60, 61, 62, 63, 64, 65, 66, 67, 68, 69, 70, 71, 72, 73, 74, 75, 76, 77, 78, 79, 80, 81, 82, 83, 84, 85, 86, 87, 88, 89, 90, 91, 92, 93, 94, 95, 96, 97, 98, 99, 100, 101, 102, 103, 104, 105, 106, 107, 108, 109, 110, 111, 112, 113, 114, 115, 116, 117, 118, 119, 120, 121, 122, 123, 124, 125, 126, 127, 128, 129, 130, 131, 132, 133, 134, 135, 136, 137, 138, 139, 140, 141, 142, 143, 144, 145, 146, 147, 148, 149, 150, 151, 152, 153, 154, 155, 156, 157, 158, 159],
      "LargestImagePixelValue": [44242, 43375, 42683, 42319, 41694, 42161, 41734, 41880, 41730, 41733, 41930, 41805, 41576, 41733, 41911, 41676, 41952, 41889, 41833, 42087, 41893, 41649, 41899, 41990, 42279, 42211, 41784, 41959, 42232, 42571, 42032, 42205, 42383, 42677, 42372, 42278, 42077, 42136, 42353, 42613, 42591, 42508, 42180, 42413, 42571, 42399, 42429, 42341, 42604, 42423, 42351, 42782, 42822, 42623, 42642, 42473, 42243, 42526, 42685, 43211, 42471, 42435, 42269, 42306, 42476, 42142, 41927, 42278, 42460, 42398, 42585, 42497, 42663, 42817, 42759, 42206, 42335, 42377, 42448, 43003, 42552, 42236, 42738, 42215, 42940, 42837, 42620, 42686, 42458, 42797, 42767, 42763, 42577, 42298, 42625, 42531, 42592, 42507, 42502, 42933, 42643, 42451, 42509, 42395, 42491, 42628, 42310, 42563, 42496, 42707, 42331, 43085, 42930, 43004, 42675, 42791, 43004, 42623, 42673, 42874, 42639, 42883, 42576, 42813, 42683, 42923, 43304, 42289, 42684, 42730, 42539, 42737, 42847, 42341, 42389, 42451, 42667, 42297, 42540, 42497, 42732, 42208, 42123, 42492, 42595, 42599, 42503, 42098, 42332, 42642, 42564, 42392, 42589, 42448, 42462, 43051, 42682, 43213, 43498],
      "WindowCenter": [9918.0, 9888.0, 9870.0, 9882.0, 9882.0, 9894.0, 9879.0, 9878.0, 9877.0, 9880.0, 9878.0, 9866.0, 9870.0, 9869.0, 9874.0, 9874.0, 9871.0, 9877.0, 9867.0, 9868.0, 9858.0, 9865.0, 9872.0, 9865.0, 9870.0, 9867.0, 9865.0, 9864.0, 9863.0, 9861.0, 9860.0, 9861.0, 9855.0, 9860.0, 9852.0, 9859.0, 9853.0, 9852.0, 9858.0, 9860.0, 9860.0, 9866.0, 9860.0, 9861.0, 9861.0, 9854.0, 9859.0, 9851.0, 9858.0, 9859.0, 9859.0, 9860.0, 9858.0, 9858.0, 9859.0, 9859.0, 9858.0, 9850.0, 9850.0, 9855.0, 9859.0, 9866.0, 9860.0, 9860.0, 9866.0, 9861.0, 9863.0, 9861.0, 9852.0, 9843.0, 9842.0, 9850.0, 9858.0, 9858.0, 9865.0, 9861.0, 9863.0, 9862.0, 9853.0, 9851.0, 9851.0, 9845.0, 9855.0, 9853.0, 9852.0, 9850.0, 9850.0, 9850.0, 9842.0, 9849.0, 9849.0, 9849.0, 9851.0, 9852.0, 9853.0, 9851.0, 9851.0, 9851.0, 9851.0, 9856.0, 9856.0, 9858.0, 9857.0, 9855.0, 9862.0, 9857.0, 9846.0, 9852.0, 9861.0, 9861.0, 9854.0, 9861.0, 9854.0, 9862.0, 9852.0, 9851.0, 9850.0, 9850.0, 9852.0, 9865.0, 9859.0, 9860.0, 9853.0, 9867.0, 9860.0, 9866.0, 9864.0, 9853.0, 9852.0, 9858.0, 9854.0, 9864.0, 9859.0, 9852.0, 9844.0, 9851.0, 9851.0, 9849.0, 9849.0, 9847.0, 9853.0, 9850.0, 9843.0, 9844.0, 9841.0, 9847.0, 9841.0, 9843.0, 9857.0, 9859.0, 9858.0, 9852.0, 9851.0, 9853.0, 9855.0, 9867.0, 9862.0, 9867.0, 9859.0],
      "WindowWidth": [21176.0, 21084.0, 21030.0, 21047.0, 21044.0, 21066.0, 21030.0, 21027.0, 21023.0, 21031.0, 21025.0, 21000.0, 21005.0, 21008.0, 21016.0, 21016.0, 21009.0, 21024.0, 21002.0, 21002.0, 20985.0, 20998.0, 21013.0, 20996.0, 21006.0, 21000.0, 20997.0, 20991.0, 20991.0, 20984.0, 20982.0, 20985.0, 20972.0, 20982.0, 20965.0, 20980.0, 20968.0, 20964.0, 20977.0, 20983.0, 20985.0, 20997.0, 20983.0, 20985.0, 20986.0, 20972.0, 20980.0, 20962.0, 20975.0, 20979.0, 20980.0, 20983.0, 20974.0, 20973.0, 20978.0, 20980.0, 20975.0, 20960.0, 20959.0, 20968.0, 20979.0, 20993.0, 20984.0, 20983.0, 20995.0, 20989.0, 20992.0, 20987.0, 20967.0, 20947.0, 20944.0, 20959.0, 20976.0, 20977.0, 20993.0, 20988.0, 20992.0, 20988.0, 20972.0, 20964.0, 20962.0, 20952.0, 20973.0, 20964.0, 20963.0, 20960.0, 20957.0, 20958.0, 20941.0, 20956.0, 20957.0, 20957.0, 20962.0, 20962.0, 20967.0, 20963.0, 20964.0, 20965.0, 20964.0, 20971.0, 20973.0, 20977.0, 20977.0, 20972.0, 20988.0, 20981.0, 20955.0, 20967.0, 20985.0, 20987.0, 20973.0, 20984.0, 20971.0, 20986.0, 20963.0, 20960.0, 20959.0, 20958.0, 20964.0, 20989.0, 20979.0, 20981.0, 20969.0, 20994.0, 20983.0, 20995.0, 20991.0, 20971.0, 20969.0, 20978.0, 20973.0, 20989.0, 20980.0, 20966.0, 20953.0, 20967.0, 20963.0, 20959.0, 20959.0, 20956.0, 20966.0, 20962.0, 20951.0, 20952.0, 20942.0, 20955.0, 20944.0, 20948.0, 20975.0, 20983.0, 20980.0, 20967.0, 20963.0, 20968.0, 20974.0, 21002.0, 20994.0, 20999.0, 20983.0]
    },
    "slices": {}
  }
}