{
  "AcquisitionMatrixPE": 104,
  "AcquisitionNumber": 1,
  "AcquisitionTime": "09:27:22.207500",
  "BandwidthPerPixelPhaseEncode": 17.17,
  "BaseResolution": 104,
  "BodyPartExamined": "BRAIN",
  "CoilString": "HC1-7;NC1_2",
  "ConsistencyInfo": "N4_VE11C_LATEST_20160120",
  "ConversionSoftware": "dcm2niix",
  "ConversionSoftwareVersion": "v1.0.20200427",
  "DerivedVendorReportedEchoSpacing": 0.000560011,
  "DeviceSerialNumber": "167006",
  "DwellTime": 2.1e-06,
  "EchoTime": 0.037,
  "EchoTrainLength": 104,
  "EffectiveEchoSpacing": 0.000560011,
  "FlipAngle": 52,
  "ImageComments": "Unaliased_MB4_PE3_LB",
  "ImageOrientationPatientDICOM": [0.998234, -0.00679046, -0.0590197, -0.00696905, 0.973203, -0.229843],
  "ImageType": [
    "ORIGINAL",
    "PRIMARY",
    "M",
    "MB",
    "ND",
    "MOSAIC"
],
  "ImagingFrequency": 123.259,
  "InPlanePhaseEncodingDirectionDICOM": "COL",
  "InstitutionAddress": "Chemin_Queen-Mary_4565_Montreal_District_CA_H3W_1W5",
  "InstitutionName": "IUGM",
  "InstitutionalDepartmentName": "Department",
  "MRAcquisitionType": "2D",
  "MagneticFieldStrength": 3,
  "Manufacturer": "Siemens",
  "ManufacturersModelName": "Prisma_fit",
  "Modality": "MR",
  "MultibandAccelerationFactor": 4,
  "PartialFourier": 1,
  "PatientPosition": "HFS",
  "PercentPhaseFOV": 100,
  "PercentSampling": 100,
  "PhaseEncodingDirection": "j",
  "PhaseEncodingSteps": 104,
  "PhaseResolution": 1,
  "PixelBandwidth": 2290,
  "ProcedureStepDescription": "hcptrt_generic",
  "ProtocolName": "func_task-motor_run-1",
  "PulseSequenceDetails": "%CustomerSeq%_cmrr_mbep2d_bold",
  "ReceiveCoilActiveElements": "HC1-7;NC1,2",
  "ReceiveCoilName": "HeadNeck_64",
  "ReconMatrixPE": 104,
  "RepetitionTime": 1.49,
  "SAR": 0.0275901,
  "ScanOptions": "FS",
  "ScanningSequence": "EP",
  "SequenceName": "epfid2d1_104",
  "SequenceVariant": "SK_SS",
  "SeriesDescription": "func_task-motor_run-1",
  "SeriesNumber": 11,
  "ShimSetting": [599, -7249, -8850, 591, -41, -295, -19, 59],
  "SliceThickness": 2,
  "SliceTiming": [0, 0.785, 0.0975, 0.8825, 0.195, 0.98, 0.295, 1.0775, 0.3925, 1.175, 0.49, 1.275, 0.5875, 1.3725, 0.685, 0, 0.785, 0.0975, 0.8825, 0.195, 0.98, 0.295, 1.0775, 0.3925, 1.175, 0.49, 1.275, 0.5875, 1.3725, 0.685, 0, 0.785, 0.0975, 0.8825, 0.195, 0.98, 0.295, 1.0775, 0.3925, 1.175, 0.49, 1.275, 0.5875, 1.3725, 0.685, 0, 0.785, 0.0975, 0.8825, 0.195, 0.98, 0.295, 1.0775, 0.3925, 1.175, 0.49, 1.275, 0.5875, 1.3725, 0.685],
  "SoftwareVersions": "syngo_MR_E11",
  "SpacingBetweenSlices": 2,
  "StationName": "MRC35049",
  "TaskName": "motor",
  "TotalReadoutTime": 0.0576811,
  "TxRefAmp": 215.491,
  "WipMemBlock": "6e773540-db3d-461d-acd8-04ef3654d45d||Sequence: R016 ve11c/master r/e634e98; Dec 19 2017 11:00:25 by eja",
  "dcmmeta_affine": [
    [-1.9964674711227417, -0.013938107527792454, -0.1179976612329483, 106.94478607177734],
    [0.013580920174717903, 1.9464056491851807, -0.4596962034702301, -73.65485382080078],
    [-0.11803930252790451, 0.4596855044364929, 1.9428731203079224, -52.00031280517578],
    [0.0, 0.0, 0.0, 1.0]
],
  "dcmmeta_reorient_transform": [
    [0.0, -1.0, 0.0, 103.0],
    [1.0, 0.0, 0.0, 0.0],
    [0.0, 0.0, 1.0, 0.0],
    [0.0, 0.0, 0.0, 1.0]
],
  "dcmmeta_shape": [104, 104, 60, 144],
  "dcmmeta_slice_dim": 2,
  "dcmmeta_version": 0.6,
  "global": {
    "const": {
      "AcquisitionMatrix": [104, 0, 0, 104],
      "AngioFlag": "N",
      "BitsAllocated": 16,
      "BitsStored": 16,
      "BodyPartExamined": "BRAIN",
      "Columns": 832,
      "EchoNumbers": 1,
      "EchoTime": 37.0,
      "EchoTrainLength": 104,
      "FlipAngle": 52.0,
      "HighBit": 15,
      "ImageOrientationPatient": [0.99823372531837, -0.0067904599356, -0.0590196517346, -0.0069690535481, 0.97320282691566, -0.2298427505405],
      "ImagePositionPatient": [-827.1498383006, -830.37313208253, 205.63912172022],
      "ImageType": [
        "ORIGINAL",
        "PRIMARY",
        "M",
        "MB",
        "ND",
        "MOSAIC"
],
      "ImagedNucleus": "1H",
      "ImagingFrequency": 123.259063,
      "InPlanePhaseEncodingDirection": "COL",
      "MRAcquisitionType": "2D",
      "MagneticFieldStrength": 3.0,
      "Manufacturer": "SIEMENS",
      "ManufacturerModelName": "Prisma_fit",
      "Modality": "MR",
      "NumberOfAverages": 1.0,
      "NumberOfPhaseEncodingSteps": 104,
      "PercentPhaseFieldOfView": 100.0,
      "PercentSampling": 100.0,
      "PerformedProcedureStepStartTime": "085633.797000",
      "PhotometricInterpretation": "MONOCHROME2",
      "PixelBandwidth": 2290.0,
      "PixelRepresentation": 0,
      "PixelSpacing": [2.0, 2.0],
      "ProtocolName": "func_task-motor_run-1",
      "RepetitionTime": 1490.0,
      "Rows": 832,
      "SAR": 0.0275901283704,
      "SamplesPerPixel": 1,
      "ScanOptions": "FS",
      "ScanningSequence": "EP",
      "SequenceName": "epfid2d1_104",
      "SequenceVariant": [
        "SK",
        "SS"
],
      "SeriesDescription": "func_task-motor_run-1",
      "SeriesNumber": 11,
      "SeriesTime": "092822.922000",
      "SliceLocation": -39.895195104196,
      "SliceThickness": 2.0,
      "SmallestImagePixelValue": 0,
      "SoftwareVersions": "syngo MR E11",
      "SpacingBetweenSlices": 2.0000000443886,
      "SpecificCharacterSet": "ISO_IR 100",
      "StudyID": "1",
      "StudyTime": "085633.694000",
      "TransmitCoilName": "Body",
      "VariableFlipAngleFlag": "N",
      "WindowCenterWidthExplanation": "Algo1",
      "dBdt": 0.0},
    "slices": {}
  },
  "time": {
    "samples": {
      "AcquisitionNumber": [1, 2, 3, 4, 5, 6, 7, 8, 9, 10, 11, 12, 13, 14, 15, 16, 17, 18, 19, 20, 21, 22, 23, 24, 25, 26, 27, 28, 29, 30, 31, 32, 33, 34, 35, 36, 37, 38, 39, 40, 41, 42, 43, 44, 45, 46, 47, 48, 49, 50, 51, 52, 53, 54, 55, 56, 57, 58, 59, 60, 61, 62, 63, 64, 65, 66, 67, 68, 69, 70, 71, 72, 73, 74, 75, 76, 77, 78, 79, 80, 81, 82, 83, 84, 85, 86, 87, 88, 89, 90, 91, 92, 93, 94, 95, 96, 97, 98, 99, 100, 101, 102, 103, 104, 105, 106, 107, 108, 109, 110, 111, 112, 113, 114, 115, 116, 117, 118, 119, 120, 121, 122, 123, 124, 125, 126, 127, 128, 129, 130, 131, 132, 133, 134, 135, 136, 137, 138, 139, 140, 141, 142, 143, 144],
      "AcquisitionTime": ["092722.207500", "092723.697500", "092725.187500", "092726.677500", "092728.167500", "092729.657500", "092731.147500", "092732.637500", "092734.127500", "092735.617500", "092737.107500", "092738.597500", "092740.087500", "092741.577500", "092743.067500", "092744.557500", "092746.047500", "092747.537500", "092749.027500", "092750.517500", "092752.007500", "092753.497500", "092754.987500", "092756.477500", "092757.967500", "092759.457500", "092800.947500", "092802.437500", "092803.927500", "092805.417500", "092806.907500", "092808.397500", "092809.887500", "092811.377500", "092812.867500", "092814.357500", "092815.847500", "092817.337500", "092818.827500", "092820.317500", "092821.807500", "092823.297500", "092824.787500", "092826.277500", "092827.767500", "092829.257500", "092830.747500", "092832.237500", "092833.727500", "092835.217500", "092836.707500", "092838.197500", "092839.687500", "092841.177500", "092842.667500", "092844.157500", "092845.647500", "092847.137500", "092848.627500", "092850.117500", "092851.607500", "092853.097500", "092854.587500", "092856.077500", "092857.567500", "092859.057500", "092900.547500", "092902.037500", "092903.527500", "092905.017500", "092906.507500", "092907.997500", "092909.487500", "092910.977500", "092912.467500", "092913.957500", "092915.447500", "092916.937500", "092918.427500", "092919.917500", "092921.407500", "092922.897500", "092924.387500", "092925.877500", "092927.367500", "092928.857500", "092930.347500", "092931.837500", "092933.327500", "092934.817500", "092936.307500", "092937.797500", "092939.287500", "092940.777500", "092942.267500", "092943.757500", "092945.247500", "092946.737500", "092948.227500", "092949.717500", "092951.207500", "092952.697500", "092954.187500", "092955.677500", "092957.167500", "092958.657500", "093000.147500", "093001.637500", "093003.127500", "093004.617500", "093006.107500", "093007.597500", "093009.087500", "093010.577500", "093012.067500", "093013.557500", "093015.047500", "093016.537500", "093018.027500", "093019.517500", "093021.007500", "093022.497500", "093023.987500", "093025.477500", "093026.967500", "093028.457500", "093029.947500", "093031.437500", "093032.927500", "093034.417500", "093035.907500", "093037.397500", "093038.887500", "093040.377500", "093041.867500", "093043.357500", "093044.847500", "093046.337500", "093047.827500", "093049.317500", "093050.807500", "093052.297500", "093053.787500", "093055.277500"],
      "ContentTime": ["092822.924000", "092822.928000", "092822.930000", "092822.933000", "092822.936000", "092842.883000", "092842.886000", "092842.889000", "092842.892000", "092842.894000", "092842.897000", "092842.900000", "092842.903000", "092842.906000", "092842.909000", "092842.912000", "092842.914000", "092842.917000", "092842.920000", "092842.923000", "092842.926000", "092842.929000", "092842.932000", "092842.934000", "092842.937000", "092842.940000", "092902.883000", "092902.886000", "092902.889000", "092902.891000", "092902.894000", "092902.897000", "092902.900000", "092902.905000", "092902.908000", "092902.911000", "092902.914000", "092902.917000", "092902.920000", "092902.923000", "092902.925000", "092902.928000", "092902.931000", "092902.934000", "092902.937000", "092902.940000", "092922.883000", "092922.886000", "092922.889000", "092922.891000", "092922.894000", "092922.897000", "092922.900000", "092922.903000", "092922.906000", "092922.908000", "092922.911000", "092922.914000", "092922.917000", "092922.920000", "092922.923000", "092922.925000", "092922.928000", "092922.931000", "092922.934000", "092922.937000", "092942.884000", "092942.887000", "092942.890000", "092942.892000", "092942.895000", "092942.898000", "092942.901000", "092942.904000", "092942.907000", "092942.910000", "092942.912000", "092942.915000", "092942.918000", "092942.921000", "092942.924000", "092942.927000", "092942.930000", "092942.939000", "092942.942000", "092942.945000", "093002.883000", "093002.886000", "093002.889000", "093002.891000", "093002.906000", "093002.908000", "093002.911000", "093002.914000", "093002.917000", "093002.920000", "093002.923000", "093002.925000", "093002.928000", "093002.931000", "093002.934000", "093002.937000", "093002.940000", "093002.943000", "093002.945000", "093002.948000", "093042.883000", "093042.886000", "093042.889000", "093042.892000", "093042.895000", "093042.897000", "093042.900000", "093042.903000", "093042.906000", "093042.909000", "093042.912000", "093042.915000", "093042.918000", "093042.920000", "093042.923000", "093042.926000", "093042.929000", "093042.932000", "093042.935000", "093042.938000", "093042.941000", "093042.944000", "093042.947000", "093042.950000", "093042.953000", "093042.956000", "093042.959000", "093057.898000", "093057.901000", "093057.904000", "093057.907000", "093057.910000", "093057.913000", "093057.916000", "093057.919000", "093057.921000", "093057.925000", "093057.927000"],
      "InstanceCreationTime": ["092822.924000", "092822.928000", "092822.930000", "092822.933000", "092822.936000", "092842.883000", "092842.886000", "092842.889000", "092842.892000", "092842.894000", "092842.897000", "092842.900000", "092842.903000", "092842.906000", "092842.909000", "092842.912000", "092842.914000", "092842.917000", "092842.920000", "092842.923000", "092842.926000", "092842.929000", "092842.932000", "092842.934000", "092842.937000", "092842.940000", "092902.883000", "092902.886000", "092902.889000", "092902.891000", "092902.894000", "092902.897000", "092902.900000", "092902.905000", "092902.908000", "092902.911000", "092902.914000", "092902.917000", "092902.920000", "092902.923000", "092902.925000", "092902.928000", "092902.931000", "092902.934000", "092902.937000", "092902.940000", "092922.883000", "092922.886000", "092922.889000", "092922.891000", "092922.894000", "092922.897000", "092922.900000", "092922.903000", "092922.906000", "092922.908000", "092922.911000", "092922.914000", "092922.917000", "092922.920000", "092922.923000", "092922.925000", "092922.928000", "092922.931000", "092922.934000", "092922.937000", "092942.884000", "092942.887000", "092942.890000", "092942.892000", "092942.895000", "092942.898000", "092942.901000", "092942.904000", "092942.907000", "092942.910000", "092942.912000", "092942.915000", "092942.918000", "092942.921000", "092942.924000", "092942.927000", "092942.930000", "092942.939000", "092942.942000", "092942.945000", "093002.883000", "093002.886000", "093002.889000", "093002.891000", "093002.906000", "093002.908000", "093002.911000", "093002.914000", "093002.917000", "093002.920000", "093002.923000", "093002.925000", "093002.928000", "093002.931000", "093002.934000", "093002.937000", "093002.940000", "093002.943000", "093002.945000", "093002.948000", "093042.883000", "093042.886000", "093042.889000", "093042.892000", "093042.895000", "093042.897000", "093042.900000", "093042.903000", "093042.906000", "093042.909000", "093042.912000", "093042.915000", "093042.918000", "093042.920000", "093042.923000", "093042.926000", "093042.929000", "093042.932000", "093042.935000", "093042.938000", "093042.941000", "093042.944000", "093042.947000", "093042.950000", "093042.953000", "093042.956000", "093042.959000", "093057.898000", "093057.901000", "093057.904000", "093057.907000", "093057.910000", "093057.913000", "093057.916000", "093057.919000", "093057.921000", "093057.925000", "093057.927000"],
      "InstanceNumber": [1, 2, 3, 4, 5, 6, 7, 8, 9, 10, 11, 12, 13, 14, 15, 16, 17, 18, 19, 20, 21, 22, 23, 24, 25, 26, 27, 28, 29, 30, 31, 32, 33, 34, 35, 36, 37, 38, 39, 40, 41, 42, 43, 44, 45, 46, 47, 48, 49, 50, 51, 52, 53, 54, 55, 56, 57, 58, 59, 60, 61, 62, 63, 64, 65, 66, 67, 68, 69, 70, 71, 72, 73, 74, 75, 76, 77, 78, 79, 80, 81, 82, 83, 84, 85, 86, 87, 88, 89, 90, 91, 92, 93, 94, 95, 96, 97, 98, 99, 100, 101, 102, 103, 104, 105, 106, 107, 108, 109, 110, 111, 112, 113, 114, 115, 116, 117, 118, 119, 120, 121, 122, 123, 124, 125, 126, 127, 128, 129, 130, 131, 132, 133, 134, 135, 136, 137, 138, 139, 140, 141, 142, 143, 144],
      "LargestImagePixelValue": [42845, 42007, 41564, 40774, 40694, 40316, 40447, 40431, 40601, 40039, 40418, 40221, 39932, 40339, 40301, 40054, 40058, 40168, 40412, 40134, 40158, 40312, 39687, 40005, 40083, 40255, 39910, 40298, 40409, 40189, 40276, 40339, 39869, 40165, 40045, 40214, 40593, 40882, 39909, 40119, 40299, 39990, 40475, 39947, 40408, 40249, 39812, 39880, 40212, 40113, 40115, 40193, 39928, 39871, 40511, 39881, 39888, 39966, 40031, 40246, 40044, 39905, 39714, 39702, 40051, 39990, 39983, 39903, 39778, 40250, 39767, 40182, 39921, 39799, 39554, 39982, 40329, 40305, 39943, 39572, 39633, 40042, 39907, 40116, 39677, 40268, 40554, 40737, 40796, 40102, 40051, 40276, 40320, 40235, 40064, 41110, 40779, 40537, 41135, 40848, 40435, 40176, 40388, 40198, 40019, 40611, 40378, 40371, 40099, 40515, 40200, 39838, 40028, 40176, 40803, 41317, 41693, 41686, 40422, 40028, 40336, 39997, 40460, 39830, 39920, 40144, 40638, 41253, 41284, 41192, 40640, 40193, 40464, 40591, 41193, 41671, 41964, 41603, 41123, 40761, 39963, 40275, 40669, 40280],
      "WindowCenter": [9899.0, 9868.0, 9861.0, 9838.0, 9829.0, 9819.0, 9819.0, 9825.0, 9847.0, 9854.0, 9861.0, 9853.0, 9831.0, 9827.0, 9832.0, 9828.0, 9833.0, 9835.0, 9844.0, 9845.0, 9843.0, 9843.0, 9828.0, 9827.0, 9828.0, 9841.0, 9836.0, 9835.0, 9842.0, 9842.0, 9844.0, 9843.0, 9843.0, 9844.0, 9838.0, 9842.0, 9835.0, 9842.0, 9845.0, 9862.0, 9861.0, 9856.0, 9854.0, 9839.0, 9844.0, 9845.0, 9840.0, 9837.0, 9844.0, 9837.0, 9836.0, 9836.0, 9827.0, 9820.0, 9833.0, 9828.0, 9837.0, 9828.0, 9836.0, 9843.0, 9844.0, 9844.0, 9838.0, 9838.0, 9836.0, 9829.0, 9828.0, 9818.0, 9819.0, 9832.0, 9829.0, 9835.0, 9828.0, 9828.0, 9827.0, 9827.0, 9841.0, 9845.0, 9848.0, 9848.0, 9848.0, 9846.0, 9840.0, 9835.0, 9823.0, 9834.0, 9841.0, 9844.0, 9845.0, 9846.0, 9845.0, 9835.0, 9836.0, 9841.0, 9836.0, 9843.0, 9835.0, 9834.0, 9833.0, 9841.0, 9841.0, 9835.0, 9827.0, 9833.0, 9827.0, 9841.0, 9835.0, 9836.0, 9836.0, 9842.0, 9842.0, 9830.0, 9836.0, 9835.0, 9840.0, 9846.0, 9845.0, 9848.0, 9834.0, 9836.0, 9835.0, 9829.0, 9828.0, 9820.0, 9828.0, 9828.0, 9841.0, 9855.0, 9856.0, 9851.0, 9849.0, 9836.0, 9842.0, 9843.0, 9850.0, 9849.0, 9856.0, 9865.0, 9851.0, 9852.0, 9848.0, 9854.0, 9853.0, 9838.0],
      "WindowWidth": [21137.0, 21043.0, 21009.0, 20955.0, 20928.0, 20905.0, 20903.0, 20912.0, 20958.0, 20977.0, 20992.0, 20973.0, 20927.0, 20915.0, 20926.0, 20919.0, 20930.0, 20934.0, 20956.0, 20956.0, 20950.0, 20950.0, 20919.0, 20917.0, 20924.0, 20946.0, 20937.0, 20933.0, 20950.0, 20950.0, 20955.0, 20951.0, 20953.0, 20955.0, 20944.0, 20948.0, 20933.0, 20946.0, 20959.0, 20995.0, 20992.0, 20983.0, 20978.0, 20946.0, 20954.0, 20957.0, 20951.0, 20943.0, 20955.0, 20940.0, 20936.0, 20934.0, 20918.0, 20901.0, 20927.0, 20922.0, 20941.0, 20921.0, 20938.0, 20952.0, 20953.0, 20953.0, 20943.0, 20945.0, 20939.0, 20922.0, 20921.0, 20898.0, 20899.0, 20924.0, 20921.0, 20935.0, 20922.0, 20921.0, 20919.0, 20918.0, 20948.0, 20958.0, 20968.0, 20967.0, 20965.0, 20959.0, 20948.0, 20935.0, 20911.0, 20933.0, 20946.0, 20950.0, 20954.0, 20961.0, 20954.0, 20931.0, 20936.0, 20946.0, 20939.0, 20952.0, 20933.0, 20929.0, 20927.0, 20943.0, 20943.0, 20932.0, 20917.0, 20927.0, 20916.0, 20946.0, 20934.0, 20935.0, 20936.0, 20946.0, 20948.0, 20924.0, 20936.0, 20935.0, 20941.0, 20952.0, 20950.0, 20957.0, 20928.0, 20934.0, 20931.0, 20922.0, 20918.0, 20903.0, 20918.0, 20920.0, 20943.0, 20973.0, 20976.0, 20967.0, 20962.0, 20936.0, 20946.0, 20951.0, 20964.0, 20962.0, 20974.0, 20992.0, 20965.0, 20969.0, 20965.0, 20977.0, 20974.0, 20942.0]
    },
    "slices": {}
  }
}