{
  "AcquisitionMatrixPE": 104,
  "AcquisitionNumber": 1,
  "AcquisitionTime": "09:36:38.910000",
  "BandwidthPerPixelPhaseEncode": 17.17,
  "BaseResolution": 104,
  "BodyPartExamined": "BRAIN",
  "CoilString": "HC1-7;NC1_2",
  "ConsistencyInfo": "N4_VE11C_LATEST_20160120",
  "ConversionSoftware": "dcm2niix",
  "ConversionSoftwareVersion": "v1.0.20200427",
  "DerivedVendorReportedEchoSpacing": 0.000560011,
  "DeviceSerialNumber": "167006",
  "DwellTime": 2.1e-06,
  "EchoTime": 0.037,
  "EchoTrainLength": 104,
  "EffectiveEchoSpacing": 0.000560011,
  "FlipAngle": 52,
  "ImageComments": "Unaliased_MB4_PE3_LB",
  "ImageOrientationPatientDICOM": [0.998234, -0.00679046, -0.0590197, -0.00696905, 0.973203, -0.229843],
  "ImageType": [
    "ORIGINAL",
    "PRIMARY",
    "M",
    "MB",
    "ND",
    "MOSAIC"
],
  "ImagingFrequency": 123.259,
  "InPlanePhaseEncodingDirectionDICOM": "COL",
  "InstitutionAddress": "Chemin_Queen-Mary_4565_Montreal_District_CA_H3W_1W5",
  "InstitutionName": "IUGM",
  "InstitutionalDepartmentName": "Department",
  "MRAcquisitionType": "2D",
  "MagneticFieldStrength": 3,
  "Manufacturer": "Siemens",
  "ManufacturersModelName": "Prisma_fit",
  "Modality": "MR",
  "MultibandAccelerationFactor": 4,
  "PartialFourier": 1,
  "PatientPosition": "HFS",
  "PercentPhaseFOV": 100,
  "PercentSampling": 100,
  "PhaseEncodingDirection": "j",
  "PhaseEncodingSteps": 104,
  "PhaseResolution": 1,
  "PixelBandwidth": 2290,
  "ProcedureStepDescription": "hcptrt_generic",
  "ProtocolName": "func_task-gambling_run-1",
  "PulseSequenceDetails": "%CustomerSeq%_cmrr_mbep2d_bold",
  "ReceiveCoilActiveElements": "HC1-7;NC1,2",
  "ReceiveCoilName": "HeadNeck_64",
  "ReconMatrixPE": 104,
  "RepetitionTime": 1.49,
  "SAR": 0.0275487,
  "ScanOptions": "FS",
  "ScanningSequence": "EP",
  "SequenceName": "epfid2d1_104",
  "SequenceVariant": "SK_SS",
  "SeriesDescription": "func_task-gambling_run-1",
  "SeriesNumber": 15,
  "ShimSetting": [599, -7249, -8850, 591, -41, -295, -19, 59],
  "SliceThickness": 2,
  "SliceTiming": [0, 0.7825, 0.0975, 0.8825, 0.195, 0.98, 0.2925, 1.0775, 0.3925, 1.175, 0.49, 1.2725, 0.5875, 1.3725, 0.685, 0, 0.7825, 0.0975, 0.8825, 0.195, 0.98, 0.2925, 1.0775, 0.3925, 1.175, 0.49, 1.2725, 0.5875, 1.3725, 0.685, 0, 0.7825, 0.0975, 0.8825, 0.195, 0.98, 0.2925, 1.0775, 0.3925, 1.175, 0.49, 1.2725, 0.5875, 1.3725, 0.685, 0, 0.7825, 0.0975, 0.8825, 0.195, 0.98, 0.2925, 1.0775, 0.3925, 1.175, 0.49, 1.2725, 0.5875, 1.3725, 0.685],
  "SoftwareVersions": "syngo_MR_E11",
  "SpacingBetweenSlices": 2,
  "StationName": "MRC35049",
  "TaskName": "gambling",
  "TotalReadoutTime": 0.0576811,
  "TxRefAmp": 215.491,
  "WipMemBlock": "b8cbb6ba-4e95-4299-8364-0d9165ceab48||Sequence: R016 ve11c/master r/e634e98; Dec 19 2017 11:00:25 by eja",
  "dcmmeta_affine": [
    [-1.9964674711227417, -0.013938107527792454, -0.1179976612329483, 106.94478607177734],
    [0.013580920174717903, 1.9464056491851807, -0.4596962034702301, -73.65485382080078],
    [-0.11803930252790451, 0.4596855044364929, 1.9428731203079224, -52.00031280517578],
    [0.0, 0.0, 0.0, 1.0]
],
  "dcmmeta_reorient_transform": [
    [0.0, -1.0, 0.0, 103.0],
    [1.0, 0.0, 0.0, 0.0],
    [0.0, 0.0, 1.0, 0.0],
    [0.0, 0.0, 0.0, 1.0]
],
  "dcmmeta_shape": [104, 104, 60, 129],
  "dcmmeta_slice_dim": 2,
  "dcmmeta_version": 0.6,
  "global": {
    "const": {
      "AcquisitionMatrix": [104, 0, 0, 104],
      "AngioFlag": "N",
      "BitsAllocated": 16,
      "BitsStored": 16,
      "BodyPartExamined": "BRAIN",
      "Columns": 832,
      "EchoNumbers": 1,
      "EchoTime": 37.0,
      "EchoTrainLength": 104,
      "FlipAngle": 52.0,
      "HighBit": 15,
      "ImageOrientationPatient": [0.99823372531837, -0.0067904599356, -0.0590196517346, -0.0069690535481, 0.97320282691566, -0.2298427505405],
      "ImagePositionPatient": [-827.1498383006, -830.37313208253, 205.63912172022],
      "ImageType": [
        "ORIGINAL",
        "PRIMARY",
        "M",
        "MB",
        "ND",
        "MOSAIC"
],
      "ImagedNucleus": "1H",
      "ImagingFrequency": 123.259066,
      "InPlanePhaseEncodingDirection": "COL",
      "MRAcquisitionType": "2D",
      "MagneticFieldStrength": 3.0,
      "Manufacturer": "SIEMENS",
      "ManufacturerModelName": "Prisma_fit",
      "Modality": "MR",
      "NumberOfAverages": 1.0,
      "NumberOfPhaseEncodingSteps": 104,
      "PercentPhaseFieldOfView": 100.0,
      "PercentSampling": 100.0,
      "PerformedProcedureStepStartTime": "085633.797000",
      "PhotometricInterpretation": "MONOCHROME2",
      "PixelBandwidth": 2290.0,
      "PixelRepresentation": 0,
      "PixelSpacing": [2.0, 2.0],
      "ProtocolName": "func_task-gambling_run-1",
      "RepetitionTime": 1490.0,
      "Rows": 832,
      "SAR": 0.0275487393544,
      "SamplesPerPixel": 1,
      "ScanOptions": "FS",
      "ScanningSequence": "EP",
      "SequenceName": "epfid2d1_104",
      "SequenceVariant": [
        "SK",
        "SS"
],
      "SeriesDescription": "func_task-gambling_run-1",
      "SeriesNumber": 15,
      "SeriesTime": "093803.062000",
      "SliceLocation": -39.895195104196,
      "SliceThickness": 2.0,
      "SmallestImagePixelValue": 0,
      "SoftwareVersions": "syngo MR E11",
      "SpacingBetweenSlices": 2.0000000443886,
      "SpecificCharacterSet": "ISO_IR 100",
      "StudyID": "1",
      "StudyTime": "085633.694000",
      "TransmitCoilName": "Body",
      "VariableFlipAngleFlag": "N",
      "WindowCenterWidthExplanation": "Algo1",
      "dBdt": 0.0},
    "slices": {}
  },
  "time": {
    "samples": {
      "AcquisitionNumber": [1, 2, 3, 4, 5, 6, 7, 8, 9, 10, 11, 12, 13, 14, 15, 16, 17, 18, 19, 20, 21, 22, 23, 24, 25, 26, 27, 28, 29, 30, 31, 32, 33, 34, 35, 36, 37, 38, 39, 40, 41, 42, 43, 44, 45, 46, 47, 48, 49, 50, 51, 52, 53, 54, 55, 56, 57, 58, 59, 60, 61, 62, 63, 64, 65, 66, 67, 68, 69, 70, 71, 72, 73, 74, 75, 76, 77, 78, 79, 80, 81, 82, 83, 84, 85, 86, 87, 88, 89, 90, 91, 92, 93, 94, 95, 96, 97, 98, 99, 100, 101, 102, 103, 104, 105, 106, 107, 108, 109, 110, 111, 112, 113, 114, 115, 116, 117, 118, 119, 120, 121, 122, 123, 124, 125, 126, 127, 128, 129],
      "AcquisitionTime": ["093638.910000", "093640.400000", "093641.890000", "093643.380000", "093644.870000", "093646.360000", "093647.850000", "093649.340000", "093650.830000", "093652.320000", "093653.810000", "093655.300000", "093656.790000", "093658.280000", "093659.770000", "093701.260000", "093702.750000", "093704.240000", "093705.730000", "093707.220000", "093708.710000", "093710.200000", "093711.690000", "093713.180000", "093714.670000", "093716.160000", "093717.650000", "093719.140000", "093720.630000", "093722.120000", "093723.610000", "093725.100000", "093726.590000", "093728.080000", "093729.570000", "093731.060000", "093732.550000", "093734.040000", "093735.530000", "093737.020000", "093738.510000", "093740.000000", "093741.490000", "093742.980000", "093744.470000", "093745.960000", "093747.450000", "093748.940000", "093750.430000", "093751.920000", "093753.410000", "093754.900000", "093756.390000", "093757.880000", "093759.370000", "093800.860000", "093802.350000", "093803.840000", "093805.330000", "093806.820000", "093808.310000", "093809.800000", "093811.290000", "093812.780000", "093814.270000", "093815.760000", "093817.250000", "093818.740000", "093820.230000", "093821.720000", "093823.210000", "093824.700000", "093826.190000", "093827.680000", "093829.170000", "093830.660000", "093832.150000", "093833.640000", "093835.130000", "093836.620000", "093838.110000", "093839.600000", "093841.090000", "093842.580000", "093844.070000", "093845.560000", "093847.050000", "093848.540000", "093850.030000", "093851.520000", "093853.010000", "093854.500000", "093855.990000", "093857.480000", "093858.970000", "093900.460000", "093901.950000", "093903.440000", "093904.930000", "093906.420000", "093907.910000", "093909.400000", "093910.890000", "093912.380000", "093913.870000", "093915.360000", "093916.850000", "093918.340000", "093919.830000", "093921.320000", "093922.810000", "093924.300000", "093925.790000", "093927.280000", "093928.770000", "093930.260000", "093931.750000", "093933.240000", "093934.730000", "093936.220000", "093937.710000", "093939.200000", "093940.690000", "093942.180000", "093943.670000", "093945.160000", "093946.650000", "093948.140000", "093949.630000"],
      "ContentTime": ["093803.064000", "093803.067000", "093803.079000", "093803.081000", "093803.084000", "093803.087000", "093803.090000", "093803.093000", "093803.096000", "093803.099000", "093803.101000", "093803.104000", "093803.107000", "093803.110000", "093803.113000", "093803.116000", "093803.119000", "093803.121000", "093803.124000", "093803.127000", "093803.130000", "093803.138000", "093803.141000", "093803.144000", "093803.147000", "093803.149000", "093803.152000", "093803.155000", "093803.158000", "093803.161000", "093823.025000", "093823.028000", "093823.031000", "093823.034000", "093823.036000", "093823.039000", "093823.042000", "093823.045000", "093823.048000", "093823.051000", "093823.053000", "093823.056000", "093823.059000", "093823.062000", "093823.065000", "093823.068000", "093823.070000", "093823.073000", "093823.076000", "093823.079000", "093843.026000", "093843.029000", "093843.032000", "093843.035000", "093843.037000", "093843.040000", "093843.043000", "093843.046000", "093843.049000", "093843.051000", "093843.054000", "093843.057000", "093843.060000", "093843.063000", "093843.066000", "093843.068000", "093843.071000", "093843.074000", "093843.077000", "093843.080000", "093903.025000", "093903.029000", "093903.032000", "093903.035000", "093903.038000", "093903.041000", "093903.044000", "093903.047000", "093903.050000", "093903.053000", "093903.055000", "093903.058000", "093903.061000", "093903.064000", "093903.067000", "093903.070000", "093903.072000", "093903.075000", "093903.078000", "093903.081000", "093943.025000", "093943.028000", "093943.031000", "093943.034000", "093943.036000", "093943.039000", "093943.042000", "093943.045000", "093943.048000", "093943.051000", "093943.054000", "093943.057000", "093943.059000", "093943.062000", "093943.065000", "093943.068000", "093943.071000", "093943.074000", "093943.077000", "093943.080000", "093943.082000", "093943.085000", "093943.088000", "093943.091000", "093943.094000", "093943.096000", "093943.099000", "093943.102000", "093943.105000", "093943.108000", "093943.111000", "093943.114000", "093952.273000", "093952.276000", "093952.279000", "093952.282000", "093952.284000", "093952.287000", "093952.290000"],
      "InstanceCreationTime": ["093803.064000", "093803.067000", "093803.079000", "093803.081000", "093803.084000", "093803.087000", "093803.090000", "093803.093000", "093803.096000", "093803.099000", "093803.101000", "093803.104000", "093803.107000", "093803.110000", "093803.113000", "093803.116000", "093803.119000", "093803.121000", "093803.124000", "093803.127000", "093803.130000", "093803.138000", "093803.141000", "093803.144000", "093803.147000", "093803.149000", "093803.152000", "093803.155000", "093803.158000", "093803.161000", "093823.025000", "093823.028000", "093823.031000", "093823.034000", "093823.036000", "093823.039000", "093823.042000", "093823.045000", "093823.048000", "093823.051000", "093823.053000", "093823.056000", "093823.059000", "093823.062000", "093823.065000", "093823.068000", "093823.070000", "093823.073000", "093823.076000", "093823.079000", "093843.026000", "093843.029000", "093843.032000", "093843.035000", "093843.037000", "093843.040000", "093843.043000", "093843.046000", "093843.049000", "093843.051000", "093843.054000", "093843.057000", "093843.060000", "093843.063000", "093843.066000", "093843.068000", "093843.071000", "093843.074000", "093843.077000", "093843.080000", "093903.025000", "093903.029000", "093903.032000", "093903.035000", "093903.038000", "093903.041000", "093903.044000", "093903.047000", "093903.050000", "093903.053000", "093903.055000", "093903.058000", "093903.061000", "093903.064000", "093903.067000", "093903.070000", "093903.072000", "093903.075000", "093903.078000", "093903.081000", "093943.025000", "093943.028000", "093943.031000", "093943.034000", "093943.036000", "093943.039000", "093943.042000", "093943.045000", "093943.048000", "093943.051000", "093943.054000", "093943.057000", "093943.059000", "093943.062000", "093943.065000", "093943.068000", "093943.071000", "093943.074000", "093943.077000", "093943.080000", "093943.082000", "093943.085000", "093943.088000", "093943.091000", "093943.094000", "093943.096000", "093943.099000", "093943.102000", "093943.105000", "093943.108000", "093943.111000", "093943.114000", "093952.273000", "093952.276000", "093952.279000", "093952.282000", "093952.284000", "093952.287000", "093952.290000"],
      "InstanceNumber": [1, 2, 3, 4, 5, 6, 7, 8, 9, 10, 11, 12, 13, 14, 15, 16, 17, 18, 19, 20, 21, 22, 23, 24, 25, 26, 27, 28, 29, 30, 31, 32, 33, 34, 35, 36, 37, 38, 39, 40, 41, 42, 43, 44, 45, 46, 47, 48, 49, 50, 51, 52, 53, 54, 55, 56, 57, 58, 59, 60, 61, 62, 63, 64, 65, 66, 67, 68, 69, 70, 71, 72, 73, 74, 75, 76, 77, 78, 79, 80, 81, 82, 83, 84, 85, 86, 87, 88, 89, 90, 91, 92, 93, 94, 95, 96, 97, 98, 99, 100, 101, 102, 103, 104, 105, 106, 107, 108, 109, 110, 111, 112, 113, 114, 115, 116, 117, 118, 119, 120, 121, 122, 123, 124, 125, 126, 127, 128, 129],
      "LargestImagePixelValue": [43442, 42323, 41640, 41556, 41041, 41055, 41052, 40690, 40889, 41276, 40730, 41072, 41231, 40669, 40731, 41442, 40911, 40970, 40814, 40934, 40738, 41155, 41082, 40708, 41303, 40896, 40380, 41219, 40928, 40784, 40626, 40575, 40559, 40805, 40779, 40577, 40668, 40909, 40971, 41348, 40751, 40753, 40812, 40477, 41028, 41101, 41087, 41267, 40861, 40561, 41121, 41097, 40532, 40777, 41153, 41055, 40509, 40600, 40765, 40455, 40727, 40919, 40775, 40590, 40775, 40779, 40070, 40689, 40521, 40272, 40218, 40215, 40527, 40279, 39886, 40485, 40342, 40167, 39808, 40431, 40143, 40659, 40589, 40884, 40349, 40458, 40125, 40128, 40260, 39856, 40352, 40140, 39953, 40188, 40081, 39925, 39937, 39974, 39863, 40246, 39799, 39971, 39329, 39711, 39664, 40133, 39327, 39780, 39824, 39880, 39774, 39754, 39650, 39586, 39636, 39819, 39579, 39618, 39539, 40076, 39784, 39491, 39608, 39916, 39645, 39389, 40147, 39712, 39925],
      "WindowCenter": [9895.0, 9854.0, 9834.0, 9831.0, 9818.0, 9821.0, 9821.0, 9823.0, 9830.0, 9847.0, 9832.0, 9831.0, 9822.0, 9806.0, 9813.0, 9820.0, 9827.0, 9822.0, 9815.0, 9822.0, 9824.0, 9828.0, 9820.0, 9813.0, 9820.0, 9812.0, 9807.0, 9820.0, 9814.0, 9815.0, 9813.0, 9806.0, 9805.0, 9805.0, 9806.0, 9814.0, 9814.0, 9828.0, 9822.0, 9828.0, 9816.0, 9821.0, 9824.0, 9824.0, 9825.0, 9824.0, 9822.0, 9822.0, 9821.0, 9823.0, 9829.0, 9829.0, 9824.0, 9831.0, 9831.0, 9831.0, 9831.0, 9824.0, 9824.0, 9816.0, 9821.0, 9815.0, 9815.0, 9817.0, 9817.0, 9825.0, 9819.0, 9824.0, 9816.0, 9815.0, 9808.0, 9815.0, 9815.0, 9815.0, 9808.0, 9814.0, 9807.0, 9813.0, 9809.0, 9816.0, 9811.0, 9815.0, 9808.0, 9814.0, 9814.0, 9822.0, 9817.0, 9808.0, 9810.0, 9810.0, 9818.0, 9811.0, 9808.0, 9798.0, 9792.0, 9799.0, 9808.0, 9808.0, 9817.0, 9825.0, 9820.0, 9820.0, 9813.0, 9812.0, 9812.0, 9804.0, 9797.0, 9796.0, 9802.0, 9809.0, 9804.0, 9806.0, 9803.0, 9804.0, 9804.0, 9803.0, 9804.0, 9795.0, 9796.0, 9801.0, 9801.0, 9803.0, 9817.0, 9821.0, 9828.0, 9816.0, 9814.0, 9805.0, 9811.0],
      "WindowWidth": [21122.0, 21003.0, 20944.0, 20929.0, 20897.0, 20896.0, 20896.0, 20902.0, 20917.0, 20951.0, 20921.0, 20915.0, 20896.0, 20865.0, 20879.0, 20893.0, 20906.0, 20898.0, 20884.0, 20899.0, 20905.0, 20911.0, 20894.0, 20878.0, 20892.0, 20878.0, 20867.0, 20893.0, 20882.0, 20885.0, 20880.0, 20865.0, 20863.0, 20864.0, 20863.0, 20882.0, 20884.0, 20908.0, 20898.0, 20911.0, 20888.0, 20896.0, 20905.0, 20908.0, 20907.0, 20904.0, 20899.0, 20899.0, 20896.0, 20899.0, 20911.0, 20914.0, 20904.0, 20918.0, 20918.0, 20920.0, 20919.0, 20907.0, 20907.0, 20889.0, 20896.0, 20885.0, 20884.0, 20891.0, 20892.0, 20908.0, 20898.0, 20905.0, 20886.0, 20883.0, 20870.0, 20884.0, 20885.0, 20884.0, 20869.0, 20883.0, 20868.0, 20878.0, 20873.0, 20888.0, 20879.0, 20885.0, 20869.0, 20881.0, 20879.0, 20898.0, 20892.0, 20871.0, 20874.0, 20877.0, 20891.0, 20878.0, 20869.0, 20847.0, 20838.0, 20849.0, 20869.0, 20871.0, 20893.0, 20907.0, 20901.0, 20898.0, 20884.0, 20882.0, 20880.0, 20863.0, 20848.0, 20847.0, 20859.0, 20873.0, 20864.0, 20869.0, 20861.0, 20863.0, 20863.0, 20861.0, 20864.0, 20845.0, 20846.0, 20854.0, 20855.0, 20862.0, 20891.0, 20902.0, 20916.0, 20892.0, 20887.0, 20870.0, 20879.0]
    },
    "slices": {}
  }
}