{
  "AcquisitionMatrixPE": 104,
  "AcquisitionNumber": 1,
  "AcquisitionTime": "10:11:27.052500",
  "BandwidthPerPixelPhaseEncode": 17.17,
  "BaseResolution": 104,
  "BodyPartExamined": "BRAIN",
  "CoilString": "HC1-7;NC1_2",
  "ConsistencyInfo": "N4_VE11C_LATEST_20160120",
  "ConversionSoftware": "dcm2niix",
  "ConversionSoftwareVersion": "v1.0.20200427",
  "DerivedVendorReportedEchoSpacing": 0.000560011,
  "DeviceSerialNumber": "167006",
  "DwellTime": 2.1e-06,
  "EchoTime": 0.037,
  "EchoTrainLength": 104,
  "EffectiveEchoSpacing": 0.000560011,
  "FlipAngle": 52,
  "ImageComments": "Unaliased_MB4_PE3_LB",
  "ImageOrientationPatientDICOM": [0.998234, -0.00679046, -0.0590197, -0.00696905, 0.973203, -0.229843],
  "ImageType": [
    "ORIGINAL",
    "PRIMARY",
    "M",
    "MB",
    "ND",
    "MOSAIC"
],
  "ImagingFrequency": 123.259,
  "InPlanePhaseEncodingDirectionDICOM": "COL",
  "InstitutionAddress": "Chemin_Queen-Mary_4565_Montreal_District_CA_H3W_1W5",
  "InstitutionName": "IUGM",
  "InstitutionalDepartmentName": "Department",
  "MRAcquisitionType": "2D",
  "MagneticFieldStrength": 3,
  "Manufacturer": "Siemens",
  "ManufacturersModelName": "Prisma_fit",
  "Modality": "MR",
  "MultibandAccelerationFactor": 4,
  "PartialFourier": 1,
  "PatientPosition": "HFS",
  "PercentPhaseFOV": 100,
  "PercentSampling": 100,
  "PhaseEncodingDirection": "j",
  "PhaseEncodingSteps": 104,
  "PhaseResolution": 1,
  "PixelBandwidth": 2290,
  "ProcedureStepDescription": "hcptrt_generic",
  "ProtocolName": "func_task-motor_run-2",
  "PulseSequenceDetails": "%CustomerSeq%_cmrr_mbep2d_bold",
  "ReceiveCoilActiveElements": "HC1-7;NC1,2",
  "ReceiveCoilName": "HeadNeck_64",
  "ReconMatrixPE": 104,
  "RepetitionTime": 1.49,
  "SAR": 0.0275901,
  "ScanOptions": "FS",
  "ScanningSequence": "EP",
  "SequenceName": "epfid2d1_104",
  "SequenceVariant": "SK_SS",
  "SeriesDescription": "func_task-motor_run-2",
  "SeriesNumber": 33,
  "ShimSetting": [599, -7249, -8850, 591, -41, -295, -19, 59],
  "SliceThickness": 2,
  "SliceTiming": [0, 0.7825, 0.0975, 0.88, 0.195, 0.98, 0.2925, 1.0775, 0.39, 1.175, 0.49, 1.2725, 0.5875, 1.37, 0.685, 0, 0.7825, 0.0975, 0.88, 0.195, 0.98, 0.2925, 1.0775, 0.39, 1.175, 0.49, 1.2725, 0.5875, 1.37, 0.685, 0, 0.7825, 0.0975, 0.88, 0.195, 0.98, 0.2925, 1.0775, 0.39, 1.175, 0.49, 1.2725, 0.5875, 1.37, 0.685, 0, 0.7825, 0.0975, 0.88, 0.195, 0.98, 0.2925, 1.0775, 0.39, 1.175, 0.49, 1.2725, 0.5875, 1.37, 0.685],
  "SoftwareVersions": "syngo_MR_E11",
  "SpacingBetweenSlices": 2,
  "StationName": "MRC35049",
  "TaskName": "motor",
  "TotalReadoutTime": 0.0576811,
  "TxRefAmp": 215.491,
  "WipMemBlock": "57ef9e7a-2f7b-463c-b9e1-d2fb223ac675||Sequence: R016 ve11c/master r/e634e98; Dec 19 2017 11:00:25 by eja",
  "dcmmeta_affine": [
    [-1.9964674711227417, -0.013938107527792454, -0.1179976612329483, 106.94478607177734],
    [0.013580920174717903, 1.9464056491851807, -0.4596962034702301, -73.65485382080078],
    [-0.11803930252790451, 0.4596855044364929, 1.9428731203079224, -52.00031280517578],
    [0.0, 0.0, 0.0, 1.0]
],
  "dcmmeta_reorient_transform": [
    [0.0, -1.0, 0.0, 103.0],
    [1.0, 0.0, 0.0, 0.0],
    [0.0, 0.0, 1.0, 0.0],
    [0.0, 0.0, 0.0, 1.0]
],
  "dcmmeta_shape": [104, 104, 60, 144],
  "dcmmeta_slice_dim": 2,
  "dcmmeta_version": 0.6,
  "global": {
    "const": {
      "AcquisitionMatrix": [104, 0, 0, 104],
      "AngioFlag": "N",
      "BitsAllocated": 16,
      "BitsStored": 16,
      "BodyPartExamined": "BRAIN",
      "Columns": 832,
      "EchoNumbers": 1,
      "EchoTime": 37.0,
      "EchoTrainLength": 104,
      "FlipAngle": 52.0,
      "HighBit": 15,
      "ImageOrientationPatient": [0.99823372531837, -0.0067904599356, -0.0590196517346, -0.0069690535481, 0.97320282691566, -0.2298427505405],
      "ImagePositionPatient": [-827.1498383006, -830.37313208253, 205.63912172022],
      "ImageType": [
        "ORIGINAL",
        "PRIMARY",
        "M",
        "MB",
        "ND",
        "MOSAIC"
],
      "ImagedNucleus": "1H",
      "ImagingFrequency": 123.25907,
      "InPlanePhaseEncodingDirection": "COL",
      "MRAcquisitionType": "2D",
      "MagneticFieldStrength": 3.0,
      "Manufacturer": "SIEMENS",
      "ManufacturerModelName": "Prisma_fit",
      "Modality": "MR",
      "NumberOfAverages": 1.0,
      "NumberOfPhaseEncodingSteps": 104,
      "PercentPhaseFieldOfView": 100.0,
      "PercentSampling": 100.0,
      "PerformedProcedureStepStartTime": "085633.797000",
      "PhotometricInterpretation": "MONOCHROME2",
      "PixelBandwidth": 2290.0,
      "PixelRepresentation": 0,
      "PixelSpacing": [2.0, 2.0],
      "ProtocolName": "func_task-motor_run-2",
      "RepetitionTime": 1490.0,
      "Rows": 832,
      "SAR": 0.0275901283704,
      "SamplesPerPixel": 1,
      "ScanOptions": "FS",
      "ScanningSequence": "EP",
      "SequenceName": "epfid2d1_104",
      "SequenceVariant": [
        "SK",
        "SS"
],
      "SeriesDescription": "func_task-motor_run-2",
      "SeriesNumber": 33,
      "SeriesTime": "101243.051000",
      "SliceLocation": -39.895195104196,
      "SliceThickness": 2.0,
      "SmallestImagePixelValue": 0,
      "SoftwareVersions": "syngo MR E11",
      "SpacingBetweenSlices": 2.0000000443886,
      "SpecificCharacterSet": "ISO_IR 100",
      "StudyID": "1",
      "StudyTime": "085633.694000",
      "TransmitCoilName": "Body",
      "VariableFlipAngleFlag": "N",
      "WindowCenterWidthExplanation": "Algo1",
      "dBdt": 0.0},
    "slices": {}
  },
  "time": {
    "samples": {
      "AcquisitionNumber": [1, 2, 3, 4, 5, 6, 7, 8, 9, 10, 11, 12, 13, 14, 15, 16, 17, 18, 19, 20, 21, 22, 23, 24, 25, 26, 27, 28, 29, 30, 31, 32, 33, 34, 35, 36, 37, 38, 39, 40, 41, 42, 43, 44, 45, 46, 47, 48, 49, 50, 51, 52, 53, 54, 55, 56, 57, 58, 59, 60, 61, 62, 63, 64, 65, 66, 67, 68, 69, 70, 71, 72, 73, 74, 75, 76, 77, 78, 79, 80, 81, 82, 83, 84, 85, 86, 87, 88, 89, 90, 91, 92, 93, 94, 95, 96, 97, 98, 99, 100, 101, 102, 103, 104, 105, 106, 107, 108, 109, 110, 111, 112, 113, 114, 115, 116, 117, 118, 119, 120, 121, 122, 123, 124, 125, 126, 127, 128, 129, 130, 131, 132, 133, 134, 135, 136, 137, 138, 139, 140, 141, 142, 143, 144],
      "AcquisitionTime": ["101127.052500", "101128.542500", "101130.032500", "101131.522500", "101133.012500", "101134.502500", "101135.992500", "101137.482500", "101138.972500", "101140.462500", "101141.952500", "101143.442500", "101144.932500", "101146.422500", "101147.912500", "101149.402500", "101150.892500", "101152.382500", "101153.872500", "101155.362500", "101156.852500", "101158.342500", "101159.832500", "101201.322500", "101202.812500", "101204.302500", "101205.792500", "101207.282500", "101208.772500", "101210.262500", "101211.752500", "101213.242500", "101214.732500", "101216.222500", "101217.712500", "101219.202500", "101220.692500", "101222.182500", "101223.672500", "101225.162500", "101226.652500", "101228.142500", "101229.632500", "101231.122500", "101232.612500", "101234.102500", "101235.592500", "101237.082500", "101238.572500", "101240.062500", "101241.552500", "101243.042500", "101244.532500", "101246.022500", "101247.512500", "101249.002500", "101250.492500", "101251.982500", "101253.472500", "101254.962500", "101256.452500", "101257.942500", "101259.432500", "101300.922500", "101302.412500", "101303.902500", "101305.392500", "101306.882500", "101308.372500", "101309.862500", "101311.352500", "101312.842500", "101314.332500", "101315.822500", "101317.312500", "101318.802500", "101320.292500", "101321.782500", "101323.272500", "101324.762500", "101326.252500", "101327.742500", "101329.232500", "101330.722500", "101332.212500", "101333.702500", "101335.192500", "101336.682500", "101338.172500", "101339.662500", "101341.152500", "101342.642500", "101344.132500", "101345.622500", "101347.112500", "101348.602500", "101350.092500", "101351.582500", "101353.072500", "101354.562500", "101356.052500", "101357.542500", "101359.032500", "101400.522500", "101402.012500", "101403.502500", "101404.992500", "101406.482500", "101407.972500", "101409.462500", "101410.952500", "101412.442500", "101413.932500", "101415.422500", "101416.912500", "101418.402500", "101419.892500", "101421.382500", "101422.872500", "101424.362500", "101425.852500", "101427.342500", "101428.832500", "101430.322500", "101431.812500", "101433.302500", "101434.792500", "101436.282500", "101437.772500", "101439.262500", "101440.752500", "101442.242500", "101443.732500", "101445.222500", "101446.712500", "101448.202500", "101449.692500", "101451.182500", "101452.672500", "101454.162500", "101455.652500", "101457.142500", "101458.632500", "101500.122500"],
      "ContentTime": ["101243.053000", "101243.057000", "101243.060000", "101243.062000", "101243.065000", "101243.068000", "101243.071000", "101243.074000", "101243.077000", "101243.079000", "101243.082000", "101243.085000", "101243.088000", "101243.091000", "101243.094000", "101243.096000", "101243.099000", "101243.102000", "101243.105000", "101243.108000", "101243.116000", "101243.119000", "101303.025000", "101303.028000", "101303.031000", "101303.034000", "101303.036000", "101303.039000", "101303.042000", "101303.045000", "101303.048000", "101303.051000", "101303.054000", "101303.056000", "101303.059000", "101303.062000", "101303.065000", "101303.068000", "101303.071000", "101303.074000", "101303.076000", "101303.079000", "101323.025000", "101323.028000", "101323.031000", "101323.034000", "101323.046000", "101323.049000", "101323.052000", "101323.055000", "101323.058000", "101323.061000", "101323.064000", "101323.066000", "101323.069000", "101323.072000", "101323.075000", "101323.078000", "101323.081000", "101323.084000", "101323.086000", "101323.089000", "101343.026000", "101343.030000", "101343.047000", "101343.050000", "101343.053000", "101343.056000", "101343.059000", "101343.062000", "101343.064000", "101343.067000", "101343.070000", "101343.073000", "101343.076000", "101343.079000", "101343.081000", "101343.084000", "101343.087000", "101343.090000", "101343.093000", "101343.096000", "101403.025000", "101403.028000", "101403.031000", "101403.034000", "101403.036000", "101403.039000", "101403.042000", "101403.045000", "101403.048000", "101403.051000", "101403.054000", "101403.056000", "101403.059000", "101403.062000", "101403.065000", "101403.068000", "101403.071000", "101403.073000", "101403.076000", "101403.079000", "101403.082000", "101443.025000", "101443.028000", "101443.031000", "101443.034000", "101443.036000", "101443.039000", "101443.042000", "101443.045000", "101443.048000", "101443.051000", "101443.054000", "101443.056000", "101443.059000", "101443.062000", "101443.065000", "101443.068000", "101443.071000", "101443.073000", "101443.076000", "101443.079000", "101443.082000", "101443.085000", "101443.088000", "101443.095000", "101443.098000", "101443.101000", "101443.104000", "101443.106000", "101502.075000", "101502.078000", "101502.080000", "101502.083000", "101502.090000", "101502.093000", "101502.096000", "101502.099000", "101502.102000", "101502.105000", "101502.108000", "101502.112000", "101502.115000"],
      "InstanceCreationTime": ["101243.053000", "101243.057000", "101243.060000", "101243.062000", "101243.065000", "101243.068000", "101243.071000", "101243.074000", "101243.077000", "101243.079000", "101243.082000", "101243.085000", "101243.088000", "101243.091000", "101243.094000", "101243.096000", "101243.099000", "101243.102000", "101243.105000", "101243.108000", "101243.116000", "101243.119000", "101303.025000", "101303.028000", "101303.031000", "101303.034000", "101303.036000", "101303.039000", "101303.042000", "101303.045000", "101303.048000", "101303.051000", "101303.054000", "101303.056000", "101303.059000", "101303.062000", "101303.065000", "101303.068000", "101303.071000", "101303.074000", "101303.076000", "101303.079000", "101323.025000", "101323.028000", "101323.031000", "101323.034000", "101323.046000", "101323.049000", "101323.052000", "101323.055000", "101323.058000", "101323.061000", "101323.064000", "101323.066000", "101323.069000", "101323.072000", "101323.075000", "101323.078000", "101323.081000", "101323.084000", "101323.086000", "101323.089000", "101343.026000", "101343.030000", "101343.047000", "101343.050000", "101343.053000", "101343.056000", "101343.059000", "101343.062000", "101343.064000", "101343.067000", "101343.070000", "101343.073000", "101343.076000", "101343.079000", "101343.081000", "101343.084000", "101343.087000", "101343.090000", "101343.093000", "101343.096000", "101403.025000", "101403.028000", "101403.031000", "101403.034000", "101403.036000", "101403.039000", "101403.042000", "101403.045000", "101403.048000", "101403.051000", "101403.054000", "101403.056000", "101403.059000", "101403.062000", "101403.065000", "101403.068000", "101403.071000", "101403.073000", "101403.076000", "101403.079000", "101403.082000", "101443.025000", "101443.028000", "101443.031000", "101443.034000", "101443.036000", "101443.039000", "101443.042000", "101443.045000", "101443.048000", "101443.051000", "101443.054000", "101443.056000", "101443.059000", "101443.062000", "101443.065000", "101443.068000", "101443.071000", "101443.073000", "101443.076000", "101443.079000", "101443.082000", "101443.085000", "101443.088000", "101443.095000", "101443.098000", "101443.101000", "101443.104000", "101443.106000", "101502.075000", "101502.078000", "101502.080000", "101502.083000", "101502.090000", "101502.093000", "101502.096000", "101502.099000", "101502.102000", "101502.105000", "101502.108000", "101502.112000", "101502.115000"],
      "InstanceNumber": [1, 2, 3, 4, 5, 6, 7, 8, 9, 10, 11, 12, 13, 14, 15, 16, 17, 18, 19, 20, 21, 22, 23, 24, 25, 26, 27, 28, 29, 30, 31, 32, 33, 34, 35, 36, 37, 38, 39, 40, 41, 42, 43, 44, 45, 46, 47, 48, 49, 50, 51, 52, 53, 54, 55, 56, 57, 58, 59, 60, 61, 62, 63, 64, 65, 66, 67, 68, 69, 70, 71, 72, 73, 74, 75, 76, 77, 78, 79, 80, 81, 82, 83, 84, 85, 86, 87, 88, 89, 90, 91, 92, 93, 94, 95, 96, 97, 98, 99, 100, 101, 102, 103, 104, 105, 106, 107, 108, 109, 110, 111, 112, 113, 114, 115, 116, 117, 118, 119, 120, 121, 122, 123, 124, 125, 126, 127, 128, 129, 130, 131, 132, 133, 134, 135, 136, 137, 138, 139, 140, 141, 142, 143, 144],
      "LargestImagePixelValue": [42774, 41363, 41806, 40542, 40569, 39984, 40164, 40423, 39870, 39761, 39298, 39552, 39648, 39713, 39802, 40310, 40273, 39827, 39508, 39579, 39578, 40165, 39667, 40102, 40227, 39808, 40146, 40656, 40122, 39974, 39579, 39522, 39577, 40016, 40406, 40167, 40755, 40166, 40519, 39264, 39387, 39361, 39259, 39387, 39637, 39353, 40024, 39493, 39829, 39724, 39769, 40006, 39456, 39517, 39786, 39756, 40725, 40300, 39841, 39705, 39667, 39612, 39697, 39404, 39717, 39346, 39499, 40008, 39754, 39740, 39863, 39851, 39904, 39467, 40056, 39796, 39879, 39830, 39431, 40065, 40015, 39999, 40494, 40271, 39641, 40140, 39827, 40063, 39972, 39689, 39742, 40347, 39727, 39849, 39604, 40227, 39522, 39575, 39652, 39700, 39472, 39695, 39448, 39865, 39405, 39315, 39357, 39902, 39752, 39506, 39834, 39804, 39317, 39603, 39792, 39635, 39795, 39682, 39936, 39758, 39736, 40513, 39649, 40001, 39890, 39435, 39664, 39567, 40616, 39724, 39807, 38985, 39278, 39333, 39457, 39907, 39875, 39642, 40247, 40059, 39932, 40137, 39628, 39327],
      "WindowCenter": [9893.0, 9854.0, 9848.0, 9824.0, 9823.0, 9816.0, 9817.0, 9815.0, 9815.0, 9814.0, 9808.0, 9806.0, 9806.0, 9805.0, 9806.0, 9805.0, 9803.0, 9795.0, 9799.0, 9803.0, 9805.0, 9811.0, 9796.0, 9795.0, 9793.0, 9780.0, 9778.0, 9783.0, 9792.0, 9800.0, 9802.0, 9796.0, 9796.0, 9796.0, 9812.0, 9804.0, 9808.0, 9793.0, 9798.0, 9794.0, 9788.0, 9794.0, 9787.0, 9794.0, 9785.0, 9787.0, 9791.0, 9786.0, 9793.0, 9800.0, 9794.0, 9792.0, 9785.0, 9786.0, 9793.0, 9803.0, 9814.0, 9807.0, 9799.0, 9800.0, 9792.0, 9801.0, 9800.0, 9796.0, 9801.0, 9788.0, 9787.0, 9793.0, 9796.0, 9795.0, 9801.0, 9801.0, 9808.0, 9797.0, 9810.0, 9801.0, 9800.0, 9793.0, 9794.0, 9800.0, 9789.0, 9782.0, 9785.0, 9787.0, 9782.0, 9790.0, 9791.0, 9791.0, 9790.0, 9790.0, 9790.0, 9795.0, 9791.0, 9797.0, 9799.0, 9805.0, 9799.0, 9792.0, 9791.0, 9800.0, 9801.0, 9801.0, 9787.0, 9796.0, 9792.0, 9801.0, 9811.0, 9816.0, 9802.0, 9793.0, 9799.0, 9798.0, 9794.0, 9792.0, 9790.0, 9781.0, 9772.0, 9773.0, 9785.0, 9795.0, 9790.0, 9795.0, 9788.0, 9789.0, 9796.0, 9785.0, 9797.0, 9790.0, 9803.0, 9798.0, 9806.0, 9794.0, 9776.0, 9766.0, 9762.0, 9750.0, 9740.0, 9733.0, 9749.0, 9766.0, 9784.0, 9796.0, 9808.0, 9802.0],
      "WindowWidth": [21118.0, 21009.0, 20977.0, 20917.0, 20911.0, 20896.0, 20897.0, 20893.0, 20890.0, 20885.0, 20875.0, 20868.0, 20872.0, 20868.0, 20871.0, 20866.0, 20862.0, 20843.0, 20855.0, 20859.0, 20865.0, 20876.0, 20845.0, 20843.0, 20835.0, 20811.0, 20803.0, 20811.0, 20834.0, 20852.0, 20859.0, 20848.0, 20848.0, 20847.0, 20881.0, 20864.0, 20870.0, 20839.0, 20844.0, 20842.0, 20832.0, 20842.0, 20831.0, 20840.0, 20821.0, 20827.0, 20832.0, 20827.0, 20839.0, 20852.0, 20841.0, 20837.0, 20823.0, 20827.0, 20841.0, 20863.0, 20880.0, 20866.0, 20849.0, 20853.0, 20837.0, 20857.0, 20854.0, 20850.0, 20856.0, 20832.0, 20829.0, 20839.0, 20846.0, 20847.0, 20855.0, 20858.0, 20871.0, 20853.0, 20874.0, 20856.0, 20851.0, 20838.0, 20841.0, 20855.0, 20826.0, 20811.0, 20814.0, 20819.0, 20813.0, 20827.0, 20833.0, 20831.0, 20829.0, 20828.0, 20830.0, 20836.0, 20835.0, 20844.0, 20851.0, 20861.0, 20849.0, 20836.0, 20833.0, 20853.0, 20856.0, 20853.0, 20826.0, 20838.0, 20835.0, 20854.0, 20878.0, 20886.0, 20857.0, 20839.0, 20848.0, 20844.0, 20841.0, 20834.0, 20828.0, 20809.0, 20787.0, 20791.0, 20814.0, 20836.0, 20830.0, 20837.0, 20824.0, 20826.0, 20839.0, 20821.0, 20839.0, 20828.0, 20852.0, 20845.0, 20862.0, 20840.0, 20800.0, 20778.0, 20765.0, 20734.0, 20712.0, 20700.0, 20735.0, 20769.0, 20809.0, 20840.0, 20867.0, 20858.0]
    },
    "slices": {}
  }
}