{
  "AcquisitionMatrixPE": 104,
  "AcquisitionNumber": 1,
  "AcquisitionTime": "10:20:58.087500",
  "BandwidthPerPixelPhaseEncode": 17.17,
  "BaseResolution": 104,
  "BodyPartExamined": "BRAIN",
  "CoilString": "HC1-7;NC1_2",
  "ConsistencyInfo": "N4_VE11C_LATEST_20160120",
  "ConversionSoftware": "dcm2niix",
  "ConversionSoftwareVersion": "v1.0.20200427",
  "DerivedVendorReportedEchoSpacing": 0.000560011,
  "DeviceSerialNumber": "167006",
  "DwellTime": 2.1e-06,
  "EchoTime": 0.037,
  "EchoTrainLength": 104,
  "EffectiveEchoSpacing": 0.000560011,
  "FlipAngle": 52,
  "ImageComments": "Unaliased_MB4_PE3_LB",
  "ImageOrientationPatientDICOM": [0.998234, -0.00679046, -0.0590197, -0.00696905, 0.973203, -0.229843],
  "ImageType": [
    "ORIGINAL",
    "PRIMARY",
    "M",
    "MB",
    "ND",
    "MOSAIC"
],
  "ImagingFrequency": 123.259,
  "InPlanePhaseEncodingDirectionDICOM": "COL",
  "InstitutionAddress": "Chemin_Queen-Mary_4565_Montreal_District_CA_H3W_1W5",
  "InstitutionName": "IUGM",
  "InstitutionalDepartmentName": "Department",
  "MRAcquisitionType": "2D",
  "MagneticFieldStrength": 3,
  "Manufacturer": "Siemens",
  "ManufacturersModelName": "Prisma_fit",
  "Modality": "MR",
  "MultibandAccelerationFactor": 4,
  "PartialFourier": 1,
  "PatientPosition": "HFS",
  "PercentPhaseFOV": 100,
  "PercentSampling": 100,
  "PhaseEncodingDirection": "j",
  "PhaseEncodingSteps": 104,
  "PhaseResolution": 1,
  "PixelBandwidth": 2290,
  "ProcedureStepDescription": "hcptrt_generic",
  "ProtocolName": "func_task-social_run-2",
  "PulseSequenceDetails": "%CustomerSeq%_cmrr_mbep2d_bold",
  "ReceiveCoilActiveElements": "HC1-7;NC1,2",
  "ReceiveCoilName": "HeadNeck_64",
  "ReconMatrixPE": 104,
  "RepetitionTime": 1.49,
  "SAR": 0.0275773,
  "ScanOptions": "FS",
  "ScanningSequence": "EP",
  "SequenceName": "epfid2d1_104",
  "SequenceVariant": "SK_SS",
  "SeriesDescription": "func_task-social_run-2",
  "SeriesNumber": 37,
  "ShimSetting": [599, -7249, -8850, 591, -41, -295, -19, 59],
  "SliceThickness": 2,
  "SliceTiming": [0, 0.7825, 0.0975, 0.88, 0.195, 0.98, 0.2925, 1.0775, 0.39, 1.175, 0.49, 1.2725, 0.5875, 1.37, 0.685, 0, 0.7825, 0.0975, 0.88, 0.195, 0.98, 0.2925, 1.0775, 0.39, 1.175, 0.49, 1.2725, 0.5875, 1.37, 0.685, 0, 0.7825, 0.0975, 0.88, 0.195, 0.98, 0.2925, 1.0775, 0.39, 1.175, 0.49, 1.2725, 0.5875, 1.37, 0.685, 0, 0.7825, 0.0975, 0.88, 0.195, 0.98, 0.2925, 1.0775, 0.39, 1.175, 0.49, 1.2725, 0.5875, 1.37, 0.685],
  "SoftwareVersions": "syngo_MR_E11",
  "SpacingBetweenSlices": 2,
  "StationName": "MRC35049",
  "TaskName": "social",
  "TotalReadoutTime": 0.0576811,
  "TxRefAmp": 215.491,
  "WipMemBlock": "7fe4f0d5-699e-4477-902a-0851b6cf3f82||Sequence: R016 ve11c/master r/e634e98; Dec 19 2017 11:00:25 by eja",
  "dcmmeta_affine": [
    [-1.9964674711227417, -0.013938107527792454, -0.1179976612329483, 106.94478607177734],
    [0.013580920174717903, 1.9464056491851807, -0.4596962034702301, -73.65485382080078],
    [-0.11803930252790451, 0.4596855044364929, 1.9428731203079224, -52.00031280517578],
    [0.0, 0.0, 0.0, 1.0]
],
  "dcmmeta_reorient_transform": [
    [0.0, -1.0, 0.0, 103.0],
    [1.0, 0.0, 0.0, 0.0],
    [0.0, 0.0, 1.0, 0.0],
    [0.0, 0.0, 0.0, 1.0]
],
  "dcmmeta_shape": [104, 104, 60, 139],
  "dcmmeta_slice_dim": 2,
  "dcmmeta_version": 0.6,
  "global": {
    "const": {
      "AcquisitionMatrix": [104, 0, 0, 104],
      "AngioFlag": "N",
      "BitsAllocated": 16,
      "BitsStored": 16,
      "BodyPartExamined": "BRAIN",
      "Columns": 832,
      "EchoNumbers": 1,
      "EchoTime": 37.0,
      "EchoTrainLength": 104,
      "FlipAngle": 52.0,
      "HighBit": 15,
      "ImageOrientationPatient": [0.99823372531837, -0.0067904599356, -0.0590196517346, -0.0069690535481, 0.97320282691566, -0.2298427505405],
      "ImagePositionPatient": [-827.1498383006, -830.37313208253, 205.63912172022],
      "ImageType": [
        "ORIGINAL",
        "PRIMARY",
        "M",
        "MB",
        "ND",
        "MOSAIC"
],
      "ImagedNucleus": "1H",
      "ImagingFrequency": 123.259071,
      "InPlanePhaseEncodingDirection": "COL",
      "MRAcquisitionType": "2D",
      "MagneticFieldStrength": 3.0,
      "Manufacturer": "SIEMENS",
      "ManufacturerModelName": "Prisma_fit",
      "Modality": "MR",
      "NumberOfAverages": 1.0,
      "NumberOfPhaseEncodingSteps": 104,
      "PercentPhaseFieldOfView": 100.0,
      "PercentSampling": 100.0,
      "PerformedProcedureStepStartTime": "085633.797000",
      "PhotometricInterpretation": "MONOCHROME2",
      "PixelBandwidth": 2290.0,
      "PixelRepresentation": 0,
      "PixelSpacing": [2.0, 2.0],
      "ProtocolName": "func_task-social_run-2",
      "RepetitionTime": 1490.0,
      "Rows": 832,
      "SAR": 0.02757727702666,
      "SamplesPerPixel": 1,
      "ScanOptions": "FS",
      "ScanningSequence": "EP",
      "SequenceName": "epfid2d1_104",
      "SequenceVariant": [
        "SK",
        "SS"
],
      "SeriesDescription": "func_task-social_run-2",
      "SeriesNumber": 37,
      "SeriesTime": "102221.965000",
      "SliceLocation": -39.895195104196,
      "SliceThickness": 2.0,
      "SmallestImagePixelValue": 0,
      "SoftwareVersions": "syngo MR E11",
      "SpacingBetweenSlices": 2.0000000443886,
      "SpecificCharacterSet": "ISO_IR 100",
      "StudyID": "1",
      "StudyTime": "085633.694000",
      "TransmitCoilName": "Body",
      "VariableFlipAngleFlag": "N",
      "WindowCenterWidthExplanation": "Algo1",
      "dBdt": 0.0},
    "slices": {}
  },
  "time": {
    "samples": {
      "AcquisitionNumber": [1, 2, 3, 4, 5, 6, 7, 8, 9, 10, 11, 12, 13, 14, 15, 16, 17, 18, 19, 20, 21, 22, 23, 24, 25, 26, 27, 28, 29, 30, 31, 32, 33, 34, 35, 36, 37, 38, 39, 40, 41, 42, 43, 44, 45, 46, 47, 48, 49, 50, 51, 52, 53, 54, 55, 56, 57, 58, 59, 60, 61, 62, 63, 64, 65, 66, 67, 68, 69, 70, 71, 72, 73, 74, 75, 76, 77, 78, 79, 80, 81, 82, 83, 84, 85, 86, 87, 88, 89, 90, 91, 92, 93, 94, 95, 96, 97, 98, 99, 100, 101, 102, 103, 104, 105, 106, 107, 108, 109, 110, 111, 112, 113, 114, 115, 116, 117, 118, 119, 120, 121, 122, 123, 124, 125, 126, 127, 128, 129, 130, 131, 132, 133, 134, 135, 136, 137, 138, 139],
      "AcquisitionTime": ["102058.087500", "102059.577500", "102101.067500", "102102.557500", "102104.047500", "102105.537500", "102107.027500", "102108.517500", "102110.007500", "102111.497500", "102112.987500", "102114.477500", "102115.967500", "102117.457500", "102118.947500", "102120.437500", "102121.927500", "102123.417500", "102124.907500", "102126.397500", "102127.887500", "102129.377500", "102130.867500", "102132.357500", "102133.847500", "102135.337500", "102136.827500", "102138.317500", "102139.807500", "102141.297500", "102142.787500", "102144.277500", "102145.767500", "102147.257500", "102148.747500", "102150.237500", "102151.727500", "102153.217500", "102154.707500", "102156.197500", "102157.687500", "102159.177500", "102200.667500", "102202.157500", "102203.647500", "102205.137500", "102206.627500", "102208.117500", "102209.607500", "102211.097500", "102212.587500", "102214.077500", "102215.567500", "102217.057500", "102218.547500", "102220.037500", "102221.527500", "102223.017500", "102224.507500", "102225.997500", "102227.487500", "102228.977500", "102230.467500", "102231.957500", "102233.447500", "102234.937500", "102236.427500", "102237.917500", "102239.407500", "102240.897500", "102242.387500", "102243.877500", "102245.367500", "102246.857500", "102248.347500", "102249.837500", "102251.327500", "102252.817500", "102254.307500", "102255.797500", "102257.287500", "102258.777500", "102300.267500", "102301.757500", "102303.247500", "102304.737500", "102306.227500", "102307.717500", "102309.207500", "102310.697500", "102312.187500", "102313.677500", "102315.167500", "102316.657500", "102318.147500", "102319.637500", "102321.127500", "102322.617500", "102324.107500", "102325.597500", "102327.087500", "102328.577500", "102330.067500", "102331.557500", "102333.047500", "102334.537500", "102336.027500", "102337.517500", "102339.007500", "102340.497500", "102341.987500", "102343.477500", "102344.967500", "102346.457500", "102347.947500", "102349.437500", "102350.927500", "102352.417500", "102353.907500", "102355.397500", "102356.887500", "102358.377500", "102359.867500", "102401.357500", "102402.847500", "102404.337500", "102405.827500", "102407.317500", "102408.807500", "102410.297500", "102411.787500", "102413.277500", "102414.767500", "102416.257500", "102417.747500", "102419.237500", "102420.727500", "102422.217500", "102423.707500"],
      "ContentTime": ["102221.968000", "102221.971000", "102221.974000", "102221.977000", "102221.987000", "102221.990000", "102221.993000", "102221.996000", "102221.998000", "102222.002000", "102222.005000", "102222.010000", "102222.013000", "102222.016000", "102222.019000", "102222.021000", "102222.024000", "102222.027000", "102222.030000", "102222.033000", "102222.036000", "102222.039000", "102222.041000", "102222.044000", "102222.047000", "102222.050000", "102222.053000", "102222.056000", "102222.059000", "102222.062000", "102241.936000", "102241.939000", "102241.942000", "102241.944000", "102241.948000", "102241.957000", "102241.960000", "102241.962000", "102241.965000", "102241.968000", "102241.971000", "102241.974000", "102241.977000", "102241.980000", "102241.982000", "102241.985000", "102241.988000", "102241.992000", "102241.996000", "102241.998000", "102301.937000", "102301.940000", "102301.943000", "102301.946000", "102301.949000", "102301.951000", "102301.954000", "102301.957000", "102301.960000", "102301.963000", "102301.966000", "102301.969000", "102301.971000", "102301.974000", "102301.977000", "102301.980000", "102301.983000", "102301.986000", "102301.989000", "102301.992000", "102301.994000", "102321.937000", "102321.940000", "102321.943000", "102321.946000", "102321.952000", "102321.955000", "102321.967000", "102321.970000", "102321.973000", "102321.976000", "102321.979000", "102321.981000", "102321.984000", "102321.987000", "102321.990000", "102321.993000", "102321.996000", "102322.000000", "102322.003000", "102322.005000", "102401.937000", "102401.940000", "102401.943000", "102401.946000", "102401.949000", "102401.951000", "102401.954000", "102401.957000", "102401.960000", "102401.963000", "102401.966000", "102401.969000", "102401.971000", "102401.978000", "102401.981000", "102401.984000", "102401.987000", "102401.990000", "102401.992000", "102401.995000", "102401.998000", "102402.001000", "102402.004000", "102402.007000", "102402.010000", "102402.012000", "102402.015000", "102402.018000", "102402.021000", "102402.024000", "102402.027000", "102426.279000", "102426.282000", "102426.285000", "102426.288000", "102426.291000", "102426.293000", "102426.296000", "102426.299000", "102426.302000", "102426.305000", "102426.308000", "102426.311000", "102426.313000", "102426.316000", "102426.319000", "102426.322000", "102426.325000"],
      "InstanceCreationTime": ["102221.968000", "102221.971000", "102221.974000", "102221.977000", "102221.987000", "102221.990000", "102221.993000", "102221.996000", "102221.998000", "102222.002000", "102222.005000", "102222.010000", "102222.013000", "102222.016000", "102222.019000", "102222.021000", "102222.024000", "102222.027000", "102222.030000", "102222.033000", "102222.036000", "102222.039000", "102222.041000", "102222.044000", "102222.047000", "102222.050000", "102222.053000", "102222.056000", "102222.059000", "102222.062000", "102241.936000", "102241.939000", "102241.942000", "102241.944000", "102241.948000", "102241.957000", "102241.960000", "102241.962000", "102241.965000", "102241.968000", "102241.971000", "102241.974000", "102241.977000", "102241.980000", "102241.982000", "102241.985000", "102241.988000", "102241.992000", "102241.996000", "102241.998000", "102301.937000", "102301.940000", "102301.943000", "102301.946000", "102301.949000", "102301.951000", "102301.954000", "102301.957000", "102301.960000", "102301.963000", "102301.966000", "102301.969000", "102301.971000", "102301.974000", "102301.977000", "102301.980000", "102301.983000", "102301.986000", "102301.989000", "102301.992000", "102301.994000", "102321.937000", "102321.940000", "102321.943000", "102321.946000", "102321.952000", "102321.955000", "102321.967000", "102321.970000", "102321.973000", "102321.976000", "102321.979000", "102321.981000", "102321.984000", "102321.987000", "102321.990000", "102321.993000", "102321.996000", "102322.000000", "102322.003000", "102322.005000", "102401.937000", "102401.940000", "102401.943000", "102401.946000", "102401.949000", "102401.951000", "102401.954000", "102401.957000", "102401.960000", "102401.963000", "102401.966000", "102401.969000", "102401.971000", "102401.978000", "102401.981000", "102401.984000", "102401.987000", "102401.990000", "102401.992000", "102401.995000", "102401.998000", "102402.001000", "102402.004000", "102402.007000", "102402.010000", "102402.012000", "102402.015000", "102402.018000", "102402.021000", "102402.024000", "102402.027000", "102426.279000", "102426.282000", "102426.285000", "102426.288000", "102426.291000", "102426.293000", "102426.296000", "102426.299000", "102426.302000", "102426.305000", "102426.308000", "102426.311000", "102426.313000", "102426.316000", "102426.319000", "102426.322000", "102426.325000"],
      "InstanceNumber": [1, 2, 3, 4, 5, 6, 7, 8, 9, 10, 11, 12, 13, 14, 15, 16, 17, 18, 19, 20, 21, 22, 23, 24, 25, 26, 27, 28, 29, 30, 31, 32, 33, 34, 35, 36, 37, 38, 39, 40, 41, 42, 43, 44, 45, 46, 47, 48, 49, 50, 51, 52, 53, 54, 55, 56, 57, 58, 59, 60, 61, 62, 63, 64, 65, 66, 67, 68, 69, 70, 71, 72, 73, 74, 75, 76, 77, 78, 79, 80, 81, 82, 83, 84, 85, 86, 87, 88, 89, 90, 91, 92, 93, 94, 95, 96, 97, 98, 99, 100, 101, 102, 103, 104, 105, 106, 107, 108, 109, 110, 111, 112, 113, 114, 115, 116, 117, 118, 119, 120, 121, 122, 123, 124, 125, 126, 127, 128, 129, 130, 131, 132, 133, 134, 135, 136, 137, 138, 139],
      "LargestImagePixelValue": [43270, 41825, 41477, 41364, 41042, 41329, 40548, 40326, 40326, 40338, 40517, 40282, 40887, 40343, 40434, 40631, 40722, 40524, 40334, 40573, 40759, 41032, 41002, 40452, 40935, 40423, 40849, 40826, 40899, 41040, 40412, 40668, 40638, 40794, 41125, 40709, 41055, 40908, 41402, 41316, 41424, 41543, 42171, 41917, 42257, 41963, 42041, 41789, 41849, 41784, 41524, 41534, 41909, 42162, 41849, 41952, 41949, 41626, 42162, 42102, 42278, 42208, 42010, 41882, 42063, 41703, 42096, 41911, 42385, 42281, 41984, 42104, 42134, 41601, 42066, 41848, 42311, 41610, 41963, 42242, 42101, 42405, 42291, 42487, 41824, 42286, 41964, 42124, 42078, 41993, 41712, 41768, 42252, 42466, 42017, 42176, 42126, 42372, 41911, 41935, 42314, 42235, 42546, 42003, 42016, 42023, 42135, 41759, 41650, 41863, 41510, 41564, 41073, 40873, 40724, 40788, 40296, 40722, 40307, 40799, 41186, 40801, 40990, 40998, 40530, 41145, 40750, 40683, 41058, 40313, 41532, 40944, 40501, 40637, 40459, 40322, 41466, 41094, 40540],
      "WindowCenter": [9892.0, 9845.0, 9820.0, 9809.0, 9809.0, 9822.0, 9812.0, 9804.0, 9812.0, 9811.0, 9818.0, 9819.0, 9825.0, 9826.0, 9821.0, 9826.0, 9818.0, 9815.0, 9809.0, 9808.0, 9808.0, 9817.0, 9822.0, 9809.0, 9814.0, 9801.0, 9807.0, 9805.0, 9814.0, 9814.0, 9800.0, 9800.0, 9796.0, 9798.0, 9810.0, 9813.0, 9822.0, 9821.0, 9822.0, 9821.0, 9820.0, 9813.0, 9807.0, 9801.0, 9805.0, 9806.0, 9814.0, 9823.0, 9820.0, 9819.0, 9810.0, 9801.0, 9801.0, 9798.0, 9799.0, 9806.0, 9799.0, 9792.0, 9797.0, 9800.0, 9813.0, 9822.0, 9824.0, 9825.0, 9827.0, 9818.0, 9816.0, 9808.0, 9812.0, 9819.0, 9814.0, 9817.0, 9814.0, 9809.0, 9807.0, 9806.0, 9807.0, 9800.0, 9808.0, 9800.0, 9806.0, 9811.0, 9807.0, 9821.0, 9823.0, 9823.0, 9816.0, 9815.0, 9816.0, 9810.0, 9808.0, 9808.0, 9813.0, 9813.0, 9808.0, 9822.0, 9822.0, 9831.0, 9830.0, 9823.0, 9815.0, 9806.0, 9814.0, 9815.0, 9814.0, 9807.0, 9805.0, 9797.0, 9790.0, 9790.0, 9797.0, 9799.0, 9794.0, 9793.0, 9785.0, 9791.0, 9793.0, 9794.0, 9795.0, 9795.0, 9807.0, 9802.0, 9800.0, 9801.0, 9794.0, 9798.0, 9785.0, 9784.0, 9784.0, 9778.0, 9791.0, 9791.0, 9789.0, 9804.0, 9807.0, 9825.0, 9920.0, 9924.0, 9876.0],
      "WindowWidth": [21116.0, 20986.0, 20911.0, 20880.0, 20876.0, 20900.0, 20883.0, 20863.0, 20878.0, 20874.0, 20889.0, 20891.0, 20903.0, 20908.0, 20900.0, 20908.0, 20890.0, 20882.0, 20870.0, 20866.0, 20868.0, 20887.0, 20894.0, 20873.0, 20880.0, 20853.0, 20866.0, 20858.0, 20876.0, 20878.0, 20852.0, 20851.0, 20838.0, 20847.0, 20869.0, 20876.0, 20898.0, 20893.0, 20898.0, 20895.0, 20892.0, 20877.0, 20858.0, 20845.0, 20853.0, 20855.0, 20871.0, 20889.0, 20887.0, 20886.0, 20867.0, 20844.0, 20844.0, 20836.0, 20841.0, 20855.0, 20840.0, 20826.0, 20830.0, 20840.0, 20868.0, 20887.0, 20895.0, 20899.0, 20901.0, 20881.0, 20877.0, 20857.0, 20864.0, 20880.0, 20871.0, 20879.0, 20869.0, 20865.0, 20855.0, 20852.0, 20858.0, 20843.0, 20863.0, 20843.0, 20851.0, 20860.0, 20855.0, 20883.0, 20888.0, 20888.0, 20877.0, 20872.0, 20876.0, 20866.0, 20861.0, 20858.0, 20865.0, 20868.0, 20862.0, 20887.0, 20889.0, 20908.0, 20904.0, 20889.0, 20873.0, 20853.0, 20869.0, 20872.0, 20868.0, 20855.0, 20849.0, 20833.0, 20819.0, 20818.0, 20833.0, 20839.0, 20831.0, 20829.0, 20814.0, 20823.0, 20830.0, 20831.0, 20835.0, 20835.0, 20857.0, 20848.0, 20844.0, 20844.0, 20831.0, 20835.0, 20812.0, 20811.0, 20811.0, 20797.0, 20823.0, 20822.0, 20823.0, 20853.0, 20862.0, 20908.0, 21128.0, 21142.0, 21031.0]
    },
    "slices": {}
  }
}