{
  "AcquisitionMatrixPE": 104,
  "AcquisitionNumber": 1,
  "AcquisitionTime": "13:40:5.895000",
  "BandwidthPerPixelPhaseEncode": 17.17,
  "BaseResolution": 104,
  "BodyPartExamined": "BRAIN",
  "CoilString": "HC1-7;NC1_2",
  "ConsistencyInfo": "N4_VE11C_LATEST_20160120",
  "ConversionSoftware": "dcm2niix",
  "ConversionSoftwareVersion": "v1.0.20190902",
  "DerivedVendorReportedEchoSpacing": 0.000560011,
  "DeviceSerialNumber": "167006",
  "DwellTime": 2.1e-06,
  "EchoTime": 0.037,
  "EchoTrainLength": 104,
  "EffectiveEchoSpacing": 0.000560011,
  "FlipAngle": 52,
  "ImageComments": "Unaliased_MB4_PE3_LB",
  "ImageOrientationPatientDICOM": [0.998679, 0.00449429, -0.0511778, -0.0170833, 0.96853, -0.248309],
  "ImageType": [
    "ORIGINAL",
    "PRIMARY",
    "M",
    "MB",
    "ND",
    "MOSAIC"
],
  "ImagingFrequency": 123.259,
  "InPlanePhaseEncodingDirectionDICOM": "COL",
  "InstitutionAddress": "Chemin_Queen-Mary_4565_Montreal_District_CA_H3W_1W5",
  "InstitutionName": "IUGM",
  "InstitutionalDepartmentName": "Department",
  "MRAcquisitionType": "2D",
  "MagneticFieldStrength": 3,
  "Manufacturer": "Siemens",
  "ManufacturersModelName": "Prisma_fit",
  "Modality": "MR",
  "MultibandAccelerationFactor": 4,
  "PartialFourier": 1,
  "PatientPosition": "HFS",
  "PercentPhaseFOV": 100,
  "PhaseEncodingDirection": "j",
  "PhaseEncodingSteps": 104,
  "PhaseResolution": 1,
  "PixelBandwidth": 2290,
  "ProcedureStepDescription": "hcptrt_generic",
  "ProtocolName": "func_task-language_run-1",
  "PulseSequenceDetails": "%CustomerSeq%_cmrr_mbep2d_bold",
  "ReceiveCoilActiveElements": "HC1-7;NC1,2",
  "ReceiveCoilName": "HeadNeck_64",
  "ReconMatrixPE": 104,
  "RepetitionTime": 1.49,
  "SAR": 0.0278153,
  "ScanOptions": "FS",
  "ScanningSequence": "EP",
  "SequenceName": "epfid2d1_104",
  "SequenceVariant": "SK_SS",
  "SeriesDescription": "func_task-language_run-1",
  "SeriesNumber": 13,
  "ShimSetting": [598, -7259, -8851, 591, -62, -351, 0, 65],
  "SliceThickness": 2,
  "SliceTiming": [0, 0.785, 0.1, 0.8825, 0.1975, 0.98, 0.295, 1.08, 0.3925, 1.1775, 0.49, 1.275, 0.59, 1.3725, 0.6875, 0, 0.785, 0.1, 0.8825, 0.1975, 0.98, 0.295, 1.08, 0.3925, 1.1775, 0.49, 1.275, 0.59, 1.3725, 0.6875, 0, 0.785, 0.1, 0.8825, 0.1975, 0.98, 0.295, 1.08, 0.3925, 1.1775, 0.49, 1.275, 0.59, 1.3725, 0.6875, 0, 0.785, 0.1, 0.8825, 0.1975, 0.98, 0.295, 1.08, 0.3925, 1.1775, 0.49, 1.275, 0.59, 1.3725, 0.6875],
  "SoftwareVersions": "syngo_MR_E11",
  "SpacingBetweenSlices": 2,
  "StationName": "MRC35049",
  "TaskName": "language",
  "TotalReadoutTime": 0.0576811,
  "TxRefAmp": 215.796,
  "WipMemBlock": "a0862717-da9f-4b11-bd7f-42db1927f4e7||Sequence: R016 ve11c/master r/e634e98; Dec 19 2017 11:00:25 by eja",
  "dcmmeta_affine": [
    [-1.9973589181900024, -0.03416663780808449, -0.09690257161855698, 107.78668975830078],
    [-0.008988580666482449, 1.9370604753494263, -0.4977104663848877, -71.36067199707031],
    [-0.10235561430454254, 0.49661770462989807, 1.9346561431884766, -56.30622863769531],
    [0.0, 0.0, 0.0, 1.0]
],
  "dcmmeta_reorient_transform": [
    [0.0, -1.0, 0.0, 103.0],
    [1.0, 0.0, 0.0, 0.0],
    [0.0, 0.0, 1.0, 0.0],
    [0.0, 0.0, 0.0, 1.0]
],
  "dcmmeta_shape": [104, 104, 60, 159],
  "dcmmeta_slice_dim": 2,
  "dcmmeta_version": 0.6,
  "global": {
    "const": {
      "AcquisitionMatrix": [104, 0, 0, 104],
      "AngioFlag": "N",
      "BitsAllocated": 16,
      "BitsStored": 16,
      "BodyPartExamined": "BRAIN",
      "Columns": 832,
      "EchoNumbers": 1,
      "EchoTime": 37.0,
      "EchoTrainLength": 104,
      "FlipAngle": 52.0,
      "HighBit": 15,
      "ImageOrientationPatient": [0.99867944468878, 0.00449429053467, -0.0511778087525, -0.0170833185226, 0.96853026648001, -0.248308846279],
      "ImagePositionPatient": [-818.86950720744, -836.51843705145, 212.87167704608],
      "ImageType": [
        "ORIGINAL",
        "PRIMARY",
        "M",
        "MB",
        "ND",
        "MOSAIC"
],
      "ImagedNucleus": "1H",
      "ImagingFrequency": 123.25939,
      "InPlanePhaseEncodingDirection": "COL",
      "MRAcquisitionType": "2D",
      "MagneticFieldStrength": 3.0,
      "Manufacturer": "SIEMENS",
      "ManufacturerModelName": "Prisma_fit",
      "Modality": "MR",
      "NumberOfAverages": 1.0,
      "NumberOfPhaseEncodingSteps": 104,
      "PercentPhaseFieldOfView": 100.0,
      "PercentSampling": 100.0,
      "PerformedProcedureStepStartTime": "130032.700000",
      "PhotometricInterpretation": "MONOCHROME2",
      "PixelBandwidth": 2290.0,
      "PixelRepresentation": 0,
      "PixelSpacing": [2.0, 2.0],
      "ProtocolName": "func_task-language_run-1",
      "RepetitionTime": 1490.0,
      "Rows": 832,
      "SAR": 0.02781528479106,
      "SamplesPerPixel": 1,
      "ScanOptions": "FS",
      "ScanningSequence": "EP",
      "SequenceName": "epfid2d1_104",
      "SequenceVariant": [
        "SK",
        "SS"
],
      "SeriesDescription": "func_task-language_run-1",
      "SeriesNumber": 13,
      "SeriesTime": "134140.922000",
      "SliceLocation": -41.930522139708,
      "SliceThickness": 2.0,
      "SmallestImagePixelValue": 0,
      "SoftwareVersions": "syngo MR E11",
      "SpacingBetweenSlices": 2.0000000180323,
      "SpecificCharacterSet": "ISO_IR 100",
      "StudyID": "1",
      "StudyTime": "130032.566000",
      "TransmitCoilName": "Body",
      "VariableFlipAngleFlag": "N",
      "WindowCenterWidthExplanation": "Algo1",
      "dBdt": 0.0},
    "slices": {}
  },
  "time": {
    "samples": {
      "AcquisitionNumber": [1, 2, 3, 4, 5, 6, 7, 8, 9, 10, 11, 12, 13, 14, 15, 16, 17, 18, 19, 20, 21, 22, 23, 24, 25, 26, 27, 28, 29, 30, 31, 32, 33, 34, 35, 36, 37, 38, 39, 40, 41, 42, 43, 44, 45, 46, 47, 48, 49, 50, 51, 52, 53, 54, 55, 56, 57, 58, 59, 60, 61, 62, 63, 64, 65, 66, 67, 68, 69, 70, 71, 72, 73, 74, 75, 76, 77, 78, 79, 80, 81, 82, 83, 84, 85, 86, 87, 88, 89, 90, 91, 92, 93, 94, 95, 96, 97, 98, 99, 100, 101, 102, 103, 104, 105, 106, 107, 108, 109, 110, 111, 112, 113, 114, 115, 116, 117, 118, 119, 120, 121, 122, 123, 124, 125, 126, 127, 128, 129, 130, 131, 132, 133, 134, 135, 136, 137, 138, 139, 140, 141, 142, 143, 144, 145, 146, 147, 148, 149, 150, 151, 152, 153, 154, 155, 156, 157, 158, 159],
      "AcquisitionTime": ["134005.895000", "134007.385000", "134008.875000", "134010.365000", "134011.855000", "134013.345000", "134014.835000", "134016.325000", "134017.815000", "134019.305000", "134020.795000", "134022.285000", "134023.775000", "134025.265000", "134026.755000", "134028.245000", "134029.735000", "134031.225000", "134032.715000", "134034.205000", "134035.695000", "134037.185000", "134038.675000", "134040.165000", "134041.655000", "134043.145000", "134044.635000", "134046.125000", "134047.615000", "134049.105000", "134050.595000", "134052.085000", "134053.575000", "134055.065000", "134056.555000", "134058.045000", "134059.535000", "134101.025000", "134102.515000", "134104.005000", "134105.495000", "134106.985000", "134108.475000", "134109.965000", "134111.455000", "134112.945000", "134114.435000", "134115.925000", "134117.415000", "134118.905000", "134120.395000", "134121.885000", "134123.375000", "134124.865000", "134126.355000", "134127.845000", "134129.335000", "134130.825000", "134132.315000", "134133.805000", "134135.295000", "134136.785000", "134138.275000", "134139.765000", "134141.255000", "134142.745000", "134144.235000", "134145.725000", "134147.215000", "134148.705000", "134150.195000", "134151.685000", "134153.175000", "134154.665000", "134156.155000", "134157.645000", "134159.135000", "134200.625000", "134202.115000", "134203.605000", "134205.095000", "134206.585000", "134208.075000", "134209.565000", "134211.055000", "134212.545000", "134214.035000", "134215.525000", "134217.015000", "134218.505000", "134219.995000", "134221.485000", "134222.975000", "134224.465000", "134225.955000", "134227.445000", "134228.935000", "134230.425000", "134231.915000", "134233.405000", "134234.895000", "134236.385000", "134237.875000", "134239.365000", "134240.855000", "134242.345000", "134243.835000", "134245.325000", "134246.815000", "134248.305000", "134249.795000", "134251.285000", "134252.775000", "134254.265000", "134255.755000", "134257.245000", "134258.735000", "134300.225000", "134301.715000", "134303.205000", "134304.695000", "134306.185000", "134307.675000", "134309.165000", "134310.655000", "134312.145000", "134313.635000", "134315.125000", "134316.615000", "134318.105000", "134319.595000", "134321.085000", "134322.575000", "134324.065000", "134325.555000", "134327.045000", "134328.535000", "134330.025000", "134331.515000", "134333.005000", "134334.495000", "134335.985000", "134337.475000", "134338.965000", "134340.455000", "134341.945000", "134343.435000", "134344.925000", "134346.415000", "134347.905000", "134349.395000", "134350.885000", "134352.375000", "134353.865000", "134355.355000", "134356.845000", "134358.335000", "134359.825000", "134401.315000"],
      "ContentTime": ["134140.925000", "134140.928000", "134140.931000", "134140.934000", "134140.937000", "134140.940000", "134140.943000", "134140.947000", "134140.950000", "134140.953000", "134140.956000", "134140.959000", "134140.962000", "134140.965000", "134140.968000", "134140.971000", "134140.974000", "134140.977000", "134140.980000", "134140.986000", "134140.989000", "134140.992000", "134140.995000", "134140.998000", "134141.002000", "134141.005000", "134141.008000", "134141.011000", "134141.014000", "134141.017000", "134141.020000", "134141.023000", "134141.026000", "134141.029000", "134141.032000", "134141.035000", "134141.038000", "134141.041000", "134141.044000", "134200.879000", "134200.882000", "134200.885000", "134200.888000", "134200.896000", "134200.899000", "134200.902000", "134200.905000", "134200.908000", "134200.911000", "134200.914000", "134200.918000", "134200.921000", "134200.924000", "134200.927000", "134200.930000", "134200.933000", "134200.936000", "134200.939000", "134200.942000", "134220.879000", "134220.882000", "134220.885000", "134220.888000", "134220.892000", "134220.895000", "134220.898000", "134220.902000", "134220.905000", "134220.908000", "134220.911000", "134220.914000", "134220.917000", "134220.920000", "134220.923000", "134220.926000", "134220.929000", "134220.932000", "134220.949000", "134220.952000", "134240.879000", "134240.882000", "134240.885000", "134240.888000", "134240.891000", "134240.894000", "134240.898000", "134240.901000", "134240.903000", "134240.906000", "134240.910000", "134240.913000", "134240.916000", "134240.919000", "134240.922000", "134240.925000", "134240.928000", "134240.931000", "134240.934000", "134240.937000", "134240.940000", "134320.880000", "134320.883000", "134320.886000", "134320.890000", "134320.893000", "134320.896000", "134320.899000", "134320.902000", "134320.905000", "134320.908000", "134320.911000", "134320.914000", "134320.917000", "134320.920000", "134320.923000", "134320.926000", "134320.929000", "134320.932000", "134320.935000", "134320.938000", "134320.941000", "134320.964000", "134320.967000", "134320.970000", "134320.973000", "134320.976000", "134320.979000", "134320.982000", "134320.985000", "134320.988000", "134400.880000", "134400.883000", "134400.886000", "134400.889000", "134400.892000", "134400.896000", "134400.899000", "134400.902000", "134400.905000", "134400.908000", "134400.911000", "134400.914000", "134400.917000", "134400.920000", "134400.923000", "134400.926000", "134400.929000", "134400.932000", "134400.935000", "134400.938000", "134400.941000", "134400.944000", "134400.947000", "134400.950000", "134400.953000", "134400.956000", "134400.959000", "134403.346000", "134403.350000"],
      "InstanceCreationTime": ["134140.925000", "134140.928000", "134140.931000", "134140.934000", "134140.937000", "134140.940000", "134140.943000", "134140.947000", "134140.950000", "134140.953000", "134140.956000", "134140.959000", "134140.962000", "134140.965000", "134140.968000", "134140.971000", "134140.974000", "134140.977000", "134140.980000", "134140.986000", "134140.989000", "134140.992000", "134140.995000", "134140.998000", "134141.002000", "134141.005000", "134141.008000", "134141.011000", "134141.014000", "134141.017000", "134141.020000", "134141.023000", "134141.026000", "134141.029000", "134141.032000", "134141.035000", "134141.038000", "134141.041000", "134141.044000", "134200.879000", "134200.882000", "134200.885000", "134200.888000", "134200.896000", "134200.899000", "134200.902000", "134200.905000", "134200.908000", "134200.911000", "134200.914000", "134200.918000", "134200.921000", "134200.924000", "134200.927000", "134200.930000", "134200.933000", "134200.936000", "134200.939000", "134200.942000", "134220.879000", "134220.882000", "134220.885000", "134220.888000", "134220.892000", "134220.895000", "134220.898000", "134220.902000", "134220.905000", "134220.908000", "134220.911000", "134220.914000", "134220.917000", "134220.920000", "134220.923000", "134220.926000", "134220.929000", "134220.932000", "134220.949000", "134220.952000", "134240.879000", "134240.882000", "134240.885000", "134240.888000", "134240.891000", "134240.894000", "134240.898000", "134240.901000", "134240.903000", "134240.906000", "134240.910000", "134240.913000", "134240.916000", "134240.919000", "134240.922000", "134240.925000", "134240.928000", "134240.931000", "134240.934000", "134240.937000", "134240.940000", "134320.880000", "134320.883000", "134320.886000", "134320.890000", "134320.893000", "134320.896000", "134320.899000", "134320.902000", "134320.905000", "134320.908000", "134320.911000", "134320.914000", "134320.917000", "134320.920000", "134320.923000", "134320.926000", "134320.929000", "134320.932000", "134320.935000", "134320.938000", "134320.941000", "134320.964000", "134320.967000", "134320.970000", "134320.973000", "134320.976000", "134320.979000", "134320.982000", "134320.985000", "134320.988000", "134400.880000", "134400.883000", "134400.886000", "134400.889000", "134400.892000", "134400.896000", "134400.899000", "134400.902000", "134400.905000", "134400.908000", "134400.911000", "134400.914000", "134400.917000", "134400.920000", "134400.923000", "134400.926000", "134400.929000", "134400.932000", "134400.935000", "134400.938000", "134400.941000", "134400.944000", "134400.947000", "134400.950000", "134400.953000", "134400.956000", "134400.959000", "134403.346000", "134403.350000"],
      "InstanceNumber": [1, 2, 3, 4, 5, 6, 7, 8, 9, 10, 11, 12, 13, 14, 15, 16, 17, 18, 19, 20, 21, 22, 23, 24, 25, 26, 27, 28, 29, 30, 31, 32, 33, 34, 35, 36, 37, 38, 39, 40, 41, 42, 43, 44, 45, 46, 47, 48, 49, 50, 51, 52, 53, 54, 55, 56, 57, 58, 59, 60, 61, 62, 63, 64, 65, 66, 67, 68, 69, 70, 71, 72, 73, 74, 75, 76, 77, 78, 79, 80, 81, 82, 83, 84, 85, 86, 87, 88, 89, 90, 91, 92, 93, 94, 95, 96, 97, 98, 99, 100, 101, 102, 103, 104, 105, 106, 107, 108, 109, 110, 111, 112, 113, 114, 115, 116, 117, 118, 119, 120, 121, 122, 123, 124, 125, 126, 127, 128, 129, 130, 131, 132, 133, 134, 135, 136, 137, 138, 139, 140, 141, 142, 143, 144, 145, 146, 147, 148, 149, 150, 151, 152, 153, 154, 155, 156, 157, 158, 159],
      "LargestImagePixelValue": [42341, 41412, 41056, 40564, 40851, 40061, 39939, 39745, 39849, 40173, 39919, 39682, 39725, 39820, 39298, 39784, 39806, 40520, 40594, 40163, 40752, 40837, 40297, 40847, 40425, 40309, 40059, 40196, 40957, 40339, 40498, 40655, 40317, 40107, 40819, 40068, 41149, 40487, 40564, 40482, 40402, 40350, 40054, 40350, 40540, 39702, 40631, 40087, 40051, 40728, 40605, 40056, 40205, 40458, 40039, 40102, 40213, 40204, 40192, 39841, 39913, 40334, 40912, 40371, 40159, 39991, 40189, 39741, 40096, 40016, 40333, 40484, 40410, 39901, 39879, 40041, 40551, 40673, 40675, 40025, 40715, 40196, 40235, 40535, 41370, 40964, 40161, 40471, 40612, 40651, 39997, 40944, 39993, 39695, 40150, 40490, 40316, 40005, 40325, 40444, 40590, 40225, 40001, 40290, 40068, 40343, 40219, 40011, 39869, 40216, 40711, 40246, 39792, 40564, 40205, 40569, 39998, 40132, 40028, 40108, 40202, 39849, 40035, 39735, 40135, 40360, 40754, 40896, 40164, 40028, 39693, 40288, 40826, 40901, 40604, 40161, 39666, 40441, 40051, 40152, 39650, 39934, 39893, 39966, 39966, 40579, 40257, 39868, 40230, 40289, 40688, 40336, 40279, 40232, 40298, 40649, 40499, 40369, 40276],
      "WindowCenter": [9960.0, 9921.0, 9897.0, 9898.0, 9911.0, 9897.0, 9886.0, 9863.0, 9860.0, 9863.0, 9865.0, 9867.0, 9867.0, 9867.0, 9866.0, 9866.0, 9875.0, 9879.0, 9892.0, 9899.0, 9914.0, 9916.0, 9912.0, 9909.0, 9892.0, 9877.0, 9875.0, 9883.0, 9896.0, 9885.0, 9890.0, 9890.0, 9892.0, 9899.0, 9905.0, 9893.0, 9905.0, 9910.0, 9900.0, 9883.0, 9867.0, 9849.0, 9847.0, 9845.0, 9854.0, 9848.0, 9865.0, 9864.0, 9866.0, 9878.0, 9881.0, 9901.0, 9918.0, 9930.0, 9917.0, 9901.0, 9889.0, 9879.0, 9876.0, 9876.0, 9886.0, 9891.0, 9893.0, 9886.0, 9885.0, 9872.0, 9876.0, 9873.0, 9886.0, 9893.0, 9886.0, 9885.0, 9877.0, 9870.0, 9862.0, 9859.0, 9864.0, 9865.0, 9881.0, 9884.0, 9884.0, 9885.0, 9887.0, 9885.0, 9897.0, 9891.0, 9852.0, 9831.0, 9812.0, 9794.0, 9776.0, 9796.0, 9809.0, 9816.0, 9832.0, 9840.0, 9849.0, 9859.0, 9877.0, 9877.0, 9862.0, 9859.0, 9850.0, 9867.0, 9869.0, 9876.0, 9869.0, 9861.0, 9868.0, 9868.0, 9885.0, 9887.0, 9881.0, 9884.0, 9876.0, 9881.0, 9878.0, 9878.0, 9877.0, 9869.0, 9876.0, 9876.0, 9871.0, 9870.0, 9871.0, 9883.0, 9881.0, 9881.0, 9867.0, 9851.0, 9826.0, 9795.0, 9772.0, 9769.0, 9780.0, 9792.0, 9787.0, 9810.0, 9824.0, 9842.0, 9845.0, 9850.0, 9850.0, 9859.0, 9868.0, 9882.0, 9870.0, 9861.0, 9860.0, 9867.0, 9882.0, 9886.0, 9901.0, 9911.0, 9905.0, 9903.0, 9894.0, 9878.0, 9863.0],
      "WindowWidth": [21298.0, 21186.0, 21116.0, 21111.0, 21128.0, 21096.0, 21069.0, 21017.0, 21009.0, 21012.0, 21019.0, 21027.0, 21026.0, 21025.0, 21022.0, 21022.0, 21044.0, 21049.0, 21080.0, 21096.0, 21127.0, 21130.0, 21124.0, 21115.0, 21077.0, 21047.0, 21041.0, 21061.0, 21087.0, 21066.0, 21076.0, 21077.0, 21080.0, 21095.0, 21106.0, 21083.0, 21107.0, 21121.0, 21098.0, 21059.0, 21023.0, 20984.0, 20977.0, 20974.0, 20993.0, 20986.0, 21021.0, 21017.0, 21021.0, 21046.0, 21056.0, 21102.0, 21141.0, 21172.0, 21144.0, 21110.0, 21076.0, 21051.0, 21042.0, 21044.0, 21067.0, 21075.0, 21081.0, 21066.0, 21064.0, 21040.0, 21043.0, 21041.0, 21068.0, 21082.0, 21064.0, 21062.0, 21045.0, 21031.0, 21015.0, 21006.0, 21016.0, 21021.0, 21055.0, 21066.0, 21065.0, 21069.0, 21073.0, 21066.0, 21086.0, 21076.0, 20990.0, 20941.0, 20897.0, 20855.0, 20819.0, 20857.0, 20891.0, 20912.0, 20945.0, 20961.0, 20984.0, 21008.0, 21046.0, 21045.0, 21013.0, 21005.0, 20987.0, 21026.0, 21030.0, 21042.0, 21028.0, 21013.0, 21027.0, 21029.0, 21065.0, 21072.0, 21057.0, 21060.0, 21044.0, 21054.0, 21053.0, 21052.0, 21049.0, 21030.0, 21044.0, 21046.0, 21033.0, 21035.0, 21036.0, 21061.0, 21056.0, 21053.0, 21026.0, 20992.0, 20936.0, 20860.0, 20803.0, 20794.0, 20823.0, 20855.0, 20849.0, 20894.0, 20929.0, 20970.0, 20977.0, 20986.0, 20986.0, 21006.0, 21027.0, 21060.0, 21033.0, 21014.0, 21012.0, 21027.0, 21055.0, 21070.0, 21099.0, 21123.0, 21112.0, 21103.0, 21084.0, 21049.0, 21017.0]
    },
    "slices": {}
  }
}