{
  "AcquisitionMatrixPE": 104,
  "AcquisitionNumber": 1,
  "AcquisitionTime": "13:17:51.937500",
  "BandwidthPerPixelPhaseEncode": 17.17,
  "BaseResolution": 104,
  "BodyPartExamined": "BRAIN",
  "CoilString": "HC1-7;NC1_2",
  "ConsistencyInfo": "N4_VE11C_LATEST_20160120",
  "ConversionSoftware": "dcm2niix",
  "ConversionSoftwareVersion": "v1.0.20190902",
  "DerivedVendorReportedEchoSpacing": 0.000560011,
  "DeviceSerialNumber": "167006",
  "DwellTime": 2.1e-06,
  "EchoTime": 0.037,
  "EchoTrainLength": 104,
  "EffectiveEchoSpacing": 0.000560011,
  "FlipAngle": 52,
  "ImageComments": "Unaliased_MB4_PE3_LB",
  "ImageOrientationPatientDICOM": [0.998679, 0.00449429, -0.0511778, -0.0170833, 0.96853, -0.248309],
  "ImageType": [
    "ORIGINAL",
    "PRIMARY",
    "M",
    "MB",
    "ND",
    "MOSAIC"
],
  "ImagingFrequency": 123.259,
  "InPlanePhaseEncodingDirectionDICOM": "COL",
  "InstitutionAddress": "Chemin_Queen-Mary_4565_Montreal_District_CA_H3W_1W5",
  "InstitutionName": "IUGM",
  "InstitutionalDepartmentName": "Department",
  "MRAcquisitionType": "2D",
  "MagneticFieldStrength": 3,
  "Manufacturer": "Siemens",
  "ManufacturersModelName": "Prisma_fit",
  "Modality": "MR",
  "MultibandAccelerationFactor": 4,
  "PartialFourier": 1,
  "PatientPosition": "HFS",
  "PercentPhaseFOV": 100,
  "PhaseEncodingDirection": "j",
  "PhaseEncodingSteps": 104,
  "PhaseResolution": 1,
  "PixelBandwidth": 2290,
  "ProcedureStepDescription": "hcptrt_generic",
  "ProtocolName": "func_task-restingstate_run-1",
  "PulseSequenceDetails": "%CustomerSeq%_cmrr_mbep2d_bold",
  "ReceiveCoilActiveElements": "HC1-7;NC1,2",
  "ReceiveCoilName": "HeadNeck_64",
  "ReconMatrixPE": 104,
  "RepetitionTime": 1.49,
  "SAR": 0.028065,
  "ScanOptions": "FS",
  "ScanningSequence": "EP",
  "SequenceName": "epfid2d1_104",
  "SequenceVariant": "SK_SS",
  "SeriesDescription": "func_task-restingstate_run-1",
  "SeriesNumber": 9,
  "ShimSetting": [598, -7259, -8851, 591, -62, -351, 0, 65],
  "SliceThickness": 2,
  "SliceTiming": [0, 0.7825, 0.0975, 0.88, 0.195, 0.98, 0.2925, 1.0775, 0.39, 1.175, 0.49, 1.2725, 0.5875, 1.37, 0.685, 0, 0.7825, 0.0975, 0.88, 0.195, 0.98, 0.2925, 1.0775, 0.39, 1.175, 0.49, 1.2725, 0.5875, 1.37, 0.685, 0, 0.7825, 0.0975, 0.88, 0.195, 0.98, 0.2925, 1.0775, 0.39, 1.175, 0.49, 1.2725, 0.5875, 1.37, 0.685, 0, 0.7825, 0.0975, 0.88, 0.195, 0.98, 0.2925, 1.0775, 0.39, 1.175, 0.49, 1.2725, 0.5875, 1.37, 0.685],
  "SoftwareVersions": "syngo_MR_E11",
  "SpacingBetweenSlices": 2,
  "StationName": "MRC35049",
  "TaskName": "restingstate",
  "TotalReadoutTime": 0.0576811,
  "TxRefAmp": 215.796,
  "WipMemBlock": "371d6f21-b5ea-4f31-bf0b-e0ed2d719f56||Sequence: R016 ve11c/master r/e634e98; Dec 19 2017 11:00:25 by eja",
  "dcmmeta_affine": [
    [-1.9973589181900024, -0.03416663780808449, -0.09690257161855698, 107.78668975830078],
    [-0.008988580666482449, 1.9370604753494263, -0.4977104663848877, -71.36067199707031],
    [-0.10235561430454254, 0.49661770462989807, 1.9346561431884766, -56.30622863769531],
    [0.0, 0.0, 0.0, 1.0]
],
  "dcmmeta_reorient_transform": [
    [0.0, -1.0, 0.0, 103.0],
    [1.0, 0.0, 0.0, 0.0],
    [0.0, 0.0, 1.0, 0.0],
    [0.0, 0.0, 0.0, 1.0]
],
  "dcmmeta_shape": [104, 104, 60, 600],
  "dcmmeta_slice_dim": 2,
  "dcmmeta_version": 0.6,
  "global": {
    "const": {
      "AcquisitionMatrix": [104, 0, 0, 104],
      "AngioFlag": "N",
      "BitsAllocated": 16,
      "BitsStored": 16,
      "BodyPartExamined": "BRAIN",
      "Columns": 832,
      "EchoNumbers": 1,
      "EchoTime": 37.0,
      "EchoTrainLength": 104,
      "FlipAngle": 52.0,
      "HighBit": 15,
      "ImageOrientationPatient": [0.99867944468878, 0.00449429053467, -0.0511778087525, -0.0170833185226, 0.96853026648001, -0.248308846279],
      "ImagePositionPatient": [-818.86950720744, -836.51843705145, 212.87167704608],
      "ImageType": [
        "ORIGINAL",
        "PRIMARY",
        "M",
        "MB",
        "ND",
        "MOSAIC"
],
      "ImagedNucleus": "1H",
      "ImagingFrequency": 123.259375,
      "InPlanePhaseEncodingDirection": "COL",
      "MRAcquisitionType": "2D",
      "MagneticFieldStrength": 3.0,
      "Manufacturer": "SIEMENS",
      "ManufacturerModelName": "Prisma_fit",
      "Modality": "MR",
      "NumberOfAverages": 1.0,
      "NumberOfPhaseEncodingSteps": 104,
      "PercentPhaseFieldOfView": 100.0,
      "PercentSampling": 100.0,
      "PerformedProcedureStepStartTime": "130032.700000",
      "PhotometricInterpretation": "MONOCHROME2",
      "PixelBandwidth": 2290.0,
      "PixelRepresentation": 0,
      "PixelSpacing": [2.0, 2.0],
      "ProtocolName": "func_task-restingstate_run-1",
      "RepetitionTime": 1490.0,
      "Rows": 832,
      "SAR": 0.02806499935149,
      "SamplesPerPixel": 1,
      "ScanOptions": "FS",
      "ScanningSequence": "EP",
      "SequenceName": "epfid2d1_104",
      "SequenceVariant": [
        "SK",
        "SS"
],
      "SeriesDescription": "func_task-restingstate_run-1",
      "SeriesNumber": 9,
      "SeriesTime": "131905.666000",
      "SliceLocation": -41.930522139708,
      "SliceThickness": 2.0,
      "SmallestImagePixelValue": 0,
      "SoftwareVersions": "syngo MR E11",
      "SpacingBetweenSlices": 2.0000000180323,
      "SpecificCharacterSet": "ISO_IR 100",
      "StudyID": "1",
      "StudyTime": "130032.566000",
      "TransmitCoilName": "Body",
      "VariableFlipAngleFlag": "N",
      "WindowCenterWidthExplanation": "Algo1",
      "dBdt": 0.0},
    "slices": {}
  },
  "time": {
    "samples": {
      "AcquisitionNumber": [1, 2, 3, 4, 5, 6, 7, 8, 9, 10, 11, 12, 13, 14, 15, 16, 17, 18, 19, 20, 21, 22, 23, 24, 25, 26, 27, 28, 29, 30, 31, 32, 33, 34, 35, 36, 37, 38, 39, 40, 41, 42, 43, 44, 45, 46, 47, 48, 49, 50, 51, 52, 53, 54, 55, 56, 57, 58, 59, 60, 61, 62, 63, 64, 65, 66, 67, 68, 69, 70, 71, 72, 73, 74, 75, 76, 77, 78, 79, 80, 81, 82, 83, 84, 85, 86, 87, 88, 89, 90, 91, 92, 93, 94, 95, 96, 97, 98, 99, 100, 101, 102, 103, 104, 105, 106, 107, 108, 109, 110, 111, 112, 113, 114, 115, 116, 117, 118, 119, 120, 121, 122, 123, 124, 125, 126, 127, 128, 129, 130, 131, 132, 133, 134, 135, 136, 137, 138, 139, 140, 141, 142, 143, 144, 145, 146, 147, 148, 149, 150, 151, 152, 153, 154, 155, 156, 157, 158, 159, 160, 161, 162, 163, 164, 165, 166, 167, 168, 169, 170, 171, 172, 173, 174, 175, 176, 177, 178, 179, 180, 181, 182, 183, 184, 185, 186, 187, 188, 189, 190, 191, 192, 193, 194, 195, 196, 197, 198, 199, 200, 201, 202, 203, 204, 205, 206, 207, 208, 209, 210, 211, 212, 213, 214, 215, 216, 217, 218, 219, 220, 221, 222, 223, 224, 225, 226, 227, 228, 229, 230, 231, 232, 233, 234, 235, 236, 237, 238, 239, 240, 241, 242, 243, 244, 245, 246, 247, 248, 249, 250, 251, 252, 253, 254, 255, 256, 257, 258, 259, 260, 261, 262, 263, 264, 265, 266, 267, 268, 269, 270, 271, 272, 273, 274, 275, 276, 277, 278, 279, 280, 281, 282, 283, 284, 285, 286, 287, 288, 289, 290, 291, 292, 293, 294, 295, 296, 297, 298, 299, 300, 301, 302, 303, 304, 305, 306, 307, 308, 309, 310, 311, 312, 313, 314, 315, 316, 317, 318, 319, 320, 321, 322, 323, 324, 325, 326, 327, 328, 329, 330, 331, 332, 333, 334, 335, 336, 337, 338, 339, 340, 341, 342, 343, 344, 345, 346, 347, 348, 349, 350, 351, 352, 353, 354, 355, 356, 357, 358, 359, 360, 361, 362, 363, 364, 365, 366, 367, 368, 369, 370, 371, 372, 373, 374, 375, 376, 377, 378, 379, 380, 381, 382, 383, 384, 385, 386, 387, 388, 389, 390, 391, 392, 393, 394, 395, 396, 397, 398, 399, 400, 401, 402, 403, 404, 405, 406, 407, 408, 409, 410, 411, 412, 413, 414, 415, 416, 417, 418, 419, 420, 421, 422, 423, 424, 425, 426, 427, 428, 429, 430, 431, 432, 433, 434, 435, 436, 437, 438, 439, 440, 441, 442, 443, 444, 445, 446, 447, 448, 449, 450, 451, 452, 453, 454, 455, 456, 457, 458, 459, 460, 461, 462, 463, 464, 465, 466, 467, 468, 469, 470, 471, 472, 473, 474, 475, 476, 477, 478, 479, 480, 481, 482, 483, 484, 485, 486, 487, 488, 489, 490, 491, 492, 493, 494, 495, 496, 497, 498, 499, 500, 501, 502, 503, 504, 505, 506, 507, 508, 509, 510, 511, 512, 513, 514, 515, 516, 517, 518, 519, 520, 521, 522, 523, 524, 525, 526, 527, 528, 529, 530, 531, 532, 533, 534, 535, 536, 537, 538, 539, 540, 541, 542, 543, 544, 545, 546, 547, 548, 549, 550, 551, 552, 553, 554, 555, 556, 557, 558, 559, 560, 561, 562, 563, 564, 565, 566, 567, 568, 569, 570, 571, 572, 573, 574, 575, 576, 577, 578, 579, 580, 581, 582, 583, 584, 585, 586, 587, 588, 589, 590, 591, 592, 593, 594, 595, 596, 597, 598, 599, 600],
      "AcquisitionTime": ["131751.937500", "131753.427500", "131754.917500", "131756.407500", "131757.897500", "131759.387500", "131800.877500", "131802.367500", "131803.857500", "131805.347500", "131806.837500", "131808.327500", "131809.817500", "131811.307500", "131812.797500", "131814.287500", "131815.777500", "131817.267500", "131818.757500", "131820.247500", "131821.737500", "131823.227500", "131824.717500", "131826.207500", "131827.697500", "131829.187500", "131830.677500", "131832.167500", "131833.657500", "131835.147500", "131836.637500", "131838.127500", "131839.617500", "131841.107500", "131842.597500", "131844.087500", "131845.577500", "131847.067500", "131848.557500", "131850.047500", "131851.537500", "131853.027500", "131854.517500", "131856.007500", "131857.497500", "131858.987500", "131900.477500", "131901.967500", "131903.457500", "131904.947500", "131906.437500", "131907.927500", "131909.417500", "131910.907500", "131912.397500", "131913.887500", "131915.377500", "131916.867500", "131918.357500", "131919.847500", "131921.337500", "131922.827500", "131924.317500", "131925.807500", "131927.297500", "131928.787500", "131930.277500", "131931.767500", "131933.257500", "131934.747500", "131936.237500", "131937.727500", "131939.217500", "131940.707500", "131942.197500", "131943.687500", "131945.177500", "131946.667500", "131948.157500", "131949.647500", "131951.137500", "131952.627500", "131954.117500", "131955.607500", "131957.097500", "131958.587500", "132000.077500", "132001.567500", "132003.057500", "132004.547500", "132006.037500", "132007.527500", "132009.017500", "132010.507500", "132011.997500", "132013.487500", "132014.977500", "132016.467500", "132017.957500", "132019.447500", "132020.937500", "132022.427500", "132023.917500", "132025.407500", "132026.897500", "132028.387500", "132029.877500", "132031.367500", "132032.857500", "132034.347500", "132035.837500", "132037.327500", "132038.817500", "132040.307500", "132041.797500", "132043.287500", "132044.777500", "132046.267500", "132047.757500", "132049.247500", "132050.737500", "132052.227500", "132053.717500", "132055.207500", "132056.697500", "132058.187500", "132059.677500", "132101.167500", "132102.657500", "132104.147500", "132105.637500", "132107.127500", "132108.617500", "132110.107500", "132111.597500", "132113.087500", "132114.577500", "132116.067500", "132117.557500", "132119.047500", "132120.537500", "132122.027500", "132123.517500", "132125.007500", "132126.497500", "132127.987500", "132129.477500", "132130.967500", "132132.457500", "132133.947500", "132135.437500", "132136.927500", "132138.417500", "132139.907500", "132141.397500", "132142.887500", "132144.377500", "132145.867500", "132147.357500", "132148.847500", "132150.337500", "132151.827500", "132153.317500", "132154.807500", "132156.297500", "132157.787500", "132159.277500", "132200.767500", "132202.257500", "132203.747500", "132205.237500", "132206.727500", "132208.217500", "132209.707500", "132211.197500", "132212.687500", "132214.177500", "132215.667500", "132217.157500", "132218.647500", "132220.137500", "132221.627500", "132223.117500", "132224.607500", "132226.097500", "132227.587500", "132229.077500", "132230.567500", "132232.057500", "132233.547500", "132235.037500", "132236.527500", "132238.017500", "132239.507500", "132240.997500", "132242.487500", "132243.977500", "132245.467500", "132246.957500", "132248.447500", "132249.937500", "132251.427500", "132252.917500", "132254.407500", "132255.897500", "132257.387500", "132258.877500", "132300.367500", "132301.857500", "132303.347500", "132304.837500", "132306.327500", "132307.817500", "132309.307500", "132310.797500", "132312.287500", "132313.777500", "132315.267500", "132316.757500", "132318.247500", "132319.737500", "132321.227500", "132322.717500", "132324.207500", "132325.697500", "132327.187500", "132328.677500", "132330.167500", "132331.657500", "132333.147500", "132334.637500", "132336.127500", "132337.617500", "132339.107500", "132340.597500", "132342.087500", "132343.577500", "132345.067500", "132346.557500", "132348.047500", "132349.537500", "132351.027500", "132352.517500", "132354.007500", "132355.497500", "132356.987500", "132358.477500", "132359.967500", "132401.457500", "132402.947500", "132404.437500", "132405.927500", "132407.417500", "132408.907500", "132410.397500", "132411.887500", "132413.377500", "132414.867500", "132416.357500", "132417.847500", "132419.337500", "132420.827500", "132422.317500", "132423.807500", "132425.297500", "132426.787500", "132428.277500", "132429.767500", "132431.257500", "132432.747500", "132434.237500", "132435.727500", "132437.217500", "132438.707500", "132440.197500", "132441.687500", "132443.177500", "132444.667500", "132446.157500", "132447.647500", "132449.137500", "132450.627500", "132452.117500", "132453.607500", "132455.097500", "132456.587500", "132458.077500", "132459.567500", "132501.057500", "132502.547500", "132504.037500", "132505.527500", "132507.017500", "132508.507500", "132509.997500", "132511.487500", "132512.977500", "132514.467500", "132515.957500", "132517.447500", "132518.937500", "132520.427500", "132521.917500", "132523.407500", "132524.897500", "132526.387500", "132527.877500", "132529.367500", "132530.857500", "132532.347500", "132533.837500", "132535.327500", "132536.817500", "132538.307500", "132539.797500", "132541.287500", "132542.777500", "132544.267500", "132545.757500", "132547.247500", "132548.737500", "132550.227500", "132551.717500", "132553.207500", "132554.697500", "132556.187500", "132557.677500", "132559.167500", "132600.657500", "132602.147500", "132603.637500", "132605.127500", "132606.617500", "132608.107500", "132609.597500", "132611.087500", "132612.577500", "132614.067500", "132615.557500", "132617.047500", "132618.537500", "132620.027500", "132621.517500", "132623.007500", "132624.497500", "132625.987500", "132627.477500", "132628.967500", "132630.457500", "132631.947500", "132633.437500", "132634.927500", "132636.417500", "132637.907500", "132639.397500", "132640.887500", "132642.377500", "132643.867500", "132645.357500", "132646.847500", "132648.337500", "132649.827500", "132651.317500", "132652.807500", "132654.297500", "132655.787500", "132657.277500", "132658.767500", "132700.257500", "132701.747500", "132703.237500", "132704.727500", "132706.217500", "132707.707500", "132709.197500", "132710.687500", "132712.177500", "132713.667500", "132715.157500", "132716.647500", "132718.137500", "132719.627500", "132721.117500", "132722.607500", "132724.097500", "132725.587500", "132727.077500", "132728.567500", "132730.057500", "132731.547500", "132733.037500", "132734.527500", "132736.017500", "132737.507500", "132738.997500", "132740.487500", "132741.977500", "132743.467500", "132744.957500", "132746.447500", "132747.937500", "132749.427500", "132750.917500", "132752.407500", "132753.897500", "132755.387500", "132756.877500", "132758.367500", "132759.857500", "132801.347500", "132802.837500", "132804.327500", "132805.817500", "132807.307500", "132808.797500", "132810.287500", "132811.777500", "132813.267500", "132814.757500", "132816.247500", "132817.737500", "132819.227500", "132820.717500", "132822.207500", "132823.697500", "132825.187500", "132826.677500", "132828.167500", "132829.657500", "132831.147500", "132832.637500", "132834.127500", "132835.617500", "132837.107500", "132838.597500", "132840.087500", "132841.577500", "132843.067500", "132844.557500", "132846.047500", "132847.537500", "132849.027500", "132850.517500", "132852.007500", "132853.497500", "132854.987500", "132856.477500", "132857.967500", "132859.457500", "132900.947500", "132902.437500", "132903.927500", "132905.417500", "132906.907500", "132908.397500", "132909.887500", "132911.377500", "132912.867500", "132914.357500", "132915.847500", "132917.337500", "132918.827500", "132920.317500", "132921.807500", "132923.297500", "132924.787500", "132926.277500", "132927.767500", "132929.257500", "132930.747500", "132932.237500", "132933.727500", "132935.217500", "132936.707500", "132938.197500", "132939.687500", "132941.177500", "132942.667500", "132944.157500", "132945.647500", "132947.137500", "132948.627500", "132950.117500", "132951.607500", "132953.097500", "132954.587500", "132956.077500", "132957.567500", "132959.057500", "133000.547500", "133002.037500", "133003.527500", "133005.017500", "133006.507500", "133007.997500", "133009.487500", "133010.977500", "133012.467500", "133013.957500", "133015.447500", "133016.937500", "133018.427500", "133019.917500", "133021.407500", "133022.897500", "133024.387500", "133025.877500", "133027.367500", "133028.857500", "133030.347500", "133031.837500", "133033.327500", "133034.817500", "133036.307500", "133037.797500", "133039.287500", "133040.777500", "133042.267500", "133043.757500", "133045.247500", "133046.737500", "133048.227500", "133049.717500", "133051.207500", "133052.697500", "133054.187500", "133055.677500", "133057.167500", "133058.657500", "133100.147500", "133101.637500", "133103.127500", "133104.617500", "133106.107500", "133107.597500", "133109.087500", "133110.577500", "133112.067500", "133113.557500", "133115.047500", "133116.537500", "133118.027500", "133119.517500", "133121.007500", "133122.497500", "133123.987500", "133125.477500", "133126.967500", "133128.457500", "133129.947500", "133131.437500", "133132.927500", "133134.417500", "133135.907500", "133137.397500", "133138.887500", "133140.377500", "133141.867500", "133143.357500", "133144.847500", "133146.337500", "133147.827500", "133149.317500", "133150.807500", "133152.297500", "133153.787500", "133155.277500", "133156.767500", "133158.257500", "133159.747500", "133201.237500", "133202.727500", "133204.217500", "133205.707500", "133207.197500", "133208.687500", "133210.177500", "133211.667500", "133213.157500", "133214.647500", "133216.137500", "133217.627500", "133219.117500", "133220.607500", "133222.097500", "133223.587500", "133225.077500", "133226.567500", "133228.057500", "133229.547500", "133231.037500", "133232.527500", "133234.017500", "133235.507500", "133236.997500", "133238.487500", "133239.977500", "133241.467500", "133242.957500", "133244.447500"],
      "ContentTime": ["131905.669000", "131905.673000", "131905.676000", "131905.679000", "131905.682000", "131905.685000", "131905.688000", "131905.691000", "131905.694000", "131905.701000", "131905.704000", "131905.708000", "131905.711000", "131905.714000", "131905.717000", "131905.720000", "131905.723000", "131905.726000", "131905.729000", "131905.733000", "131925.638000", "131925.641000", "131925.644000", "131925.647000", "131925.650000", "131925.653000", "131925.657000", "131925.660000", "131925.663000", "131925.666000", "131925.670000", "131925.673000", "131925.676000", "131925.679000", "131925.682000", "131925.685000", "131925.688000", "131925.691000", "131925.694000", "131925.697000", "131945.639000", "131945.642000", "131945.645000", "131945.648000", "131945.651000", "131945.660000", "131945.663000", "131945.666000", "131945.669000", "131945.672000", "131945.675000", "131945.678000", "131945.681000", "131945.684000", "131945.687000", "131945.690000", "131945.693000", "131945.696000", "131945.700000", "131945.702000", "132005.639000", "132005.642000", "132005.645000", "132005.648000", "132005.662000", "132005.665000", "132005.668000", "132005.671000", "132005.674000", "132005.677000", "132005.680000", "132005.683000", "132005.686000", "132005.689000", "132005.692000", "132005.695000", "132005.698000", "132005.701000", "132005.705000", "132005.708000", "132025.638000", "132025.641000", "132025.644000", "132025.647000", "132025.650000", "132025.654000", "132025.657000", "132025.660000", "132025.663000", "132025.666000", "132025.669000", "132025.672000", "132025.676000", "132025.679000", "132025.682000", "132025.684000", "132025.688000", "132025.691000", "132025.694000", "132025.697000", "132025.700000", "132105.638000", "132105.641000", "132105.644000", "132105.648000", "132105.651000", "132105.654000", "132105.657000", "132105.660000", "132105.663000", "132105.666000", "132105.669000", "132105.672000", "132105.675000", "132105.678000", "132105.681000", "132105.684000", "132105.687000", "132105.690000", "132105.693000", "132105.696000", "132105.699000", "132105.702000", "132105.705000", "132105.708000", "132105.711000", "132105.714000", "132105.717000", "132105.720000", "132145.638000", "132145.641000", "132145.644000", "132145.647000", "132145.650000", "132145.654000", "132145.663000", "132145.666000", "132145.669000", "132145.673000", "132145.676000", "132145.679000", "132145.682000", "132145.685000", "132145.688000", "132145.691000", "132145.694000", "132145.697000", "132145.700000", "132145.703000", "132145.706000", "132145.709000", "132145.712000", "132145.715000", "132145.718000", "132145.721000", "132145.724000", "132225.639000", "132225.642000", "132225.645000", "132225.648000", "132225.651000", "132225.654000", "132225.657000", "132225.660000", "132225.664000", "132225.667000", "132225.670000", "132225.673000", "132225.676000", "132225.679000", "132225.682000", "132225.685000", "132225.688000", "132225.703000", "132225.706000", "132225.709000", "132225.712000", "132225.715000", "132225.718000", "132225.721000", "132225.724000", "132225.727000", "132225.730000", "132305.638000", "132305.643000", "132305.646000", "132305.649000", "132305.652000", "132305.655000", "132305.658000", "132305.661000", "132305.664000", "132305.667000", "132305.670000", "132305.673000", "132305.676000", "132305.679000", "132305.682000", "132305.686000", "132305.689000", "132305.692000", "132305.695000", "132305.698000", "132305.701000", "132305.704000", "132305.707000", "132305.710000", "132305.713000", "132305.716000", "132345.638000", "132345.641000", "132345.644000", "132345.647000", "132345.651000", "132345.654000", "132345.657000", "132345.660000", "132345.663000", "132345.666000", "132345.669000", "132345.672000", "132345.675000", "132345.678000", "132345.681000", "132345.684000", "132345.687000", "132345.690000", "132345.693000", "132345.696000", "132345.699000", "132345.702000", "132345.706000", "132345.709000", "132345.712000", "132345.715000", "132345.718000", "132425.639000", "132425.642000", "132425.645000", "132425.648000", "132425.651000", "132425.654000", "132425.657000", "132425.660000", "132425.663000", "132425.666000", "132425.670000", "132425.673000", "132425.676000", "132425.679000", "132425.682000", "132425.685000", "132425.688000", "132425.691000", "132425.694000", "132425.697000", "132425.700000", "132425.703000", "132425.706000", "132425.709000", "132425.727000", "132425.730000", "132425.733000", "132505.638000", "132505.641000", "132505.644000", "132505.647000", "132505.650000", "132505.653000", "132505.656000", "132505.660000", "132505.663000", "132505.666000", "132505.669000", "132505.672000", "132505.675000", "132505.678000", "132505.681000", "132505.684000", "132505.687000", "132505.690000", "132505.693000", "132505.696000", "132505.699000", "132505.702000", "132505.705000", "132505.709000", "132505.712000", "132505.715000", "132505.718000", "132545.638000", "132545.641000", "132545.645000", "132545.648000", "132545.651000", "132545.654000", "132545.657000", "132545.660000", "132545.663000", "132545.666000", "132545.669000", "132545.672000", "132545.675000", "132545.678000", "132545.682000", "132545.684000", "132545.687000", "132545.691000", "132545.694000", "132545.697000", "132545.700000", "132545.703000", "132545.706000", "132545.709000", "132545.712000", "132545.715000", "132545.718000", "132605.638000", "132605.642000", "132605.645000", "132605.648000", "132605.651000", "132605.654000", "132605.657000", "132605.660000", "132605.663000", "132605.666000", "132605.669000", "132605.672000", "132605.675000", "132645.639000", "132645.642000", "132645.646000", "132645.649000", "132645.652000", "132645.655000", "132645.658000", "132645.661000", "132645.664000", "132645.667000", "132645.670000", "132645.673000", "132645.676000", "132645.679000", "132645.682000", "132645.685000", "132645.688000", "132645.691000", "132645.695000", "132645.697000", "132645.700000", "132645.703000", "132645.707000", "132645.710000", "132645.713000", "132645.716000", "132645.719000", "132725.638000", "132725.642000", "132725.645000", "132725.648000", "132725.651000", "132725.654000", "132725.657000", "132725.660000", "132725.663000", "132725.666000", "132725.669000", "132725.672000", "132725.675000", "132725.678000", "132725.681000", "132725.684000", "132725.687000", "132725.690000", "132725.693000", "132725.697000", "132725.700000", "132725.703000", "132725.706000", "132725.709000", "132725.712000", "132725.715000", "132725.718000", "132805.638000", "132805.641000", "132805.644000", "132805.647000", "132805.651000", "132805.654000", "132805.657000", "132805.660000", "132805.663000", "132805.666000", "132805.669000", "132805.672000", "132805.675000", "132805.678000", "132805.681000", "132805.684000", "132805.687000", "132805.690000", "132805.693000", "132805.696000", "132805.699000", "132805.702000", "132805.705000", "132805.708000", "132805.712000", "132805.715000", "132805.718000", "132845.639000", "132845.642000", "132845.645000", "132845.649000", "132845.652000", "132845.655000", "132845.658000", "132845.661000", "132845.664000", "132845.667000", "132845.670000", "132845.673000", "132845.676000", "132845.679000", "132845.682000", "132845.685000", "132845.688000", "132845.691000", "132845.694000", "132845.698000", "132845.714000", "132845.717000", "132845.720000", "132845.723000", "132845.726000", "132845.729000", "132845.732000", "132925.639000", "132925.642000", "132925.650000", "132925.653000", "132925.656000", "132925.659000", "132925.662000", "132925.665000", "132925.668000", "132925.671000", "132925.675000", "132925.678000", "132925.681000", "132925.684000", "132925.687000", "132925.690000", "132925.693000", "132925.696000", "132925.699000", "132925.702000", "132925.705000", "132925.708000", "132925.711000", "132925.714000", "132925.717000", "132925.720000", "132925.723000", "133005.638000", "133005.641000", "133005.644000", "133005.648000", "133005.651000", "133005.654000", "133005.657000", "133005.660000", "133005.663000", "133005.666000", "133005.669000", "133005.672000", "133005.675000", "133005.678000", "133005.681000", "133005.684000", "133005.688000", "133005.691000", "133005.694000", "133005.698000", "133005.701000", "133005.704000", "133005.707000", "133005.710000", "133005.713000", "133005.716000", "133045.638000", "133045.641000", "133045.644000", "133045.648000", "133045.651000", "133045.654000", "133045.657000", "133045.660000", "133045.663000", "133045.666000", "133045.669000", "133045.672000", "133045.675000", "133045.678000", "133045.681000", "133045.684000", "133045.687000", "133045.690000", "133045.693000", "133045.697000", "133045.700000", "133045.703000", "133045.706000", "133045.709000", "133045.712000", "133045.715000", "133045.718000", "133125.639000", "133125.642000", "133125.646000", "133125.649000", "133125.652000", "133125.655000", "133125.658000", "133125.661000", "133125.664000", "133125.667000", "133125.670000", "133125.673000", "133125.676000", "133125.679000", "133125.683000", "133125.686000", "133125.689000", "133125.692000", "133125.695000", "133125.698000", "133125.701000", "133125.704000", "133125.707000", "133125.710000", "133125.713000", "133125.716000", "133125.720000", "133205.638000", "133205.642000", "133205.645000", "133205.648000", "133205.651000", "133205.654000", "133205.657000", "133205.660000", "133205.663000", "133205.667000", "133205.670000", "133205.673000", "133205.676000", "133205.679000", "133205.682000", "133205.685000", "133205.688000", "133205.691000", "133205.694000", "133205.697000", "133205.700000", "133205.703000", "133205.706000", "133205.709000", "133205.712000", "133205.715000", "133205.718000", "133245.638000", "133245.641000", "133245.644000", "133245.647000", "133245.651000", "133245.654000", "133245.657000", "133245.660000", "133245.663000", "133245.666000", "133245.669000", "133245.672000", "133245.675000", "133245.678000", "133245.681000", "133245.684000", "133245.688000", "133245.691000", "133245.694000", "133245.696000", "133245.700000", "133245.703000", "133245.706000", "133245.709000", "133245.712000", "133245.715000", "133245.718000", "133246.800000"],
