{
  "AcquisitionMatrixPE": 104,
  "AcquisitionNumber": 1,
  "AcquisitionTime": "13:54:18.922500",
  "BandwidthPerPixelPhaseEncode": 17.17,
  "BaseResolution": 104,
  "BodyPartExamined": "BRAIN",
  "CoilString": "HC1-7;NC1_2",
  "ConsistencyInfo": "N4_VE11C_LATEST_20160120",
  "ConversionSoftware": "dcm2niix",
  "ConversionSoftwareVersion": "v1.0.20190902",
  "DerivedVendorReportedEchoSpacing": 0.000560011,
  "DeviceSerialNumber": "167006",
  "DwellTime": 2.1e-06,
  "EchoTime": 0.037,
  "EchoTrainLength": 104,
  "EffectiveEchoSpacing": 0.000560011,
  "FlipAngle": 52,
  "ImageComments": "Unaliased_MB4_PE3_LB",
  "ImageOrientationPatientDICOM": [0.998679, 0.00449429, -0.0511778, -0.0170833, 0.96853, -0.248309],
  "ImageType": [
    "ORIGINAL",
    "PRIMARY",
    "M",
    "MB",
    "ND",
    "MOSAIC"
],
  "ImagingFrequency": 123.259,
  "InPlanePhaseEncodingDirectionDICOM": "COL",
  "InstitutionAddress": "Chemin_Queen-Mary_4565_Montreal_District_CA_H3W_1W5",
  "InstitutionName": "IUGM",
  "InstitutionalDepartmentName": "Department",
  "MRAcquisitionType": "2D",
  "MagneticFieldStrength": 3,
  "Manufacturer": "Siemens",
  "ManufacturersModelName": "Prisma_fit",
  "Modality": "MR",
  "MultibandAccelerationFactor": 4,
  "PartialFourier": 1,
  "PatientPosition": "HFS",
  "PercentPhaseFOV": 100,
  "PhaseEncodingDirection": "j",
  "PhaseEncodingSteps": 104,
  "PhaseResolution": 1,
  "PixelBandwidth": 2290,
  "ProcedureStepDescription": "hcptrt_generic",
  "ProtocolName": "func_task-wm_run-1",
  "PulseSequenceDetails": "%CustomerSeq%_cmrr_mbep2d_bold",
  "ReceiveCoilActiveElements": "HC1-7;NC1,2",
  "ReceiveCoilName": "HeadNeck_64",
  "ReconMatrixPE": 104,
  "RepetitionTime": 1.49,
  "SAR": 0.027886,
  "ScanOptions": "FS",
  "ScanningSequence": "EP",
  "SequenceName": "epfid2d1_104",
  "SequenceVariant": "SK_SS",
  "SeriesDescription": "func_task-wm_run-1",
  "SeriesNumber": 19,
  "ShimSetting": [598, -7259, -8851, 591, -62, -351, 0, 65],
  "SliceThickness": 2,
  "SliceTiming": [0, 0.785, 0.1, 0.8825, 0.1975, 0.98, 0.295, 1.08, 0.3925, 1.1775, 0.49, 1.275, 0.59, 1.3725, 0.6875, 0, 0.785, 0.1, 0.8825, 0.1975, 0.98, 0.295, 1.08, 0.3925, 1.1775, 0.49, 1.275, 0.59, 1.3725, 0.6875, 0, 0.785, 0.1, 0.8825, 0.1975, 0.98, 0.295, 1.08, 0.3925, 1.1775, 0.49, 1.275, 0.59, 1.3725, 0.6875, 0, 0.785, 0.1, 0.8825, 0.1975, 0.98, 0.295, 1.08, 0.3925, 1.1775, 0.49, 1.275, 0.59, 1.3725, 0.6875],
  "SoftwareVersions": "syngo_MR_E11",
  "SpacingBetweenSlices": 2,
  "StationName": "MRC35049",
  "TaskName": "wm",
  "TotalReadoutTime": 0.0576811,
  "TxRefAmp": 215.796,
  "WipMemBlock": "cc3eabd8-cf62-4aef-81ec-659a5812f510||Sequence: R016 ve11c/master r/e634e98; Dec 19 2017 11:00:25 by eja",
  "dcmmeta_affine": [
    [-1.9973589181900024, -0.03416663780808449, -0.09690257161855698, 107.78668975830078],
    [-0.008988580666482449, 1.9370604753494263, -0.4977104663848877, -71.36067199707031],
    [-0.10235561430454254, 0.49661770462989807, 1.9346561431884766, -56.30622863769531],
    [0.0, 0.0, 0.0, 1.0]
],
  "dcmmeta_reorient_transform": [
    [0.0, -1.0, 0.0, 103.0],
    [1.0, 0.0, 0.0, 0.0],
    [0.0, 0.0, 1.0, 0.0],
    [0.0, 0.0, 0.0, 1.0]
],
  "dcmmeta_shape": [104, 104, 60, 202],
  "dcmmeta_slice_dim": 2,
  "dcmmeta_version": 0.6,
  "global": {
    "const": {
      "AcquisitionMatrix": [104, 0, 0, 104],
      "AngioFlag": "N",
      "BitsAllocated": 16,
      "BitsStored": 16,
      "BodyPartExamined": "BRAIN",
      "Columns": 832,
      "EchoNumbers": 1,
      "EchoTime": 37.0,
      "EchoTrainLength": 104,
      "FlipAngle": 52.0,
      "HighBit": 15,
      "ImageOrientationPatient": [0.99867944468878, 0.00449429053467, -0.0511778087525, -0.0170833185226, 0.96853026648001, -0.248308846279],
      "ImagePositionPatient": [-818.86950720744, -836.51843705145, 212.87167704608],
      "ImageType": [
        "ORIGINAL",
        "PRIMARY",
        "M",
        "MB",
        "ND",
        "MOSAIC"
],
      "ImagedNucleus": "1H",
      "ImagingFrequency": 123.259395,
      "InPlanePhaseEncodingDirection": "COL",
      "MRAcquisitionType": "2D",
      "MagneticFieldStrength": 3.0,
      "Manufacturer": "SIEMENS",
      "ManufacturerModelName": "Prisma_fit",
      "Modality": "MR",
      "NumberOfAverages": 1.0,
      "NumberOfPhaseEncodingSteps": 104,
      "PercentPhaseFieldOfView": 100.0,
      "PercentSampling": 100.0,
      "PerformedProcedureStepStartTime": "130032.700000",
      "PhotometricInterpretation": "MONOCHROME2",
      "PixelBandwidth": 2290.0,
      "PixelRepresentation": 0,
      "PixelSpacing": [2.0, 2.0],
      "ProtocolName": "func_task-wm_run-1",
      "RepetitionTime": 1490.0,
      "Rows": 832,
      "SAR": 0.0278859989297,
      "SamplesPerPixel": 1,
      "ScanOptions": "FS",
      "ScanningSequence": "EP",
      "SequenceName": "epfid2d1_104",
      "SequenceVariant": [
        "SK",
        "SS"
],
      "SeriesDescription": "func_task-wm_run-1",
      "SeriesNumber": 19,
      "SeriesTime": "135540.907000",
      "SliceLocation": -41.930522139708,
      "SliceThickness": 2.0,
      "SmallestImagePixelValue": 0,
      "SoftwareVersions": "syngo MR E11",
      "SpacingBetweenSlices": 2.0000000180323,
      "SpecificCharacterSet": "ISO_IR 100",
      "StudyID": "1",
      "StudyTime": "130032.566000",
      "TransmitCoilName": "Body",
      "VariableFlipAngleFlag": "N",
      "WindowCenterWidthExplanation": "Algo1",
      "dBdt": 0.0},
    "slices": {}
  },
  "time": {
    "samples": {
      "AcquisitionNumber": [1, 2, 3, 4, 5, 6, 7, 8, 9, 10, 11, 12, 13, 14, 15, 16, 17, 18, 19, 20, 21, 22, 23, 24, 25, 26, 27, 28, 29, 30, 31, 32, 33, 34, 35, 36, 37, 38, 39, 40, 41, 42, 43, 44, 45, 46, 47, 48, 49, 50, 51, 52, 53, 54, 55, 56, 57, 58, 59, 60, 61, 62, 63, 64, 65, 66, 67, 68, 69, 70, 71, 72, 73, 74, 75, 76, 77, 78, 79, 80, 81, 82, 83, 84, 85, 86, 87, 88, 89, 90, 91, 92, 93, 94, 95, 96, 97, 98, 99, 100, 101, 102, 103, 104, 105, 106, 107, 108, 109, 110, 111, 112, 113, 114, 115, 116, 117, 118, 119, 120, 121, 122, 123, 124, 125, 126, 127, 128, 129, 130, 131, 132, 133, 134, 135, 136, 137, 138, 139, 140, 141, 142, 143, 144, 145, 146, 147, 148, 149, 150, 151, 152, 153, 154, 155, 156, 157, 158, 159, 160, 161, 162, 163, 164, 165, 166, 167, 168, 169, 170, 171, 172, 173, 174, 175, 176, 177, 178, 179, 180, 181, 182, 183, 184, 185, 186, 187, 188, 189, 190, 191, 192, 193, 194, 195, 196, 197, 198, 199, 200, 201, 202],
      "AcquisitionTime": ["135418.922500", "135420.412500", "135421.902500", "135423.392500", "135424.882500", "135426.372500", "135427.862500", "135429.352500", "135430.842500", "135432.332500", "135433.822500", "135435.312500", "135436.802500", "135438.292500", "135439.782500", "135441.272500", "135442.762500", "135444.252500", "135445.742500", "135447.232500", "135448.722500", "135450.212500", "135451.702500", "135453.192500", "135454.682500", "135456.172500", "135457.662500", "135459.152500", "135500.642500", "135502.132500", "135503.622500", "135505.112500", "135506.602500", "135508.092500", "135509.582500", "135511.072500", "135512.562500", "135514.052500", "135515.542500", "135517.032500", "135518.522500", "135520.012500", "135521.502500", "135522.992500", "135524.482500", "135525.972500", "135527.462500", "135528.952500", "135530.442500", "135531.932500", "135533.422500", "135534.912500", "135536.402500", "135537.892500", "135539.382500", "135540.872500", "135542.362500", "135543.852500", "135545.342500", "135546.832500", "135548.322500", "135549.812500", "135551.302500", "135552.792500", "135554.282500", "135555.772500", "135557.262500", "135558.752500", "135600.242500", "135601.732500", "135603.222500", "135604.712500", "135606.202500", "135607.692500", "135609.182500", "135610.672500", "135612.162500", "135613.652500", "135615.142500", "135616.632500", "135618.122500", "135619.612500", "135621.102500", "135622.592500", "135624.082500", "135625.572500", "135627.062500", "135628.552500", "135630.042500", "135631.532500", "135633.022500", "135634.512500", "135636.002500", "135637.492500", "135638.982500", "135640.472500", "135641.962500", "135643.452500", "135644.942500", "135646.432500", "135647.922500", "135649.412500", "135650.902500", "135652.392500", "135653.882500", "135655.372500", "135656.862500", "135658.352500", "135659.842500", "135701.332500", "135702.822500", "135704.312500", "135705.802500", "135707.292500", "135708.782500", "135710.272500", "135711.762500", "135713.252500", "135714.742500", "135716.232500", "135717.722500", "135719.212500", "135720.702500", "135722.192500", "135723.682500", "135725.172500", "135726.662500", "135728.152500", "135729.642500", "135731.132500", "135732.622500", "135734.112500", "135735.602500", "135737.092500", "135738.582500", "135740.072500", "135741.562500", "135743.052500", "135744.542500", "135746.032500", "135747.522500", "135749.012500", "135750.502500", "135751.992500", "135753.482500", "135754.972500", "135756.462500", "135757.952500", "135759.442500", "135800.932500", "135802.422500", "135803.912500", "135805.402500", "135806.892500", "135808.382500", "135809.872500", "135811.362500", "135812.852500", "135814.342500", "135815.832500", "135817.322500", "135818.812500", "135820.302500", "135821.792500", "135823.282500", "135824.772500", "135826.262500", "135827.752500", "135829.242500", "135830.732500", "135832.222500", "135833.712500", "135835.202500", "135836.692500", "135838.182500", "135839.672500", "135841.162500", "135842.652500", "135844.142500", "135845.632500", "135847.122500", "135848.612500", "135850.102500", "135851.592500", "135853.082500", "135854.572500", "135856.062500", "135857.552500", "135859.042500", "135900.532500", "135902.022500", "135903.512500", "135905.002500", "135906.492500", "135907.982500", "135909.472500", "135910.962500", "135912.452500", "135913.942500", "135915.432500", "135916.922500", "135918.412500"],
      "ContentTime": ["135540.910000", "135540.913000", "135540.916000", "135540.919000", "135540.922000", "135540.926000", "135540.929000", "135540.932000", "135540.935000", "135540.938000", "135540.941000", "135540.968000", "135540.971000", "135540.974000", "135540.977000", "135540.980000", "135540.983000", "135540.986000", "135540.989000", "135540.992000", "135540.995000", "135540.998000", "135541.002000", "135541.005000", "135541.008000", "135541.011000", "135541.014000", "135600.879000", "135600.882000", "135600.885000", "135600.888000", "135600.891000", "135600.895000", "135600.898000", "135600.906000", "135600.909000", "135600.912000", "135600.915000", "135600.919000", "135600.921000", "135600.925000", "135600.928000", "135600.931000", "135600.934000", "135600.937000", "135600.940000", "135600.943000", "135620.879000", "135620.882000", "135620.885000", "135620.888000", "135620.891000", "135620.894000", "135620.897000", "135620.900000", "135620.903000", "135620.907000", "135620.910000", "135620.913000", "135620.916000", "135620.919000", "135620.922000", "135620.925000", "135620.928000", "135620.931000", "135620.934000", "135620.937000", "135640.879000", "135640.882000", "135640.886000", "135640.889000", "135640.892000", "135640.895000", "135640.898000", "135640.901000", "135640.904000", "135640.907000", "135640.910000", "135640.913000", "135640.916000", "135640.919000", "135640.922000", "135640.925000", "135640.928000", "135640.931000", "135640.934000", "135640.937000", "135700.879000", "135700.882000", "135700.885000", "135700.888000", "135700.891000", "135700.894000", "135700.897000", "135700.900000", "135700.903000", "135700.907000", "135700.910000", "135700.913000", "135700.915000", "135700.919000", "135700.922000", "135700.925000", "135700.928000", "135700.931000", "135700.934000", "135700.937000", "135740.880000", "135740.883000", "135740.886000", "135740.889000", "135740.892000", "135740.896000", "135740.899000", "135740.902000", "135740.905000", "135740.908000", "135740.911000", "135740.914000", "135740.917000", "135740.920000", "135740.923000", "135740.926000", "135740.929000", "135740.932000", "135740.935000", "135740.938000", "135740.941000", "135740.944000", "135740.947000", "135740.950000", "135740.953000", "135740.957000", "135740.960000", "135740.963000", "135820.879000", "135820.882000", "135820.885000", "135820.888000", "135820.891000", "135820.894000", "135820.897000", "135820.901000", "135820.904000", "135820.907000", "135820.910000", "135820.913000", "135820.916000", "135820.919000", "135820.922000", "135820.925000", "135820.928000", "135820.931000", "135820.934000", "135820.937000", "135820.940000", "135820.943000", "135820.946000", "135820.949000", "135820.952000", "135820.955000", "135820.958000", "135900.879000", "135900.882000", "135900.885000", "135900.889000", "135900.893000", "135900.896000", "135900.899000", "135900.902000", "135900.905000", "135900.908000", "135900.911000", "135900.914000", "135900.917000", "135900.920000", "135900.923000", "135900.926000", "135900.929000", "135900.940000", "135900.944000", "135900.947000", "135900.950000", "135900.953000", "135900.956000", "135900.959000", "135900.962000", "135900.965000", "135920.443000", "135920.447000", "135920.450000", "135920.453000", "135920.456000", "135920.459000", "135920.463000", "135920.466000", "135920.469000", "135920.472000", "135920.475000", "135920.478000", "135920.481000", "135920.484000"],
      "InstanceCreationTime": ["135540.910000", "135540.913000", "135540.916000", "135540.919000", "135540.922000", "135540.926000", "135540.929000", "135540.932000", "135540.935000", "135540.938000", "135540.941000", "135540.968000", "135540.971000", "135540.974000", "135540.977000", "135540.980000", "135540.983000", "135540.986000", "135540.989000", "135540.992000", "135540.995000", "135540.998000", "135541.002000", "135541.005000", "135541.008000", "135541.011000", "135541.014000", "135600.879000", "135600.882000", "135600.885000", "135600.888000", "135600.891000", "135600.895000", "135600.898000", "135600.906000", "135600.909000", "135600.912000", "135600.915000", "135600.919000", "135600.921000", "135600.925000", "135600.928000", "135600.931000", "135600.934000", "135600.937000", "135600.940000", "135600.943000", "135620.879000", "135620.882000", "135620.885000", "135620.888000", "135620.891000", "135620.894000", "135620.897000", "135620.900000", "135620.903000", "135620.907000", "135620.910000", "135620.913000", "135620.916000", "135620.919000", "135620.922000", "135620.925000", "135620.928000", "135620.931000", "135620.934000", "135620.937000", "135640.879000", "135640.882000", "135640.886000", "135640.889000", "135640.892000", "135640.895000", "135640.898000", "135640.901000", "135640.904000", "135640.907000", "135640.910000", "135640.913000", "135640.916000", "135640.919000", "135640.922000", "135640.925000", "135640.928000", "135640.931000", "135640.934000", "135640.937000", "135700.879000", "135700.882000", "135700.885000", "135700.888000", "135700.891000", "135700.894000", "135700.897000", "135700.900000", "135700.903000", "135700.907000", "135700.910000", "135700.913000", "135700.915000", "135700.919000", "135700.922000", "135700.925000", "135700.928000", "135700.931000", "135700.934000", "135700.937000", "135740.880000", "135740.883000", "135740.886000", "135740.889000", "135740.892000", "135740.896000", "135740.899000", "135740.902000", "135740.905000", "135740.908000", "135740.911000", "135740.914000", "135740.917000", "135740.920000", "135740.923000", "135740.926000", "135740.929000", "135740.932000", "135740.935000", "135740.938000", "135740.941000", "135740.944000", "135740.947000", "135740.950000", "135740.953000", "135740.957000", "135740.960000", "135740.963000", "135820.879000", "135820.882000", "135820.885000", "135820.888000", "135820.891000", "135820.894000", "135820.897000", "135820.901000", "135820.904000", "135820.907000", "135820.910000", "135820.913000", "135820.916000", "135820.919000", "135820.922000", "135820.925000", "135820.928000", "135820.931000", "135820.934000", "135820.937000", "135820.940000", "135820.943000", "135820.946000", "135820.949000", "135820.952000", "135820.955000", "135820.958000", "135900.879000", "135900.882000", "135900.885000", "135900.889000", "135900.893000", "135900.896000", "135900.899000", "135900.902000", "135900.905000", "135900.908000", "135900.911000", "135900.914000", "135900.917000", "135900.920000", "135900.923000", "135900.926000", "135900.929000", "135900.940000", "135900.944000", "135900.947000", "135900.950000", "135900.953000", "135900.956000", "135900.959000", "135900.962000", "135900.965000", "135920.443000", "135920.447000", "135920.450000", "135920.453000", "135920.456000", "135920.459000", "135920.463000", "135920.466000", "135920.469000", "135920.472000", "135920.475000", "135920.478000", "135920.481000", "135920.484000"],
      "InstanceNumber": [1, 2, 3, 4, 5, 6, 7, 8, 9, 10, 11, 12, 13, 14, 15, 16, 17, 18, 19, 20, 21, 22, 23, 24, 25, 26, 27, 28, 29, 30, 31, 32, 33, 34, 35, 36, 37, 38, 39, 40, 41, 42, 43, 44, 45, 46, 47, 48, 49, 50, 51, 52, 53, 54, 55, 56, 57, 58, 59, 60, 61, 62, 63, 64, 65, 66, 67, 68, 69, 70, 71, 72, 73, 74, 75, 76, 77, 78, 79, 80, 81, 82, 83, 84, 85, 86, 87, 88, 89, 90, 91, 92, 93, 94, 95, 96, 97, 98, 99, 100, 101, 102, 103, 104, 105, 106, 107, 108, 109, 110, 111, 112, 113, 114, 115, 116, 117, 118, 119, 120, 121, 122, 123, 124, 125, 126, 127, 128, 129, 130, 131, 132, 133, 134, 135, 136, 137, 138, 139, 140, 141, 142, 143, 144, 145, 146, 147, 148, 149, 150, 151, 152, 153, 154, 155, 156, 157, 158, 159, 160, 161, 162, 163, 164, 165, 166, 167, 168, 169, 170, 171, 172, 173, 174, 175, 176, 177, 178, 179, 180, 181, 182, 183, 184, 185, 186, 187, 188, 189, 190, 191, 192, 193, 194, 195, 196, 197, 198, 199, 200, 201, 202],
      "LargestImagePixelValue": [42295, 41121, 40385, 40343, 39829, 39703, 39577, 39597, 39920, 39282, 39224, 39558, 39045, 39395, 39018, 40048, 39591, 39336, 39843, 40000, 39539, 39911, 39766, 39893, 39713, 39260, 40070, 40145, 39907, 40095, 40157, 40281, 40599, 40409, 40520, 40622, 39996, 40236, 40143, 39788, 39543, 39491, 39520, 39565, 39421, 39829, 40199, 40120, 39963, 39434, 39613, 39355, 39670, 40472, 40873, 40567, 40003, 40377, 40274, 40473, 40691, 40622, 40508, 40754, 40664, 40505, 40686, 40416, 40443, 39831, 39090, 39944, 41109, 40275, 40406, 40144, 39218, 40073, 39848, 40238, 39832, 39953, 39727, 39892, 39702, 40019, 39964, 39443, 39500, 39490, 39584, 39643, 39530, 39617, 39860, 40514, 40039, 40545, 40643, 40717, 40671, 40313, 39965, 40044, 39643, 39826, 39550, 39258, 39961, 39763, 40144, 39944, 39708, 39925, 39587, 39808, 39702, 39596, 39023, 39766, 39329, 39443, 39316, 40106, 39420, 39749, 40024, 40275, 39819, 39864, 40148, 40287, 40417, 40186, 39995, 39509, 40170, 40717, 40054, 40483, 40515, 40104, 40040, 40288, 39861, 40003, 40618, 40343, 40264, 40160, 40495, 40447, 40978, 40525, 40628, 39654, 39567, 39485, 39390, 39625, 39540, 39478, 38770, 38512, 39028, 39187, 39252, 38909, 39562, 39356, 39605, 39194, 39277, 38860, 38629, 38571, 39588, 39111, 38932, 39204, 39145, 39210, 39286, 39710, 39632, 39518, 39494, 39251, 39643, 40017, 39801, 39617, 39984, 39855, 39863, 39775, 40080, 39725, 38988, 40051, 39614, 39514],
      "WindowCenter": [9909.0, 9869.0, 9852.0, 9841.0, 9841.0, 9841.0, 9854.0, 9856.0, 9862.0, 9858.0, 9857.0, 9864.0, 9867.0, 9874.0, 9871.0, 9865.0, 9861.0, 9851.0, 9856.0, 9849.0, 9850.0, 9846.0, 9841.0, 9838.0, 9836.0, 9833.0, 9845.0, 9845.0, 9848.0, 9852.0, 9840.0, 9842.0, 9841.0, 9833.0, 9839.0, 9849.0, 9851.0, 9853.0, 9844.0, 9839.0, 9838.0, 9839.0, 9844.0, 9847.0, 9839.0, 9835.0, 9829.0, 9821.0, 9808.0, 9795.0, 9792.0, 9785.0, 9787.0, 9796.0, 9812.0, 9823.0, 9811.0, 9791.0, 9764.0, 9732.0, 9734.0, 9733.0, 9747.0, 9741.0, 9741.0, 9740.0, 9756.0, 9746.0, 9761.0, 9779.0, 9795.0, 9817.0, 9802.0, 9775.0, 9727.0, 9680.0, 9661.0, 9677.0, 9719.0, 9748.0, 9762.0, 9778.0, 9790.0, 9807.0, 9817.0, 9816.0, 9816.0, 9819.0, 9826.0, 9824.0, 9821.0, 9833.0, 9815.0, 9796.0, 9770.0, 9738.0, 9705.0, 9689.0, 9710.0, 9727.0, 9756.0, 9785.0, 9789.0, 9783.0, 9774.0, 9773.0, 9789.0, 9798.0, 9798.0, 9789.0, 9787.0, 9795.0, 9797.0, 9805.0, 9807.0, 9808.0, 9832.0, 9835.0, 9820.0, 9801.0, 9776.0, 9763.0, 9762.0, 9782.0, 9785.0, 9776.0, 9765.0, 9773.0, 9765.0, 9767.0, 9743.0, 9730.0, 9718.0, 9718.0, 9734.0, 9738.0, 9738.0, 9752.0, 9750.0, 9778.0, 9795.0, 9783.0, 9781.0, 9761.0, 9769.0, 9781.0, 9772.0, 9743.0, 9709.0, 9679.0, 9681.0, 9693.0, 9721.0, 9732.0, 9739.0, 9723.0, 9762.0, 9777.0, 9779.0, 9760.0, 9729.0, 9700.0, 9683.0, 9684.0, 9714.0, 9741.0, 9760.0, 9761.0, 9768.0, 9775.0, 9779.0, 9767.0, 9748.0, 9729.0, 9719.0, 9727.0, 9740.0, 9735.0, 9726.0, 9731.0, 9741.0, 9767.0, 9761.0, 9753.0, 9743.0, 9739.0, 9733.0, 9738.0, 9747.0, 9757.0, 9750.0, 9732.0, 9720.0, 9724.0, 9734.0, 9761.0, 9789.0, 9790.0, 9780.0, 9783.0, 9759.0, 9734.0],
      "WindowWidth": [21190.0, 21073.0, 21024.0, 20992.0, 20989.0, 20987.0, 21009.0, 21014.0, 21025.0, 21018.0, 21018.0, 21029.0, 21040.0, 21056.0, 21052.0, 21037.0, 21024.0, 20998.0, 21005.0, 20991.0, 20994.0, 20985.0, 20976.0, 20969.0, 20961.0, 20961.0, 20983.0, 20983.0, 20991.0, 20998.0, 20972.0, 20975.0, 20970.0, 20954.0, 20967.0, 20990.0, 20995.0, 21002.0, 20981.0, 20971.0, 20967.0, 20974.0, 20982.0, 20989.0, 20972.0, 20958.0, 20944.0, 20927.0, 20900.0, 20875.0, 20867.0, 20853.0, 20855.0, 20871.0, 20906.0, 20929.0, 20905.0, 20858.0, 20799.0, 20728.0, 20728.0, 20724.0, 20754.0, 20741.0, 20747.0, 20746.0, 20784.0, 20760.0, 20790.0, 20832.0, 20877.0, 20926.0, 20883.0, 20821.0, 20713.0, 20610.0, 20569.0, 20603.0, 20693.0, 20758.0, 20794.0, 20832.0, 20863.0, 20900.0, 20922.0, 20916.0, 20919.0, 20925.0, 20943.0, 20940.0, 20932.0, 20963.0, 20918.0, 20876.0, 20823.0, 20748.0, 20674.0, 20627.0, 20670.0, 20710.0, 20777.0, 20846.0, 20856.0, 20848.0, 20829.0, 20824.0, 20859.0, 20878.0, 20875.0, 20854.0, 20848.0, 20866.0, 20873.0, 20890.0, 20898.0, 20900.0, 20953.0, 20962.0, 20931.0, 20886.0, 20834.0, 20799.0, 20797.0, 20836.0, 20847.0, 20828.0, 20801.0, 20817.0, 20806.0, 20803.0, 20750.0, 20715.0, 20686.0, 20687.0, 20722.0, 20736.0, 20735.0, 20765.0, 20767.0, 20821.0, 20861.0, 20840.0, 20835.0, 20792.0, 20808.0, 20837.0, 20821.0, 20749.0, 20673.0, 20599.0, 20599.0, 20630.0, 20691.0, 20716.0, 20730.0, 20702.0, 20790.0, 20825.0, 20827.0, 20784.0, 20714.0, 20648.0, 20615.0, 20619.0, 20681.0, 20744.0, 20786.0, 20788.0, 20802.0, 20817.0, 20830.0, 20807.0, 20760.0, 20721.0, 20700.0, 20717.0, 20741.0, 20733.0, 20714.0, 20720.0, 20746.0, 20801.0, 20791.0, 20771.0, 20746.0, 20736.0, 20727.0, 20736.0, 20756.0, 20778.0, 20762.0, 20722.0, 20692.0, 20697.0, 20723.0, 20786.0, 20848.0, 20850.0, 20833.0, 20834.0, 20783.0, 20730.0]
    },
    "slices": {}
  }
}