{
  "AcquisitionMatrixPE": 104,
  "AcquisitionNumber": 1,
  "AcquisitionTime": "13:35:31.760000",
  "BandwidthPerPixelPhaseEncode": 17.17,
  "BaseResolution": 104,
  "BodyPartExamined": "BRAIN",
  "CoilString": "HC1-7;NC1_2",
  "ConsistencyInfo": "N4_VE11C_LATEST_20160120",
  "ConversionSoftware": "dcm2niix",
  "ConversionSoftwareVersion": "v1.0.20190902",
  "DerivedVendorReportedEchoSpacing": 0.000560011,
  "DeviceSerialNumber": "167006",
  "DwellTime": 2.1e-06,
  "EchoTime": 0.037,
  "EchoTrainLength": 104,
  "EffectiveEchoSpacing": 0.000560011,
  "FlipAngle": 52,
  "ImageComments": "Unaliased_MB4_PE3_LB",
  "ImageOrientationPatientDICOM": [0.998679, 0.00449429, -0.0511778, -0.0170833, 0.96853, -0.248309],
  "ImageType": [
    "ORIGINAL",
    "PRIMARY",
    "M",
    "MB",
    "ND",
    "MOSAIC"
],
  "ImagingFrequency": 123.259,
  "InPlanePhaseEncodingDirectionDICOM": "COL",
  "InstitutionAddress": "Chemin_Queen-Mary_4565_Montreal_District_CA_H3W_1W5",
  "InstitutionName": "IUGM",
  "InstitutionalDepartmentName": "Department",
  "MRAcquisitionType": "2D",
  "MagneticFieldStrength": 3,
  "Manufacturer": "Siemens",
  "ManufacturersModelName": "Prisma_fit",
  "Modality": "MR",
  "MultibandAccelerationFactor": 4,
  "PartialFourier": 1,
  "PatientPosition": "HFS",
  "PercentPhaseFOV": 100,
  "PhaseEncodingDirection": "j",
  "PhaseEncodingSteps": 104,
  "PhaseResolution": 1,
  "PixelBandwidth": 2290,
  "ProcedureStepDescription": "hcptrt_generic",
  "ProtocolName": "func_task-relational_run-1",
  "PulseSequenceDetails": "%CustomerSeq%_cmrr_mbep2d_bold",
  "ReceiveCoilActiveElements": "HC1-7;NC1,2",
  "ReceiveCoilName": "HeadNeck_64",
  "ReconMatrixPE": 104,
  "RepetitionTime": 1.49,
  "SAR": 0.0277062,
  "ScanOptions": "FS",
  "ScanningSequence": "EP",
  "SequenceName": "epfid2d1_104",
  "SequenceVariant": "SK_SS",
  "SeriesDescription": "func_task-relational_run-1",
  "SeriesNumber": 11,
  "ShimSetting": [598, -7259, -8851, 591, -62, -351, 0, 65],
  "SliceThickness": 2,
  "SliceTiming": [0, 0.785, 0.1, 0.8825, 0.1975, 0.98, 0.295, 1.08, 0.3925, 1.1775, 0.49, 1.275, 0.59, 1.3725, 0.6875, 0, 0.785, 0.1, 0.8825, 0.1975, 0.98, 0.295, 1.08, 0.3925, 1.1775, 0.49, 1.275, 0.59, 1.3725, 0.6875, 0, 0.785, 0.1, 0.8825, 0.1975, 0.98, 0.295, 1.08, 0.3925, 1.1775, 0.49, 1.275, 0.59, 1.3725, 0.6875, 0, 0.785, 0.1, 0.8825, 0.1975, 0.98, 0.295, 1.08, 0.3925, 1.1775, 0.49, 1.275, 0.59, 1.3725, 0.6875],
  "SoftwareVersions": "syngo_MR_E11",
  "SpacingBetweenSlices": 2,
  "StationName": "MRC35049",
  "TaskName": "relational",
  "TotalReadoutTime": 0.0576811,
  "TxRefAmp": 215.796,
  "WipMemBlock": "f2b9296e-4eaf-465d-8923-45c0bb739265||Sequence: R016 ve11c/master r/e634e98; Dec 19 2017 11:00:25 by eja",
  "dcmmeta_affine": [
    [-1.9973589181900024, -0.03416663780808449, -0.09690257161855698, 107.78668975830078],
    [-0.008988580666482449, 1.9370604753494263, -0.4977104663848877, -71.36067199707031],
    [-0.10235561430454254, 0.49661770462989807, 1.9346561431884766, -56.30622863769531],
    [0.0, 0.0, 0.0, 1.0]
],
  "dcmmeta_reorient_transform": [
    [0.0, -1.0, 0.0, 103.0],
    [1.0, 0.0, 0.0, 0.0],
    [0.0, 0.0, 1.0, 0.0],
    [0.0, 0.0, 0.0, 1.0]
],
  "dcmmeta_shape": [104, 104, 60, 119],
  "dcmmeta_slice_dim": 2,
  "dcmmeta_version": 0.6,
  "global": {
    "const": {
      "AcquisitionMatrix": [104, 0, 0, 104],
      "AngioFlag": "N",
      "BitsAllocated": 16,
      "BitsStored": 16,
      "BodyPartExamined": "BRAIN",
      "Columns": 832,
      "EchoNumbers": 1,
      "EchoTime": 37.0,
      "EchoTrainLength": 104,
      "FlipAngle": 52.0,
      "HighBit": 15,
      "ImageOrientationPatient": [0.99867944468878, 0.00449429053467, -0.0511778087525, -0.0170833185226, 0.96853026648001, -0.248308846279],
      "ImagePositionPatient": [-818.86950720744, -836.51843705145, 212.87167704608],
      "ImageType": [
        "ORIGINAL",
        "PRIMARY",
        "M",
        "MB",
        "ND",
        "MOSAIC"
],
      "ImagedNucleus": "1H",
      "ImagingFrequency": 123.259389,
      "InPlanePhaseEncodingDirection": "COL",
      "MRAcquisitionType": "2D",
      "MagneticFieldStrength": 3.0,
      "Manufacturer": "SIEMENS",
      "ManufacturerModelName": "Prisma_fit",
      "Modality": "MR",
      "NumberOfAverages": 1.0,
      "NumberOfPhaseEncodingSteps": 104,
      "PercentPhaseFieldOfView": 100.0,
      "PercentSampling": 100.0,
      "PerformedProcedureStepStartTime": "130032.700000",
      "PhotometricInterpretation": "MONOCHROME2",
      "PixelBandwidth": 2290.0,
      "PixelRepresentation": 0,
      "PixelSpacing": [2.0, 2.0],
      "ProtocolName": "func_task-relational_run-1",
      "RepetitionTime": 1490.0,
      "Rows": 832,
      "SAR": 0.02770617377083,
      "SamplesPerPixel": 1,
      "ScanOptions": "FS",
      "ScanningSequence": "EP",
      "SequenceName": "epfid2d1_104",
      "SequenceVariant": [
        "SK",
        "SS"
],
      "SeriesDescription": "func_task-relational_run-1",
      "SeriesNumber": 11,
      "SeriesTime": "133645.204000",
      "SliceLocation": -41.930522139708,
      "SliceThickness": 2.0,
      "SmallestImagePixelValue": 0,
      "SoftwareVersions": "syngo MR E11",
      "SpacingBetweenSlices": 2.0000000180323,
      "SpecificCharacterSet": "ISO_IR 100",
      "StudyID": "1",
      "StudyTime": "130032.566000",
      "TransmitCoilName": "Body",
      "VariableFlipAngleFlag": "N",
      "WindowCenterWidthExplanation": "Algo1",
      "dBdt": 0.0},
    "slices": {}
  },
  "time": {
    "samples": {
      "AcquisitionNumber": [1, 2, 3, 4, 5, 6, 7, 8, 9, 10, 11, 12, 13, 14, 15, 16, 17, 18, 19, 20, 21, 22, 23, 24, 25, 26, 27, 28, 29, 30, 31, 32, 33, 34, 35, 36, 37, 38, 39, 40, 41, 42, 43, 44, 45, 46, 47, 48, 49, 50, 51, 52, 53, 54, 55, 56, 57, 58, 59, 60, 61, 62, 63, 64, 65, 66, 67, 68, 69, 70, 71, 72, 73, 74, 75, 76, 77, 78, 79, 80, 81, 82, 83, 84, 85, 86, 87, 88, 89, 90, 91, 92, 93, 94, 95, 96, 97, 98, 99, 100, 101, 102, 103, 104, 105, 106, 107, 108, 109, 110, 111, 112, 113, 114, 115, 116, 117, 118, 119],
      "AcquisitionTime": ["133531.760000", "133533.250000", "133534.740000", "133536.230000", "133537.720000", "133539.210000", "133540.700000", "133542.190000", "133543.680000", "133545.170000", "133546.660000", "133548.150000", "133549.640000", "133551.130000", "133552.620000", "133554.110000", "133555.600000", "133557.090000", "133558.580000", "133600.070000", "133601.560000", "133603.050000", "133604.540000", "133606.030000", "133607.520000", "133609.010000", "133610.500000", "133611.990000", "133613.480000", "133614.970000", "133616.460000", "133617.950000", "133619.440000", "133620.930000", "133622.420000", "133623.910000", "133625.400000", "133626.890000", "133628.380000", "133629.870000", "133631.360000", "133632.850000", "133634.340000", "133635.830000", "133637.320000", "133638.810000", "133640.300000", "133641.790000", "133643.280000", "133644.770000", "133646.260000", "133647.750000", "133649.240000", "133650.730000", "133652.220000", "133653.710000", "133655.200000", "133656.690000", "133658.180000", "133659.670000", "133701.160000", "133702.650000", "133704.140000", "133705.630000", "133707.120000", "133708.610000", "133710.100000", "133711.590000", "133713.080000", "133714.570000", "133716.060000", "133717.550000", "133719.040000", "133720.530000", "133722.020000", "133723.510000", "133725.000000", "133726.490000", "133727.980000", "133729.470000", "133730.960000", "133732.450000", "133733.940000", "133735.430000", "133736.920000", "133738.410000", "133739.900000", "133741.390000", "133742.880000", "133744.370000", "133745.860000", "133747.350000", "133748.840000", "133750.330000", "133751.820000", "133753.310000", "133754.800000", "133756.290000", "133757.780000", "133759.270000", "133800.760000", "133802.250000", "133803.740000", "133805.230000", "133806.720000", "133808.210000", "133809.700000", "133811.190000", "133812.680000", "133814.170000", "133815.660000", "133817.150000", "133818.640000", "133820.130000", "133821.620000", "133823.110000", "133824.600000", "133826.090000", "133827.580000"],
      "ContentTime": ["133645.207000", "133645.210000", "133645.213000", "133645.217000", "133645.220000", "133645.223000", "133645.242000", "133645.245000", "133645.250000", "133645.259000", "133645.262000", "133645.265000", "133645.268000", "133645.271000", "133645.274000", "133645.278000", "133645.281000", "133645.284000", "133645.286000", "133705.165000", "133705.177000", "133705.180000", "133705.183000", "133705.194000", "133705.197000", "133705.200000", "133705.203000", "133705.206000", "133705.209000", "133705.212000", "133705.215000", "133705.218000", "133705.221000", "133705.224000", "133705.227000", "133705.230000", "133705.233000", "133705.236000", "133705.239000", "133705.247000", "133725.165000", "133725.168000", "133725.171000", "133725.174000", "133725.181000", "133725.184000", "133725.186000", "133725.189000", "133725.193000", "133725.196000", "133725.199000", "133725.202000", "133725.205000", "133725.208000", "133725.213000", "133725.216000", "133725.219000", "133725.222000", "133725.225000", "133725.228000", "133745.165000", "133745.180000", "133745.183000", "133745.186000", "133745.189000", "133745.192000", "133745.195000", "133745.198000", "133745.202000", "133745.205000", "133745.208000", "133745.210000", "133745.214000", "133745.217000", "133745.220000", "133745.222000", "133745.226000", "133745.229000", "133745.232000", "133745.235000", "133805.166000", "133805.169000", "133805.172000", "133805.175000", "133805.178000", "133805.181000", "133805.184000", "133805.187000", "133805.190000", "133805.193000", "133805.196000", "133805.199000", "133805.202000", "133805.205000", "133805.208000", "133805.211000", "133805.215000", "133805.217000", "133805.220000", "133805.223000", "133829.527000", "133829.530000", "133829.533000", "133829.538000", "133829.541000", "133829.544000", "133829.547000", "133829.550000", "133829.553000", "133829.556000", "133829.560000", "133829.563000", "133829.566000", "133829.569000", "133829.572000", "133829.575000", "133829.578000", "133829.582000", "133829.585000"],
      "InstanceCreationTime": ["133645.207000", "133645.210000", "133645.213000", "133645.217000", "133645.220000", "133645.223000", "133645.242000", "133645.245000", "133645.250000", "133645.259000", "133645.262000", "133645.265000", "133645.268000", "133645.271000", "133645.274000", "133645.278000", "133645.281000", "133645.284000", "133645.286000", "133705.165000", "133705.177000", "133705.180000", "133705.183000", "133705.194000", "133705.197000", "133705.200000", "133705.203000", "133705.206000", "133705.209000", "133705.212000", "133705.215000", "133705.218000", "133705.221000", "133705.224000", "133705.227000", "133705.230000", "133705.233000", "133705.236000", "133705.239000", "133705.247000", "133725.165000", "133725.168000", "133725.171000", "133725.174000", "133725.181000", "133725.184000", "133725.186000", "133725.189000", "133725.193000", "133725.196000", "133725.199000", "133725.202000", "133725.205000", "133725.208000", "133725.213000", "133725.216000", "133725.219000", "133725.222000", "133725.225000", "133725.228000", "133745.165000", "133745.180000", "133745.183000", "133745.186000", "133745.189000", "133745.192000", "133745.195000", "133745.198000", "133745.202000", "133745.205000", "133745.208000", "133745.210000", "133745.214000", "133745.217000", "133745.220000", "133745.222000", "133745.226000", "133745.229000", "133745.232000", "133745.235000", "133805.166000", "133805.169000", "133805.172000", "133805.175000", "133805.178000", "133805.181000", "133805.184000", "133805.187000", "133805.190000", "133805.193000", "133805.196000", "133805.199000", "133805.202000", "133805.205000", "133805.208000", "133805.211000", "133805.215000", "133805.217000", "133805.220000", "133805.223000", "133829.527000", "133829.530000", "133829.533000", "133829.538000", "133829.541000", "133829.544000", "133829.547000", "133829.550000", "133829.553000", "133829.556000", "133829.560000", "133829.563000", "133829.566000", "133829.569000", "133829.572000", "133829.575000", "133829.578000", "133829.582000", "133829.585000"],
      "InstanceNumber": [1, 2, 3, 4, 5, 6, 7, 8, 9, 10, 11, 12, 13, 14, 15, 16, 17, 18, 19, 20, 21, 22, 23, 24, 25, 26, 27, 28, 29, 30, 31, 32, 33, 34, 35, 36, 37, 38, 39, 40, 41, 42, 43, 44, 45, 46, 47, 48, 49, 50, 51, 52, 53, 54, 55, 56, 57, 58, 59, 60, 61, 62, 63, 64, 65, 66, 67, 68, 69, 70, 71, 72, 73, 74, 75, 76, 77, 78, 79, 80, 81, 82, 83, 84, 85, 86, 87, 88, 89, 90, 91, 92, 93, 94, 95, 96, 97, 98, 99, 100, 101, 102, 103, 104, 105, 106, 107, 108, 109, 110, 111, 112, 113, 114, 115, 116, 117, 118, 119],
      "LargestImagePixelValue": [44226, 43041, 41672, 41873, 41684, 41587, 41602, 41869, 41859, 41473, 41726, 41745, 41719, 41396, 41240, 41349, 41376, 41570, 41427, 41768, 41764, 41296, 41520, 41542, 41452, 41554, 41245, 41563, 41853, 41116, 41378, 41629, 41902, 41455, 41070, 41849, 42008, 41660, 42092, 41633, 41770, 41144, 41508, 41338, 41336, 41546, 41404, 41036, 41495, 41549, 41742, 41830, 41432, 41510, 41312, 41170, 41311, 41505, 41085, 41132, 41069, 41281, 41353, 40979, 41333, 41269, 41300, 41395, 40983, 41225, 41561, 41012, 41603, 41120, 41211, 41594, 41113, 41111, 41363, 41496, 41474, 41666, 41370, 41862, 41913, 41148, 40989, 40989, 40864, 41211, 41483, 41329, 41020, 40866, 41194, 41484, 40957, 41015, 41367, 41342, 41829, 41357, 41448, 41065, 41232, 40543, 40222, 40977, 41038, 41100, 41199, 41312, 42091, 42117, 41289, 41568, 41174, 41027, 41137],
      "WindowCenter": [10038.0, 9998.0, 9967.0, 9953.0, 9933.0, 9922.0, 9914.0, 9921.0, 9937.0, 9940.0, 9946.0, 9941.0, 9940.0, 9941.0, 9942.0, 9943.0, 9943.0, 9933.0, 9919.0, 9924.0, 9923.0, 9925.0, 9940.0, 9942.0, 9935.0, 9926.0, 9925.0, 9924.0, 9931.0, 9924.0, 9932.0, 9933.0, 9931.0, 9933.0, 9919.0, 9930.0, 9937.0, 9931.0, 9937.0, 9925.0, 9931.0, 9934.0, 9937.0, 9926.0, 9917.0, 9918.0, 9917.0, 9918.0, 9930.0, 9925.0, 9923.0, 9937.0, 9932.0, 9933.0, 9941.0, 9936.0, 9934.0, 9933.0, 9928.0, 9931.0, 9926.0, 9933.0, 9932.0, 9928.0, 9926.0, 9923.0, 9916.0, 9917.0, 9917.0, 9926.0, 9933.0, 9927.0, 9940.0, 9927.0, 9912.0, 9914.0, 9916.0, 9910.0, 9902.0, 9904.0, 9894.0, 9886.0, 9902.0, 9919.0, 9938.0, 9950.0, 9946.0, 9947.0, 9945.0, 9935.0, 9933.0, 9927.0, 9918.0, 9926.0, 9927.0, 9932.0, 9926.0, 9919.0, 9923.0, 9919.0, 9930.0, 9927.0, 9939.0, 9928.0, 9940.0, 9937.0, 9923.0, 9911.0, 9884.0, 9857.0, 9821.0, 9800.0, 9801.0, 9825.0, 9841.0, 9875.0, 9882.0, 9891.0, 9891.0],
      "WindowWidth": [21482.0, 21363.0, 21279.0, 21234.0, 21183.0, 21155.0, 21138.0, 21152.0, 21185.0, 21196.0, 21204.0, 21195.0, 21194.0, 21196.0, 21202.0, 21204.0, 21202.0, 21179.0, 21151.0, 21158.0, 21155.0, 21160.0, 21193.0, 21201.0, 21184.0, 21166.0, 21161.0, 21157.0, 21171.0, 21160.0, 21176.0, 21179.0, 21175.0, 21180.0, 21153.0, 21169.0, 21183.0, 21173.0, 21184.0, 21165.0, 21175.0, 21185.0, 21188.0, 21162.0, 21144.0, 21144.0, 21144.0, 21146.0, 21172.0, 21161.0, 21155.0, 21184.0, 21177.0, 21179.0, 21198.0, 21189.0, 21183.0, 21180.0, 21169.0, 21173.0, 21164.0, 21178.0, 21177.0, 21170.0, 21165.0, 21156.0, 21139.0, 21143.0, 21147.0, 21165.0, 21180.0, 21168.0, 21192.0, 21166.0, 21134.0, 21135.0, 21139.0, 21129.0, 21111.0, 21110.0, 21085.0, 21069.0, 21104.0, 21144.0, 21187.0, 21219.0, 21215.0, 21216.0, 21210.0, 21183.0, 21178.0, 21168.0, 21148.0, 21165.0, 21168.0, 21175.0, 21162.0, 21149.0, 21154.0, 21149.0, 21169.0, 21167.0, 21189.0, 21170.0, 21197.0, 21193.0, 21164.0, 21132.0, 21070.0, 21009.0, 20927.0, 20878.0, 20875.0, 20927.0, 20969.0, 21046.0, 21064.0, 21084.0, 21086.0]
    },
    "slices": {}
  }
}