{
  "AcquisitionMatrixPE": 104,
  "AcquisitionNumber": 1,
  "AcquisitionTime": "13:45:16.247500",
  "BandwidthPerPixelPhaseEncode": 17.17,
  "BaseResolution": 104,
  "BodyPartExamined": "BRAIN",
  "CoilString": "HC1-7;NC1_2",
  "ConsistencyInfo": "N4_VE11C_LATEST_20160120",
  "ConversionSoftware": "dcm2niix",
  "ConversionSoftwareVersion": "v1.0.20190902",
  "DerivedVendorReportedEchoSpacing": 0.000560011,
  "DeviceSerialNumber": "167006",
  "DwellTime": 2.1e-06,
  "EchoTime": 0.037,
  "EchoTrainLength": 104,
  "EffectiveEchoSpacing": 0.000560011,
  "FlipAngle": 52,
  "ImageComments": "Unaliased_MB4_PE3_LB",
  "ImageOrientationPatientDICOM": [0.998679, 0.00449429, -0.0511778, -0.0170833, 0.96853, -0.248309],
  "ImageType": [
    "ORIGINAL",
    "PRIMARY",
    "M",
    "MB",
    "ND",
    "MOSAIC"
],
  "ImagingFrequency": 123.259,
  "InPlanePhaseEncodingDirectionDICOM": "COL",
  "InstitutionAddress": "Chemin_Queen-Mary_4565_Montreal_District_CA_H3W_1W5",
  "InstitutionName": "IUGM",
  "InstitutionalDepartmentName": "Department",
  "MRAcquisitionType": "2D",
  "MagneticFieldStrength": 3,
  "Manufacturer": "Siemens",
  "ManufacturersModelName": "Prisma_fit",
  "Modality": "MR",
  "MultibandAccelerationFactor": 4,
  "PartialFourier": 1,
  "PatientPosition": "HFS",
  "PercentPhaseFOV": 100,
  "PhaseEncodingDirection": "j",
  "PhaseEncodingSteps": 104,
  "PhaseResolution": 1,
  "PixelBandwidth": 2290,
  "ProcedureStepDescription": "hcptrt_generic",
  "ProtocolName": "func_task-social_run-1",
  "PulseSequenceDetails": "%CustomerSeq%_cmrr_mbep2d_bold",
  "ReceiveCoilActiveElements": "HC1-7;NC1,2",
  "ReceiveCoilName": "HeadNeck_64",
  "ReconMatrixPE": 104,
  "RepetitionTime": 1.49,
  "SAR": 0.0277682,
  "ScanOptions": "FS",
  "ScanningSequence": "EP",
  "SequenceName": "epfid2d1_104",
  "SequenceVariant": "SK_SS",
  "SeriesDescription": "func_task-social_run-1",
  "SeriesNumber": 15,
  "ShimSetting": [598, -7259, -8851, 591, -62, -351, 0, 65],
  "SliceThickness": 2,
  "SliceTiming": [0, 0.785, 0.0975, 0.8825, 0.1975, 0.98, 0.295, 1.0775, 0.3925, 1.175, 0.49, 1.275, 0.5875, 1.3725, 0.6875, 0, 0.785, 0.0975, 0.8825, 0.1975, 0.98, 0.295, 1.0775, 0.3925, 1.175, 0.49, 1.275, 0.5875, 1.3725, 0.6875, 0, 0.785, 0.0975, 0.8825, 0.1975, 0.98, 0.295, 1.0775, 0.3925, 1.175, 0.49, 1.275, 0.5875, 1.3725, 0.6875, 0, 0.785, 0.0975, 0.8825, 0.1975, 0.98, 0.295, 1.0775, 0.3925, 1.175, 0.49, 1.275, 0.5875, 1.3725, 0.6875],
  "SoftwareVersions": "syngo_MR_E11",
  "SpacingBetweenSlices": 2,
  "StationName": "MRC35049",
  "TaskName": "social",
  "TotalReadoutTime": 0.0576811,
  "TxRefAmp": 215.796,
  "WipMemBlock": "b46e7345-b7ad-4f57-86e2-b9742da82477||Sequence: R016 ve11c/master r/e634e98; Dec 19 2017 11:00:25 by eja",
  "dcmmeta_affine": [
    [-1.9973589181900024, -0.03416663780808449, -0.09690257161855698, 107.78668975830078],
    [-0.008988580666482449, 1.9370604753494263, -0.4977104663848877, -71.36067199707031],
    [-0.10235561430454254, 0.49661770462989807, 1.9346561431884766, -56.30622863769531],
    [0.0, 0.0, 0.0, 1.0]
],
  "dcmmeta_reorient_transform": [
    [0.0, -1.0, 0.0, 103.0],
    [1.0, 0.0, 0.0, 0.0],
    [0.0, 0.0, 1.0, 0.0],
    [0.0, 0.0, 0.0, 1.0]
],
  "dcmmeta_shape": [104, 104, 60, 139],
  "dcmmeta_slice_dim": 2,
  "dcmmeta_version": 0.6,
  "global": {
    "const": {
      "AcquisitionMatrix": [104, 0, 0, 104],
      "AngioFlag": "N",
      "BitsAllocated": 16,
      "BitsStored": 16,
      "BodyPartExamined": "BRAIN",
      "Columns": 832,
      "EchoNumbers": 1,
      "EchoTime": 37.0,
      "EchoTrainLength": 104,
      "FlipAngle": 52.0,
      "HighBit": 15,
      "ImageOrientationPatient": [0.99867944468878, 0.00449429053467, -0.0511778087525, -0.0170833185226, 0.96853026648001, -0.248308846279],
      "ImagePositionPatient": [-818.86950720744, -836.51843705145, 212.87167704608],
      "ImageType": [
        "ORIGINAL",
        "PRIMARY",
        "M",
        "MB",
        "ND",
        "MOSAIC"
],
      "ImagedNucleus": "1H",
      "ImagingFrequency": 123.259391,
      "InPlanePhaseEncodingDirection": "COL",
      "MRAcquisitionType": "2D",
      "MagneticFieldStrength": 3.0,
      "Manufacturer": "SIEMENS",
      "ManufacturerModelName": "Prisma_fit",
      "Modality": "MR",
      "NumberOfAverages": 1.0,
      "NumberOfPhaseEncodingSteps": 104,
      "PercentPhaseFieldOfView": 100.0,
      "PercentSampling": 100.0,
      "PerformedProcedureStepStartTime": "130032.700000",
      "PhotometricInterpretation": "MONOCHROME2",
      "PixelBandwidth": 2290.0,
      "PixelRepresentation": 0,
      "PixelSpacing": [2.0, 2.0],
      "ProtocolName": "func_task-social_run-1",
      "RepetitionTime": 1490.0,
      "Rows": 832,
      "SAR": 0.02776820144058,
      "SamplesPerPixel": 1,
      "ScanOptions": "FS",
      "ScanningSequence": "EP",
      "SequenceName": "epfid2d1_104",
      "SequenceVariant": [
        "SK",
        "SS"
],
      "SeriesDescription": "func_task-social_run-1",
      "SeriesNumber": 15,
      "SeriesTime": "134625.761000",
      "SliceLocation": -41.930522139708,
      "SliceThickness": 2.0,
      "SmallestImagePixelValue": 0,
      "SoftwareVersions": "syngo MR E11",
      "SpacingBetweenSlices": 2.0000000180323,
      "SpecificCharacterSet": "ISO_IR 100",
      "StudyID": "1",
      "StudyTime": "130032.566000",
      "TransmitCoilName": "Body",
      "VariableFlipAngleFlag": "N",
      "WindowCenterWidthExplanation": "Algo1",
      "dBdt": 0.0},
    "slices": {}
  },
  "time": {
    "samples": {
      "AcquisitionNumber": [1, 2, 3, 4, 5, 6, 7, 8, 9, 10, 11, 12, 13, 14, 15, 16, 17, 18, 19, 20, 21, 22, 23, 24, 25, 26, 27, 28, 29, 30, 31, 32, 33, 34, 35, 36, 37, 38, 39, 40, 41, 42, 43, 44, 45, 46, 47, 48, 49, 50, 51, 52, 53, 54, 55, 56, 57, 58, 59, 60, 61, 62, 63, 64, 65, 66, 67, 68, 69, 70, 71, 72, 73, 74, 75, 76, 77, 78, 79, 80, 81, 82, 83, 84, 85, 86, 87, 88, 89, 90, 91, 92, 93, 94, 95, 96, 97, 98, 99, 100, 101, 102, 103, 104, 105, 106, 107, 108, 109, 110, 111, 112, 113, 114, 115, 116, 117, 118, 119, 120, 121, 122, 123, 124, 125, 126, 127, 128, 129, 130, 131, 132, 133, 134, 135, 136, 137, 138, 139],
      "AcquisitionTime": ["134516.247500", "134517.737500", "134519.227500", "134520.717500", "134522.207500", "134523.697500", "134525.187500", "134526.677500", "134528.167500", "134529.657500", "134531.147500", "134532.637500", "134534.127500", "134535.617500", "134537.107500", "134538.597500", "134540.087500", "134541.577500", "134543.067500", "134544.557500", "134546.047500", "134547.537500", "134549.027500", "134550.517500", "134552.007500", "134553.497500", "134554.987500", "134556.477500", "134557.967500", "134559.457500", "134600.947500", "134602.437500", "134603.927500", "134605.417500", "134606.907500", "134608.397500", "134609.887500", "134611.377500", "134612.867500", "134614.357500", "134615.847500", "134617.337500", "134618.827500", "134620.317500", "134621.807500", "134623.297500", "134624.787500", "134626.277500", "134627.767500", "134629.257500", "134630.747500", "134632.237500", "134633.727500", "134635.217500", "134636.707500", "134638.197500", "134639.687500", "134641.177500", "134642.667500", "134644.157500", "134645.647500", "134647.137500", "134648.627500", "134650.117500", "134651.607500", "134653.097500", "134654.587500", "134656.077500", "134657.567500", "134659.057500", "134700.547500", "134702.037500", "134703.527500", "134705.017500", "134706.507500", "134707.997500", "134709.487500", "134710.977500", "134712.467500", "134713.957500", "134715.447500", "134716.937500", "134718.427500", "134719.917500", "134721.407500", "134722.897500", "134724.387500", "134725.877500", "134727.367500", "134728.857500", "134730.347500", "134731.837500", "134733.327500", "134734.817500", "134736.307500", "134737.797500", "134739.287500", "134740.777500", "134742.267500", "134743.757500", "134745.247500", "134746.737500", "134748.227500", "134749.717500", "134751.207500", "134752.697500", "134754.187500", "134755.677500", "134757.167500", "134758.657500", "134800.147500", "134801.637500", "134803.127500", "134804.617500", "134806.107500", "134807.597500", "134809.087500", "134810.577500", "134812.067500", "134813.557500", "134815.047500", "134816.537500", "134818.027500", "134819.517500", "134821.007500", "134822.497500", "134823.987500", "134825.477500", "134826.967500", "134828.457500", "134829.947500", "134831.437500", "134832.927500", "134834.417500", "134835.907500", "134837.397500", "134838.887500", "134840.377500", "134841.867500"],
      "ContentTime": ["134625.763000", "134625.767000", "134625.770000", "134625.773000", "134625.776000", "134625.783000", "134625.786000", "134625.789000", "134625.792000", "134625.795000", "134625.798000", "134625.801000", "134625.804000", "134625.807000", "134645.638000", "134645.641000", "134645.644000", "134645.647000", "134645.650000", "134645.663000", "134645.666000", "134645.669000", "134645.672000", "134645.675000", "134645.678000", "134645.681000", "134645.684000", "134645.687000", "134645.690000", "134645.693000", "134645.696000", "134645.699000", "134645.702000", "134645.705000", "134705.638000", "134705.641000", "134705.644000", "134705.647000", "134705.650000", "134705.653000", "134705.656000", "134705.659000", "134705.662000", "134705.665000", "134705.668000", "134705.671000", "134705.675000", "134705.678000", "134705.681000", "134705.683000", "134705.687000", "134705.690000", "134705.693000", "134705.696000", "134725.640000", "134725.643000", "134725.646000", "134725.649000", "134725.652000", "134725.655000", "134725.658000", "134725.661000", "134725.664000", "134725.667000", "134725.670000", "134725.673000", "134725.676000", "134725.679000", "134725.682000", "134725.685000", "134725.688000", "134725.691000", "134725.694000", "134725.697000", "134745.639000", "134745.642000", "134745.645000", "134745.648000", "134745.651000", "134745.654000", "134745.657000", "134745.660000", "134745.664000", "134745.666000", "134745.669000", "134745.672000", "134745.676000", "134745.679000", "134745.681000", "134745.684000", "134745.688000", "134745.691000", "134745.694000", "134745.697000", "134825.638000", "134825.641000", "134825.644000", "134825.647000", "134825.650000", "134825.653000", "134825.656000", "134825.660000", "134825.663000", "134825.666000", "134825.669000", "134825.672000", "134825.675000", "134825.678000", "134825.681000", "134825.684000", "134825.687000", "134825.690000", "134825.693000", "134825.696000", "134825.704000", "134825.707000", "134825.711000", "134825.713000", "134825.717000", "134825.720000", "134825.723000", "134825.726000", "134825.730000", "134825.733000", "134825.736000", "134825.740000", "134843.665000", "134843.669000", "134843.672000", "134843.675000", "134843.678000", "134843.681000", "134843.684000", "134843.687000", "134843.690000", "134843.693000", "134843.696000", "134843.699000", "134843.702000"],
      "InstanceCreationTime": ["134625.763000", "134625.767000", "134625.770000", "134625.773000", "134625.776000", "134625.783000", "134625.786000", "134625.789000", "134625.792000", "134625.795000", "134625.798000", "134625.801000", "134625.804000", "134625.807000", "134645.638000", "134645.641000", "134645.644000", "134645.647000", "134645.650000", "134645.663000", "134645.666000", "134645.669000", "134645.672000", "134645.675000", "134645.678000", "134645.681000", "134645.684000", "134645.687000", "134645.690000", "134645.693000", "134645.696000", "134645.699000", "134645.702000", "134645.705000", "134705.638000", "134705.641000", "134705.644000", "134705.647000", "134705.650000", "134705.653000", "134705.656000", "134705.659000", "134705.662000", "134705.665000", "134705.668000", "134705.671000", "134705.675000", "134705.678000", "134705.681000", "134705.683000", "134705.687000", "134705.690000", "134705.693000", "134705.696000", "134725.640000", "134725.643000", "134725.646000", "134725.649000", "134725.652000", "134725.655000", "134725.658000", "134725.661000", "134725.664000", "134725.667000", "134725.670000", "134725.673000", "134725.676000", "134725.679000", "134725.682000", "134725.685000", "134725.688000", "134725.691000", "134725.694000", "134725.697000", "134745.639000", "134745.642000", "134745.645000", "134745.648000", "134745.651000", "134745.654000", "134745.657000", "134745.660000", "134745.664000", "134745.666000", "134745.669000", "134745.672000", "134745.676000", "134745.679000", "134745.681000", "134745.684000", "134745.688000", "134745.691000", "134745.694000", "134745.697000", "134825.638000", "134825.641000", "134825.644000", "134825.647000", "134825.650000", "134825.653000", "134825.656000", "134825.660000", "134825.663000", "134825.666000", "134825.669000", "134825.672000", "134825.675000", "134825.678000", "134825.681000", "134825.684000", "134825.687000", "134825.690000", "134825.693000", "134825.696000", "134825.704000", "134825.707000", "134825.711000", "134825.713000", "134825.717000", "134825.720000", "134825.723000", "134825.726000", "134825.730000", "134825.733000", "134825.736000", "134825.740000", "134843.665000", "134843.669000", "134843.672000", "134843.675000", "134843.678000", "134843.681000", "134843.684000", "134843.687000", "134843.690000", "134843.693000", "134843.696000", "134843.699000", "134843.702000"],
      "InstanceNumber": [1, 2, 3, 4, 5, 6, 7, 8, 9, 10, 11, 12, 13, 14, 15, 16, 17, 18, 19, 20, 21, 22, 23, 24, 25, 26, 27, 28, 29, 30, 31, 32, 33, 34, 35, 36, 37, 38, 39, 40, 41, 42, 43, 44, 45, 46, 47, 48, 49, 50, 51, 52, 53, 54, 55, 56, 57, 58, 59, 60, 61, 62, 63, 64, 65, 66, 67, 68, 69, 70, 71, 72, 73, 74, 75, 76, 77, 78, 79, 80, 81, 82, 83, 84, 85, 86, 87, 88, 89, 90, 91, 92, 93, 94, 95, 96, 97, 98, 99, 100, 101, 102, 103, 104, 105, 106, 107, 108, 109, 110, 111, 112, 113, 114, 115, 116, 117, 118, 119, 120, 121, 122, 123, 124, 125, 126, 127, 128, 129, 130, 131, 132, 133, 134, 135, 136, 137, 138, 139],
      "LargestImagePixelValue": [42286, 42113, 40656, 40587, 40207, 40853, 40614, 40340, 40889, 40672, 40808, 40883, 40182, 40578, 40258, 39794, 40104, 40033, 40809, 39993, 40058, 40288, 40149, 40172, 40430, 40354, 40753, 40539, 39731, 40177, 39844, 40651, 40019, 40005, 39705, 39323, 39902, 39752, 39445, 40078, 39880, 40222, 40278, 39766, 39923, 40053, 39448, 39444, 40116, 40266, 40265, 39943, 39442, 40003, 39703, 39452, 39676, 39123, 39644, 39831, 39380, 40473, 40443, 40347, 40014, 40387, 40246, 39894, 40256, 40134, 40449, 40030, 39771, 40276, 39963, 40493, 40412, 40725, 40222, 40483, 41102, 40949, 40351, 39470, 39440, 39459, 39636, 40272, 41055, 41452, 40431, 39878, 39659, 39648, 39849, 39608, 40263, 40428, 39809, 39475, 39485, 39563, 39660, 39265, 39045, 39673, 39297, 39636, 39681, 39754, 39965, 39252, 39915, 39386, 39493, 39593, 39789, 39788, 39427, 39573, 39535, 39298, 39895, 39776, 39707, 39786, 39824, 39506, 39706, 39615, 39688, 40277, 40432, 39956, 40154, 39917, 39593, 39803, 39895],
      "WindowCenter": [9968.0, 9949.0, 9916.0, 9897.0, 9878.0, 9865.0, 9858.0, 9864.0, 9887.0, 9896.0, 9887.0, 9885.0, 9879.0, 9888.0, 9897.0, 9893.0, 9893.0, 9883.0, 9880.0, 9872.0, 9871.0, 9887.0, 9888.0, 9890.0, 9891.0, 9888.0, 9880.0, 9872.0, 9850.0, 9863.0, 9872.0, 9895.0, 9899.0, 9901.0, 9900.0, 9886.0, 9889.0, 9890.0, 9900.0, 9898.0, 9888.0, 9877.0, 9885.0, 9880.0, 9870.0, 9846.0, 9821.0, 9804.0, 9805.0, 9811.0, 9822.0, 9824.0, 9817.0, 9826.0, 9841.0, 9846.0, 9861.0, 9865.0, 9882.0, 9880.0, 9873.0, 9886.0, 9903.0, 9898.0, 9884.0, 9848.0, 9811.0, 9789.0, 9778.0, 9779.0, 9793.0, 9796.0, 9805.0, 9828.0, 9849.0, 9878.0, 9881.0, 9870.0, 9852.0, 9847.0, 9843.0, 9843.0, 9836.0, 9835.0, 9835.0, 9811.0, 9782.0, 9778.0, 9820.0, 9874.0, 9888.0, 9874.0, 9841.0, 9821.0, 9799.0, 9789.0, 9813.0, 9839.0, 9852.0, 9855.0, 9883.0, 9884.0, 9865.0, 9842.0, 9825.0, 9819.0, 9818.0, 9825.0, 9841.0, 9850.0, 9868.0, 9873.0, 9889.0, 9884.0, 9867.0, 9854.0, 9845.0, 9834.0, 9833.0, 9841.0, 9846.0, 9839.0, 9855.0, 9862.0, 9877.0, 9878.0, 9870.0, 9862.0, 9851.0, 9841.0, 9833.0, 9836.0, 9836.0, 9846.0, 9862.0, 9866.0, 9860.0, 9843.0, 9834.0],
      "WindowWidth": [21324.0, 21247.0, 21159.0, 21108.0, 21059.0, 21025.0, 21007.0, 21018.0, 21065.0, 21088.0, 21066.0, 21062.0, 21050.0, 21070.0, 21093.0, 21086.0, 21086.0, 21061.0, 21052.0, 21035.0, 21032.0, 21065.0, 21072.0, 21075.0, 21077.0, 21070.0, 21052.0, 21036.0, 20991.0, 21014.0, 21036.0, 21083.0, 21099.0, 21104.0, 21102.0, 21074.0, 21075.0, 21080.0, 21101.0, 21095.0, 21070.0, 21046.0, 21065.0, 21057.0, 21030.0, 20977.0, 20926.0, 20890.0, 20882.0, 20894.0, 20920.0, 20924.0, 20910.0, 20929.0, 20964.0, 20980.0, 21010.0, 21022.0, 21063.0, 21057.0, 21043.0, 21070.0, 21106.0, 21096.0, 21064.0, 20983.0, 20897.0, 20845.0, 20819.0, 20826.0, 20856.0, 20863.0, 20884.0, 20933.0, 20983.0, 21045.0, 21053.0, 21026.0, 20986.0, 20978.0, 20966.0, 20968.0, 20953.0, 20956.0, 20956.0, 20903.0, 20834.0, 20823.0, 20915.0, 21036.0, 21072.0, 21043.0, 20972.0, 20925.0, 20868.0, 20847.0, 20901.0, 20958.0, 20993.0, 21003.0, 21066.0, 21069.0, 21022.0, 20976.0, 20936.0, 20918.0, 20913.0, 20931.0, 20966.0, 20986.0, 21027.0, 21042.0, 21075.0, 21069.0, 21031.0, 20998.0, 20975.0, 20950.0, 20946.0, 20964.0, 20976.0, 20962.0, 20998.0, 21011.0, 21050.0, 21049.0, 21034.0, 21018.0, 20990.0, 20969.0, 20950.0, 20955.0, 20953.0, 20976.0, 21012.0, 21022.0, 21010.0, 20972.0, 20953.0]
    },
    "slices": {}
  }
}