{
  "AcquisitionMatrixPE": 104,
  "AcquisitionNumber": 1,
  "AcquisitionTime": "13:49:55.000000",
  "BandwidthPerPixelPhaseEncode": 17.17,
  "BaseResolution": 104,
  "BodyPartExamined": "BRAIN",
  "CoilString": "HC1-7;NC1_2",
  "ConsistencyInfo": "N4_VE11C_LATEST_20160120",
  "ConversionSoftware": "dcm2niix",
  "ConversionSoftwareVersion": "v1.0.20190902",
  "DerivedVendorReportedEchoSpacing": 0.000560011,
  "DeviceSerialNumber": "167006",
  "DwellTime": 2.1e-06,
  "EchoTime": 0.037,
  "EchoTrainLength": 104,
  "EffectiveEchoSpacing": 0.000560011,
  "FlipAngle": 52,
  "ImageComments": "Unaliased_MB4_PE3_LB",
  "ImageOrientationPatientDICOM": [0.998679, 0.00449429, -0.0511778, -0.0170833, 0.96853, -0.248309],
  "ImageType": [
    "ORIGINAL",
    "PRIMARY",
    "M",
    "MB",
    "ND",
    "MOSAIC"
],
  "ImagingFrequency": 123.259,
  "InPlanePhaseEncodingDirectionDICOM": "COL",
  "InstitutionAddress": "Chemin_Queen-Mary_4565_Montreal_District_CA_H3W_1W5",
  "InstitutionName": "IUGM",
  "InstitutionalDepartmentName": "Department",
  "MRAcquisitionType": "2D",
  "MagneticFieldStrength": 3,
  "Manufacturer": "Siemens",
  "ManufacturersModelName": "Prisma_fit",
  "Modality": "MR",
  "MultibandAccelerationFactor": 4,
  "PartialFourier": 1,
  "PatientPosition": "HFS",
  "PercentPhaseFOV": 100,
  "PhaseEncodingDirection": "j",
  "PhaseEncodingSteps": 104,
  "PhaseResolution": 1,
  "PixelBandwidth": 2290,
  "ProcedureStepDescription": "hcptrt_generic",
  "ProtocolName": "func_task-gambling_run-1",
  "PulseSequenceDetails": "%CustomerSeq%_cmrr_mbep2d_bold",
  "ReceiveCoilActiveElements": "HC1-7;NC1,2",
  "ReceiveCoilName": "HeadNeck_64",
  "ReconMatrixPE": 104,
  "RepetitionTime": 1.49,
  "SAR": 0.0277395,
  "ScanOptions": "FS",
  "ScanningSequence": "EP",
  "SequenceName": "epfid2d1_104",
  "SequenceVariant": "SK_SS",
  "SeriesDescription": "func_task-gambling_run-1",
  "SeriesNumber": 17,
  "ShimSetting": [598, -7259, -8851, 591, -62, -351, 0, 65],
  "SliceThickness": 2,
  "SliceTiming": [0, 0.785, 0.1, 0.8825, 0.1975, 0.98, 0.295, 1.08, 0.3925, 1.1775, 0.49, 1.275, 0.59, 1.3725, 0.6875, 0, 0.785, 0.1, 0.8825, 0.1975, 0.98, 0.295, 1.08, 0.3925, 1.1775, 0.49, 1.275, 0.59, 1.3725, 0.6875, 0, 0.785, 0.1, 0.8825, 0.1975, 0.98, 0.295, 1.08, 0.3925, 1.1775, 0.49, 1.275, 0.59, 1.3725, 0.6875, 0, 0.785, 0.1, 0.8825, 0.1975, 0.98, 0.295, 1.08, 0.3925, 1.1775, 0.49, 1.275, 0.59, 1.3725, 0.6875],
  "SoftwareVersions": "syngo_MR_E11",
  "SpacingBetweenSlices": 2,
  "StationName": "MRC35049",
  "TaskName": "gambling",
  "TotalReadoutTime": 0.0576811,
  "TxRefAmp": 215.796,
  "WipMemBlock": "81b91b02-9874-4f0c-b354-4d3444dc6f98||Sequence: R016 ve11c/master r/e634e98; Dec 19 2017 11:00:25 by eja",
  "dcmmeta_affine": [
    [-1.9973589181900024, -0.03416663780808449, -0.09690257161855698, 107.78668975830078],
    [-0.008988580666482449, 1.9370604753494263, -0.4977104663848877, -71.36067199707031],
    [-0.10235561430454254, 0.49661770462989807, 1.9346561431884766, -56.30622863769531],
    [0.0, 0.0, 0.0, 1.0]
],
  "dcmmeta_reorient_transform": [
    [0.0, -1.0, 0.0, 103.0],
    [1.0, 0.0, 0.0, 0.0],
    [0.0, 0.0, 1.0, 0.0],
    [0.0, 0.0, 0.0, 1.0]
],
  "dcmmeta_shape": [104, 104, 60, 129],
  "dcmmeta_slice_dim": 2,
  "dcmmeta_version": 0.6,
  "global": {
    "const": {
      "AcquisitionMatrix": [104, 0, 0, 104],
      "AngioFlag": "N",
      "BitsAllocated": 16,
      "BitsStored": 16,
      "BodyPartExamined": "BRAIN",
      "Columns": 832,
      "EchoNumbers": 1,
      "EchoTime": 37.0,
      "EchoTrainLength": 104,
      "FlipAngle": 52.0,
      "HighBit": 15,
      "ImageOrientationPatient": [0.99867944468878, 0.00449429053467, -0.0511778087525, -0.0170833185226, 0.96853026648001, -0.248308846279],
      "ImagePositionPatient": [-818.86950720744, -836.51843705145, 212.87167704608],
      "ImageType": [
        "ORIGINAL",
        "PRIMARY",
        "M",
        "MB",
        "ND",
        "MOSAIC"
],
      "ImagedNucleus": "1H",
      "ImagingFrequency": 123.259393,
      "InPlanePhaseEncodingDirection": "COL",
      "MRAcquisitionType": "2D",
      "MagneticFieldStrength": 3.0,
      "Manufacturer": "SIEMENS",
      "ManufacturerModelName": "Prisma_fit",
      "Modality": "MR",
      "NumberOfAverages": 1.0,
      "NumberOfPhaseEncodingSteps": 104,
      "PercentPhaseFieldOfView": 100.0,
      "PercentSampling": 100.0,
      "PerformedProcedureStepStartTime": "130032.700000",
      "PhotometricInterpretation": "MONOCHROME2",
      "PixelBandwidth": 2290.0,
      "PixelRepresentation": 0,
      "PixelSpacing": [2.0, 2.0],
      "ProtocolName": "func_task-gambling_run-1",
      "RepetitionTime": 1490.0,
      "Rows": 832,
      "SAR": 0.02773946687757,
      "SamplesPerPixel": 1,
      "ScanOptions": "FS",
      "ScanningSequence": "EP",
      "SequenceName": "epfid2d1_104",
      "SequenceVariant": [
        "SK",
        "SS"
],
      "SeriesDescription": "func_task-gambling_run-1",
      "SeriesNumber": 17,
      "SeriesTime": "135125.203000",
      "SliceLocation": -41.930522139708,
      "SliceThickness": 2.0,
      "SmallestImagePixelValue": 0,
      "SoftwareVersions": "syngo MR E11",
      "SpacingBetweenSlices": 2.0000000180323,
      "SpecificCharacterSet": "ISO_IR 100",
      "StudyID": "1",
      "StudyTime": "130032.566000",
      "TransmitCoilName": "Body",
      "VariableFlipAngleFlag": "N",
      "WindowCenterWidthExplanation": "Algo1",
      "dBdt": 0.0},
    "slices": {}
  },
  "time": {
    "samples": {
      "AcquisitionNumber": [1, 2, 3, 4, 5, 6, 7, 8, 9, 10, 11, 12, 13, 14, 15, 16, 17, 18, 19, 20, 21, 22, 23, 24, 25, 26, 27, 28, 29, 30, 31, 32, 33, 34, 35, 36, 37, 38, 39, 40, 41, 42, 43, 44, 45, 46, 47, 48, 49, 50, 51, 52, 53, 54, 55, 56, 57, 58, 59, 60, 61, 62, 63, 64, 65, 66, 67, 68, 69, 70, 71, 72, 73, 74, 75, 76, 77, 78, 79, 80, 81, 82, 83, 84, 85, 86, 87, 88, 89, 90, 91, 92, 93, 94, 95, 96, 97, 98, 99, 100, 101, 102, 103, 104, 105, 106, 107, 108, 109, 110, 111, 112, 113, 114, 115, 116, 117, 118, 119, 120, 121, 122, 123, 124, 125, 126, 127, 128, 129],
      "AcquisitionTime": ["134955.000000", "134956.490000", "134957.980000", "134959.470000", "135000.960000", "135002.450000", "135003.940000", "135005.430000", "135006.920000", "135008.410000", "135009.900000", "135011.390000", "135012.880000", "135014.370000", "135015.860000", "135017.350000", "135018.840000", "135020.330000", "135021.820000", "135023.310000", "135024.800000", "135026.290000", "135027.780000", "135029.270000", "135030.760000", "135032.250000", "135033.740000", "135035.230000", "135036.720000", "135038.210000", "135039.700000", "135041.190000", "135042.680000", "135044.170000", "135045.660000", "135047.150000", "135048.640000", "135050.130000", "135051.620000", "135053.110000", "135054.600000", "135056.090000", "135057.580000", "135059.070000", "135100.560000", "135102.050000", "135103.540000", "135105.030000", "135106.520000", "135108.010000", "135109.500000", "135110.990000", "135112.480000", "135113.970000", "135115.460000", "135116.950000", "135118.440000", "135119.930000", "135121.420000", "135122.910000", "135124.400000", "135125.890000", "135127.380000", "135128.870000", "135130.360000", "135131.850000", "135133.340000", "135134.830000", "135136.320000", "135137.810000", "135139.300000", "135140.790000", "135142.280000", "135143.770000", "135145.260000", "135146.750000", "135148.240000", "135149.730000", "135151.220000", "135152.710000", "135154.200000", "135155.690000", "135157.180000", "135158.670000", "135200.160000", "135201.650000", "135203.140000", "135204.630000", "135206.120000", "135207.610000", "135209.100000", "135210.590000", "135212.080000", "135213.570000", "135215.060000", "135216.550000", "135218.040000", "135219.530000", "135221.020000", "135222.510000", "135224.000000", "135225.490000", "135226.980000", "135228.470000", "135229.960000", "135231.450000", "135232.940000", "135234.430000", "135235.920000", "135237.410000", "135238.900000", "135240.390000", "135241.880000", "135243.370000", "135244.860000", "135246.350000", "135247.840000", "135249.330000", "135250.820000", "135252.310000", "135253.800000", "135255.290000", "135256.780000", "135258.270000", "135259.760000", "135301.250000", "135302.740000", "135304.230000", "135305.720000"],
      "ContentTime": ["135125.206000", "135125.209000", "135125.212000", "135125.215000", "135125.219000", "135125.222000", "135125.224000", "135125.227000", "135125.231000", "135125.234000", "135125.244000", "135125.247000", "135125.250000", "135125.253000", "135125.256000", "135125.259000", "135125.262000", "135125.265000", "135125.268000", "135125.271000", "135125.274000", "135125.277000", "135125.280000", "135125.283000", "135125.286000", "135125.289000", "135125.292000", "135125.297000", "135125.300000", "135125.303000", "135125.306000", "135125.309000", "135125.312000", "135125.315000", "135125.318000", "135125.321000", "135145.165000", "135145.168000", "135145.171000", "135145.174000", "135145.177000", "135145.181000", "135145.184000", "135145.187000", "135145.190000", "135145.193000", "135145.196000", "135145.199000", "135145.202000", "135145.205000", "135145.208000", "135145.211000", "135145.214000", "135145.217000", "135145.220000", "135145.223000", "135145.226000", "135205.166000", "135205.169000", "135205.172000", "135205.175000", "135205.178000", "135205.181000", "135205.184000", "135205.187000", "135205.190000", "135205.193000", "135205.196000", "135205.199000", "135205.202000", "135205.205000", "135205.208000", "135205.211000", "135205.214000", "135205.217000", "135205.220000", "135205.223000", "135225.166000", "135225.169000", "135225.172000", "135225.175000", "135225.178000", "135225.181000", "135225.184000", "135225.187000", "135225.190000", "135225.193000", "135225.196000", "135225.199000", "135225.202000", "135225.206000", "135225.209000", "135225.212000", "135225.215000", "135225.218000", "135225.221000", "135225.223000", "135305.165000", "135305.168000", "135305.171000", "135305.174000", "135305.178000", "135305.181000", "135305.184000", "135305.187000", "135305.190000", "135305.193000", "135305.196000", "135305.199000", "135305.202000", "135305.205000", "135305.208000", "135305.211000", "135305.214000", "135305.217000", "135305.220000", "135305.223000", "135305.226000", "135305.229000", "135305.232000", "135305.235000", "135305.238000", "135305.241000", "135305.244000", "135305.247000", "135305.250000", "135305.253000", "135307.725000", "135307.728000"],
      "InstanceCreationTime": ["135125.206000", "135125.209000", "135125.212000", "135125.215000", "135125.219000", "135125.222000", "135125.224000", "135125.227000", "135125.231000", "135125.234000", "135125.244000", "135125.247000", "135125.250000", "135125.253000", "135125.256000", "135125.259000", "135125.262000", "135125.265000", "135125.268000", "135125.271000", "135125.274000", "135125.277000", "135125.280000", "135125.283000", "135125.286000", "135125.289000", "135125.292000", "135125.297000", "135125.300000", "135125.303000", "135125.306000", "135125.309000", "135125.312000", "135125.315000", "135125.318000", "135125.321000", "135145.165000", "135145.168000", "135145.171000", "135145.174000", "135145.177000", "135145.181000", "135145.184000", "135145.187000", "135145.190000", "135145.193000", "135145.196000", "135145.199000", "135145.202000", "135145.205000", "135145.208000", "135145.211000", "135145.214000", "135145.217000", "135145.220000", "135145.223000", "135145.226000", "135205.166000", "135205.169000", "135205.172000", "135205.175000", "135205.178000", "135205.181000", "135205.184000", "135205.187000", "135205.190000", "135205.193000", "135205.196000", "135205.199000", "135205.202000", "135205.205000", "135205.208000", "135205.211000", "135205.214000", "135205.217000", "135205.220000", "135205.223000", "135225.166000", "135225.169000", "135225.172000", "135225.175000", "135225.178000", "135225.181000", "135225.184000", "135225.187000", "135225.190000", "135225.193000", "135225.196000", "135225.199000", "135225.202000", "135225.206000", "135225.209000", "135225.212000", "135225.215000", "135225.218000", "135225.221000", "135225.223000", "135305.165000", "135305.168000", "135305.171000", "135305.174000", "135305.178000", "135305.181000", "135305.184000", "135305.187000", "135305.190000", "135305.193000", "135305.196000", "135305.199000", "135305.202000", "135305.205000", "135305.208000", "135305.211000", "135305.214000", "135305.217000", "135305.220000", "135305.223000", "135305.226000", "135305.229000", "135305.232000", "135305.235000", "135305.238000", "135305.241000", "135305.244000", "135305.247000", "135305.250000", "135305.253000", "135307.725000", "135307.728000"],
      "InstanceNumber": [1, 2, 3, 4, 5, 6, 7, 8, 9, 10, 11, 12, 13, 14, 15, 16, 17, 18, 19, 20, 21, 22, 23, 24, 25, 26, 27, 28, 29, 30, 31, 32, 33, 34, 35, 36, 37, 38, 39, 40, 41, 42, 43, 44, 45, 46, 47, 48, 49, 50, 51, 52, 53, 54, 55, 56, 57, 58, 59, 60, 61, 62, 63, 64, 65, 66, 67, 68, 69, 70, 71, 72, 73, 74, 75, 76, 77, 78, 79, 80, 81, 82, 83, 84, 85, 86, 87, 88, 89, 90, 91, 92, 93, 94, 95, 96, 97, 98, 99, 100, 101, 102, 103, 104, 105, 106, 107, 108, 109, 110, 111, 112, 113, 114, 115, 116, 117, 118, 119, 120, 121, 122, 123, 124, 125, 126, 127, 128, 129],
      "LargestImagePixelValue": [42758, 41491, 41495, 41656, 41093, 41488, 40479, 40683, 40740, 40436, 39612, 39546, 39889, 39587, 40127, 40003, 41120, 40635, 40823, 40593, 40783, 40819, 40195, 40236, 40179, 39767, 39841, 40272, 40262, 40113, 40156, 39721, 40303, 40290, 40220, 39935, 39983, 40163, 40335, 39839, 40219, 40378, 40829, 41114, 40554, 40657, 40826, 40644, 40583, 40787, 40618, 41149, 40826, 40475, 40575, 39805, 40064, 39674, 40280, 39838, 39963, 39808, 40786, 41458, 42639, 40607, 40279, 39893, 40375, 40783, 40856, 41341, 41629, 41789, 42211, 42182, 42282, 42196, 41699, 41410, 41374, 41321, 41979, 42062, 41769, 41452, 41206, 41133, 41400, 40802, 41286, 41079, 40688, 40770, 40808, 40641, 40527, 41237, 41048, 41212, 41061, 41387, 41501, 41311, 41293, 41286, 41213, 41123, 41399, 41237, 40881, 41012, 41416, 41845, 41735, 41774, 40513, 40988, 40861, 40860, 41053, 40638, 40820, 40604, 41718, 41466, 40748, 40899, 40941],
      "WindowCenter": [9950.0, 9920.0, 9840.0, 9808.0, 9789.0, 9808.0, 9842.0, 9876.0, 9903.0, 9910.0, 9853.0, 9807.0, 9783.0, 9790.0, 9815.0, 9831.0, 9848.0, 9861.0, 9873.0, 9867.0, 9859.0, 9863.0, 9842.0, 9840.0, 9855.0, 9852.0, 9859.0, 9872.0, 9884.0, 9904.0, 9898.0, 9874.0, 9853.0, 9841.0, 9832.0, 9832.0, 9848.0, 9863.0, 9873.0, 9869.0, 9882.0, 9891.0, 9897.0, 9890.0, 9891.0, 9883.0, 9858.0, 9834.0, 9821.0, 9813.0, 9810.0, 9809.0, 9807.0, 9811.0, 9844.0, 9857.0, 9859.0, 9861.0, 9859.0, 9836.0, 9820.0, 9829.0, 9853.0, 9867.0, 9874.0, 9826.0, 9791.0, 9762.0, 9758.0, 9766.0, 9788.0, 9832.0, 9852.0, 9859.0, 9850.0, 9849.0, 9846.0, 9838.0, 9831.0, 9825.0, 9842.0, 9858.0, 9882.0, 9889.0, 9874.0, 9858.0, 9848.0, 9841.0, 9841.0, 9844.0, 9850.0, 9850.0, 9853.0, 9844.0, 9851.0, 9852.0, 9859.0, 9866.0, 9867.0, 9875.0, 9869.0, 9876.0, 9884.0, 9876.0, 9870.0, 9858.0, 9873.0, 9867.0, 9857.0, 9841.0, 9815.0, 9789.0, 9784.0, 9789.0, 9797.0, 9812.0, 9828.0, 9854.0, 9855.0, 9849.0, 9834.0, 9822.0, 9822.0, 9813.0, 9830.0, 9831.0, 9818.0, 9817.0, 9814.0],
      "WindowWidth": [21281.0, 21186.0, 20986.0, 20901.0, 20854.0, 20898.0, 20989.0, 21053.0, 21115.0, 21129.0, 21001.0, 20894.0, 20837.0, 20857.0, 20913.0, 20946.0, 20980.0, 21010.0, 21039.0, 21025.0, 21008.0, 21012.0, 20969.0, 20966.0, 20996.0, 20995.0, 21009.0, 21033.0, 21065.0, 21109.0, 21098.0, 21043.0, 20994.0, 20963.0, 20947.0, 20947.0, 20981.0, 21015.0, 21037.0, 21033.0, 21058.0, 21080.0, 21093.0, 21076.0, 21080.0, 21062.0, 21004.0, 20955.0, 20924.0, 20904.0, 20896.0, 20891.0, 20888.0, 20899.0, 20972.0, 21005.0, 21010.0, 21016.0, 21009.0, 20958.0, 20925.0, 20948.0, 20995.0, 21025.0, 21040.0, 20944.0, 20863.0, 20796.0, 20783.0, 20802.0, 20847.0, 20948.0, 20993.0, 21006.0, 20986.0, 20980.0, 20971.0, 20952.0, 20939.0, 20928.0, 20965.0, 21001.0, 21055.0, 21071.0, 21040.0, 21006.0, 20985.0, 20974.0, 20973.0, 20981.0, 20992.0, 20991.0, 21006.0, 20979.0, 20994.0, 21000.0, 21015.0, 21029.0, 21031.0, 21048.0, 21037.0, 21051.0, 21067.0, 21047.0, 21037.0, 21008.0, 21045.0, 21030.0, 21010.0, 20972.0, 20914.0, 20856.0, 20842.0, 20848.0, 20864.0, 20898.0, 20937.0, 20995.0, 20999.0, 20988.0, 20958.0, 20931.0, 20928.0, 20910.0, 20942.0, 20947.0, 20924.0, 20922.0, 20914.0]
    },
    "slices": {}
  }
}