{
  "AcquisitionMatrixPE": 104,
  "AcquisitionNumber": 1,
  "AcquisitionTime": "18:12:53.152500",
  "BandwidthPerPixelPhaseEncode": 17.17,
  "BaseResolution": 104,
  "BodyPartExamined": "BRAIN",
  "CoilString": "HC1-7;NC1_2",
  "ConsistencyInfo": "N4_VE11C_LATEST_20160120",
  "ConversionSoftware": "dcm2niix",
  "ConversionSoftwareVersion": "v1.0.20190720  (JP2:OpenJPEG) GCC7.3.0",
  "DerivedVendorReportedEchoSpacing": 0.000560011,
  "DeviceSerialNumber": "167006",
  "DwellTime": 2.1e-06,
  "EchoTime": 0.037,
  "EchoTrainLength": 104,
  "EffectiveEchoSpacing": 0.000560011,
  "FlipAngle": 52,
  "ImageComments": "Unaliased_MB4_PE3_LB",
  "ImageOrientationPatientDICOM": [0.999412, -0.0195948, -0.0281238, 0.00523298, 0.898094, -0.439772],
  "ImageType": [
    "ORIGINAL",
    "PRIMARY",
    "M",
    "MB",
    "ND",
    "MOSAIC"
],
  "ImagingFrequency": 123.259,
  "InPlanePhaseEncodingDirectionDICOM": "COL",
  "InstitutionAddress": "Chemin_Queen-Mary_4565_Montreal_District_CA_H3W_1W5",
  "InstitutionName": "IUGM",
  "InstitutionalDepartmentName": "Department",
  "MRAcquisitionType": "2D",
  "MagneticFieldStrength": 3,
  "Manufacturer": "Siemens",
  "ManufacturersModelName": "Prisma_fit",
  "Modality": "MR",
  "MultibandAccelerationFactor": 4,
  "PartialFourier": 1,
  "PatientPosition": "HFS",
  "PercentPhaseFOV": 100,
  "PhaseEncodingDirection": "j",
  "PhaseEncodingSteps": 104,
  "PhaseResolution": 1,
  "PixelBandwidth": 2290,
  "ProcedureStepDescription": "hcptrt_generic",
  "ProtocolName": "func_task-relational_run-2",
  "PulseSequenceDetails": "%CustomerSeq%_cmrr_mbep2d_bold",
  "ReceiveCoilActiveElements": "HC1-7;NC1,2",
  "ReceiveCoilName": "HeadNeck_64",
  "ReconMatrixPE": 104,
  "RepetitionTime": 1.49,
  "SAR": 0.033676,
  "ScanOptions": "FS",
  "ScanningSequence": "EP",
  "SequenceName": "epfid2d1_104",
  "SequenceVariant": "SK_SS",
  "SeriesDescription": "func_task-relational_run-2",
  "SeriesNumber": 34,
  "ShimSetting": [622, -7236, -8875, 408, 60, -407, -7, 61],
  "SliceThickness": 2,
  "SliceTiming": [0, 0.7825, 0.0975, 0.88, 0.195, 0.98, 0.2925, 1.0775, 0.39, 1.175, 0.49, 1.2725, 0.5875, 1.37, 0.685, 0, 0.7825, 0.0975, 0.88, 0.195, 0.98, 0.2925, 1.0775, 0.39, 1.175, 0.49, 1.2725, 0.5875, 1.37, 0.685, 0, 0.7825, 0.0975, 0.88, 0.195, 0.98, 0.2925, 1.0775, 0.39, 1.175, 0.49, 1.2725, 0.5875, 1.37, 0.685, 0, 0.7825, 0.0975, 0.88, 0.195, 0.98, 0.2925, 1.0775, 0.39, 1.175, 0.49, 1.2725, 0.5875, 1.37, 0.685],
  "SoftwareVersions": "syngo_MR_E11",
  "SpacingBetweenSlices": 2,
  "StationName": "MRC35049",
  "TaskName": "relational",
  "TotalReadoutTime": 0.0576811,
  "TxRefAmp": 236.153,
  "WipMemBlock": "677aa965-243a-406c-a41a-620334c9cd40||Sequence: R016 ve11c/master r/e634e98; Dec 19 2017 11:00:25 by eja",
  "dcmmeta_affine": [
    [-1.9988247156143188, 0.010465950705111027, -0.06775003671646118, 105.18067169189453],
    [0.03918950632214546, 1.7961888313293457, -0.8787320852279663, -58.45859146118164],
    [-0.05624754726886749, 0.8795432448387146, 1.7953383922576904, -79.86425018310547],
    [0.0, 0.0, 0.0, 1.0]
],
  "dcmmeta_reorient_transform": [
    [0.0, -1.0, 0.0, 103.0],
    [1.0, 0.0, 0.0, 0.0],
    [0.0, 0.0, 1.0, 0.0],
    [0.0, 0.0, 0.0, 1.0]
],
  "dcmmeta_shape": [104, 104, 60, 119],
  "dcmmeta_slice_dim": 2,
  "dcmmeta_version": 0.6,
  "global": {
    "const": {
      "AcquisitionMatrix": [104, 0, 0, 104],
      "AngioFlag": "N",
      "BitsAllocated": 16,
      "BitsStored": 16,
      "BodyPartExamined": "BRAIN",
      "Columns": 832,
      "EchoNumbers": 1,
      "EchoTime": 37.0,
      "EchoTrainLength": 104,
      "FlipAngle": 52.0,
      "HighBit": 15,
      "ImageOrientationPatient": [0.99941237687072, -0.019594753348, -0.0281237728418, 0.005232975487, 0.89809438627206, -0.4397716331395],
      "ImagePositionPatient": [-837.64048400391, -766.09658533986, 351.35656276788],
      "ImageType": [
        "ORIGINAL",
        "PRIMARY",
        "M",
        "MB",
        "ND",
        "MOSAIC"
],
      "ImagedNucleus": "1H",
      "ImagingFrequency": 123.259457,
      "InPlanePhaseEncodingDirection": "COL",
      "MRAcquisitionType": "2D",
      "MagneticFieldStrength": 3.0,
      "Manufacturer": "SIEMENS",
      "ManufacturerModelName": "Prisma_fit",
      "Modality": "MR",
      "NumberOfAverages": 1.0,
      "NumberOfPhaseEncodingSteps": 104,
      "PercentPhaseFieldOfView": 100.0,
      "PercentSampling": 100.0,
      "PerformedProcedureStepStartTime": "171349.034000",
      "PhotometricInterpretation": "MONOCHROME2",
      "PixelBandwidth": 2290.0,
      "PixelRepresentation": 0,
      "PixelSpacing": [2.0, 2.0],
      "ProtocolName": "func_task-relational_run-2",
      "RepetitionTime": 1490.0,
      "Rows": 832,
      "SAR": 0.03367600539455,
      "SamplesPerPixel": 1,
      "ScanOptions": "FS",
      "ScanningSequence": "EP",
      "SequenceName": "epfid2d1_104",
      "SequenceVariant": [
        "SK",
        "SS"
],
      "SeriesDescription": "func_task-relational_run-2",
      "SeriesNumber": 34,
      "SeriesTime": "181413.762000",
      "SliceLocation": -49.56995304136,
      "SliceThickness": 2.0,
      "SmallestImagePixelValue": 0,
      "SoftwareVersions": "syngo MR E11",
      "SpacingBetweenSlices": 1.9999999655727,
      "SpecificCharacterSet": "ISO_IR 100",
      "StudyID": "1",
      "StudyTime": "171348.975000",
      "TransmitCoilName": "Body",
      "VariableFlipAngleFlag": "N",
      "WindowCenterWidthExplanation": "Algo1",
      "dBdt": 0.0},
    "slices": {}
  },
  "time": {
    "samples": {
      "AcquisitionNumber": [1, 2, 3, 4, 5, 6, 7, 8, 9, 10, 11, 12, 13, 14, 15, 16, 17, 18, 19, 20, 21, 22, 23, 24, 25, 26, 27, 28, 29, 30, 31, 32, 33, 34, 35, 36, 37, 38, 39, 40, 41, 42, 43, 44, 45, 46, 47, 48, 49, 50, 51, 52, 53, 54, 55, 56, 57, 58, 59, 60, 61, 62, 63, 64, 65, 66, 67, 68, 69, 70, 71, 72, 73, 74, 75, 76, 77, 78, 79, 80, 81, 82, 83, 84, 85, 86, 87, 88, 89, 90, 91, 92, 93, 94, 95, 96, 97, 98, 99, 100, 101, 102, 103, 104, 105, 106, 107, 108, 109, 110, 111, 112, 113, 114, 115, 116, 117, 118, 119],
      "AcquisitionTime": ["181253.152500", "181254.642500", "181256.132500", "181257.622500", "181259.112500", "181300.602500", "181302.092500", "181303.582500", "181305.072500", "181306.562500", "181308.052500", "181309.542500", "181311.032500", "181312.522500", "181314.012500", "181315.502500", "181316.992500", "181318.482500", "181319.972500", "181321.462500", "181322.952500", "181324.442500", "181325.932500", "181327.422500", "181328.912500", "181330.402500", "181331.892500", "181333.382500", "181334.872500", "181336.362500", "181337.852500", "181339.342500", "181340.832500", "181342.322500", "181343.812500", "181345.302500", "181346.792500", "181348.282500", "181349.772500", "181351.262500", "181352.752500", "181354.242500", "181355.732500", "181357.222500", "181358.712500", "181400.202500", "181401.692500", "181403.182500", "181404.672500", "181406.162500", "181407.652500", "181409.142500", "181410.632500", "181412.122500", "181413.612500", "181415.102500", "181416.592500", "181418.082500", "181419.572500", "181421.062500", "181422.552500", "181424.042500", "181425.532500", "181427.022500", "181428.512500", "181430.002500", "181431.492500", "181432.982500", "181434.472500", "181435.962500", "181437.452500", "181438.942500", "181440.432500", "181441.922500", "181443.412500", "181444.902500", "181446.392500", "181447.882500", "181449.372500", "181450.862500", "181452.352500", "181453.842500", "181455.332500", "181456.822500", "181458.312500", "181459.802500", "181501.292500", "181502.782500", "181504.272500", "181505.762500", "181507.252500", "181508.742500", "181510.232500", "181511.722500", "181513.212500", "181514.702500", "181516.192500", "181517.682500", "181519.172500", "181520.662500", "181522.152500", "181523.642500", "181525.132500", "181526.622500", "181528.112500", "181529.602500", "181531.092500", "181532.582500", "181534.072500", "181535.562500", "181537.052500", "181538.542500", "181540.032500", "181541.522500", "181543.012500", "181544.502500", "181545.992500", "181547.482500", "181548.972500"],
      "ContentTime": ["181413.765000", "181413.768000", "181413.771000", "181413.774000", "181413.777000", "181413.780000", "181413.783000", "181413.785000", "181413.788000", "181413.791000", "181413.794000", "181413.797000", "181413.800000", "181413.802000", "181413.814000", "181413.817000", "181413.820000", "181413.823000", "181413.831000", "181413.834000", "181413.836000", "181413.839000", "181413.842000", "181413.845000", "181413.848000", "181413.851000", "181413.854000", "181433.733000", "181433.736000", "181433.739000", "181433.742000", "181433.745000", "181433.747000", "181433.750000", "181433.753000", "181433.756000", "181433.759000", "181433.762000", "181433.765000", "181433.767000", "181433.770000", "181433.773000", "181433.776000", "181433.784000", "181433.787000", "181433.790000", "181433.793000", "181433.796000", "181453.734000", "181453.737000", "181453.740000", "181453.743000", "181453.761000", "181453.764000", "181453.767000", "181453.776000", "181453.778000", "181453.781000", "181453.784000", "181453.787000", "181453.790000", "181453.793000", "181453.795000", "181453.798000", "181453.801000", "181453.804000", "181453.807000", "181453.810000", "181513.734000", "181513.737000", "181513.740000", "181513.743000", "181513.746000", "181513.748000", "181513.751000", "181513.754000", "181513.757000", "181513.760000", "181513.763000", "181513.766000", "181513.769000", "181513.772000", "181513.775000", "181513.778000", "181513.781000", "181513.784000", "181513.787000", "181513.789000", "181551.194000", "181551.197000", "181551.200000", "181551.203000", "181551.211000", "181551.214000", "181551.216000", "181551.219000", "181551.222000", "181551.225000", "181551.228000", "181551.231000", "181551.234000", "181551.236000", "181551.239000", "181551.242000", "181551.245000", "181551.248000", "181551.251000", "181551.254000", "181551.256000", "181551.259000", "181551.262000", "181551.265000", "181551.268000", "181551.271000", "181551.274000", "181551.277000", "181551.280000", "181551.287000", "181551.289000"],
      "InstanceCreationTime": ["181413.765000", "181413.768000", "181413.771000", "181413.774000", "181413.777000", "181413.780000", "181413.783000", "181413.785000", "181413.788000", "181413.791000", "181413.794000", "181413.797000", "181413.800000", "181413.802000", "181413.814000", "181413.817000", "181413.820000", "181413.823000", "181413.831000", "181413.834000", "181413.836000", "181413.839000", "181413.842000", "181413.845000", "181413.848000", "181413.851000", "181413.854000", "181433.733000", "181433.736000", "181433.739000", "181433.742000", "181433.745000", "181433.747000", "181433.750000", "181433.753000", "181433.756000", "181433.759000", "181433.762000", "181433.765000", "181433.767000", "181433.770000", "181433.773000", "181433.776000", "181433.784000", "181433.787000", "181433.790000", "181433.793000", "181433.796000", "181453.734000", "181453.737000", "181453.740000", "181453.743000", "181453.761000", "181453.764000", "181453.767000", "181453.776000", "181453.778000", "181453.781000", "181453.784000", "181453.787000", "181453.790000", "181453.793000", "181453.795000", "181453.798000", "181453.801000", "181453.804000", "181453.807000", "181453.810000", "181513.734000", "181513.737000", "181513.740000", "181513.743000", "181513.746000", "181513.748000", "181513.751000", "181513.754000", "181513.757000", "181513.760000", "181513.763000", "181513.766000", "181513.769000", "181513.772000", "181513.775000", "181513.778000", "181513.781000", "181513.784000", "181513.787000", "181513.789000", "181551.194000", "181551.197000", "181551.200000", "181551.203000", "181551.211000", "181551.214000", "181551.216000", "181551.219000", "181551.222000", "181551.225000", "181551.228000", "181551.231000", "181551.234000", "181551.236000", "181551.239000", "181551.242000", "181551.245000", "181551.248000", "181551.251000", "181551.254000", "181551.256000", "181551.259000", "181551.262000", "181551.265000", "181551.268000", "181551.271000", "181551.274000", "181551.277000", "181551.280000", "181551.287000", "181551.289000"],
      "InstanceNumber": [1, 2, 3, 4, 5, 6, 7, 8, 9, 10, 11, 12, 13, 14, 15, 16, 17, 18, 19, 20, 21, 22, 23, 24, 25, 26, 27, 28, 29, 30, 31, 32, 33, 34, 35, 36, 37, 38, 39, 40, 41, 42, 43, 44, 45, 46, 47, 48, 49, 50, 51, 52, 53, 54, 55, 56, 57, 58, 59, 60, 61, 62, 63, 64, 65, 66, 67, 68, 69, 70, 71, 72, 73, 74, 75, 76, 77, 78, 79, 80, 81, 82, 83, 84, 85, 86, 87, 88, 89, 90, 91, 92, 93, 94, 95, 96, 97, 98, 99, 100, 101, 102, 103, 104, 105, 106, 107, 108, 109, 110, 111, 112, 113, 114, 115, 116, 117, 118, 119],
      "LargestImagePixelValue": [55681, 54383, 52987, 52666, 52541, 52504, 52263, 52499, 52560, 52809, 52674, 52707, 52717, 52952, 52549, 53128, 52869, 53226, 52872, 53002, 53037, 52893, 52920, 52921, 53242, 52842, 52227, 53020, 53134, 53030, 53097, 52924, 52700, 52970, 54161, 53642, 52888, 52754, 52029, 52167, 52033, 51845, 52329, 52252, 53173, 52820, 53113, 52168, 52877, 52351, 52282, 52509, 52539, 52169, 52412, 52379, 53247, 53001, 53057, 52474, 52851, 52091, 52690, 52346, 52384, 52697, 52560, 53124, 51973, 52911, 52282, 52861, 53112, 51949, 52603, 52797, 52638, 52207, 53410, 52496, 53135, 52812, 53185, 52106, 53225, 52489, 53225, 53037, 52924, 53331, 52998, 53290, 52225, 52756, 53061, 52613, 52558, 52599, 52918, 52452, 52676, 52446, 52270, 53263, 52469, 53337, 52818, 52898, 52402, 53100, 52503, 53487, 53188, 53271, 52530, 52504, 53062, 52899, 52759],
      "WindowCenter": [10420.0, 10343.0, 10300.0, 10290.0, 10296.0, 10295.0, 10287.0, 10276.0, 10271.0, 10268.0, 10275.0, 10284.0, 10300.0, 10305.0, 10306.0, 10318.0, 10312.0, 10318.0, 10315.0, 10328.0, 10327.0, 10316.0, 10315.0, 10304.0, 10303.0, 10304.0, 10298.0, 10318.0, 10316.0, 10313.0, 10311.0, 10306.0, 10299.0, 10318.0, 10335.0, 10323.0, 10290.0, 10272.0, 10248.0, 10240.0, 10253.0, 10245.0, 10245.0, 10230.0, 10250.0, 10282.0, 10301.0, 10293.0, 10297.0, 10291.0, 10279.0, 10283.0, 10290.0, 10301.0, 10310.0, 10310.0, 10318.0, 10331.0, 10324.0, 10309.0, 10306.0, 10294.0, 10313.0, 10310.0, 10318.0, 10326.0, 10329.0, 10332.0, 10308.0, 10305.0, 10294.0, 10297.0, 10290.0, 10278.0, 10287.0, 10303.0, 10324.0, 10321.0, 10323.0, 10293.0, 10289.0, 10279.0, 10285.0, 10292.0, 10315.0, 10307.0, 10328.0, 10303.0, 10296.0, 10293.0, 10284.0, 10284.0, 10288.0, 10295.0, 10295.0, 10290.0, 10298.0, 10308.0, 10316.0, 10304.0, 10306.0, 10299.0, 10296.0, 10317.0, 10317.0, 10318.0, 10309.0, 10305.0, 10283.0, 10314.0, 10299.0, 10304.0, 10313.0, 10334.0, 10319.0, 10316.0, 10317.0, 10315.0, 10307.0],
      "WindowWidth": [22478.0, 22265.0, 22140.0, 22107.0, 22112.0, 22102.0, 22084.0, 22057.0, 22043.0, 22036.0, 22051.0, 22071.0, 22106.0, 22121.0, 22123.0, 22152.0, 22134.0, 22147.0, 22143.0, 22169.0, 22166.0, 22144.0, 22145.0, 22117.0, 22114.0, 22118.0, 22108.0, 22149.0, 22151.0, 22140.0, 22133.0, 22127.0, 22107.0, 22144.0, 22180.0, 22156.0, 22079.0, 22044.0, 21987.0, 21969.0, 21996.0, 21984.0, 21981.0, 21948.0, 21990.0, 22060.0, 22106.0, 22094.0, 22101.0, 22087.0, 22064.0, 22071.0, 22085.0, 22110.0, 22131.0, 22132.0, 22148.0, 22174.0, 22161.0, 22127.0, 22117.0, 22097.0, 22132.0, 22128.0, 22147.0, 22163.0, 22178.0, 22175.0, 22128.0, 22121.0, 22095.0, 22101.0, 22084.0, 22066.0, 22074.0, 22113.0, 22159.0, 22156.0, 22153.0, 22089.0, 22077.0, 22057.0, 22071.0, 22092.0, 22145.0, 22122.0, 22169.0, 22108.0, 22090.0, 22083.0, 22064.0, 22063.0, 22076.0, 22091.0, 22091.0, 22085.0, 22100.0, 22125.0, 22142.0, 22120.0, 22121.0, 22106.0, 22101.0, 22149.0, 22146.0, 22148.0, 22125.0, 22117.0, 22068.0, 22133.0, 22103.0, 22109.0, 22139.0, 22192.0, 22157.0, 22145.0, 22147.0, 22141.0, 22123.0]
    },
    "slices": {}
  }
}