{
  "AcquisitionMatrixPE": 104,
  "AcquisitionNumber": 1,
  "AcquisitionTime": "17:46:29.567500",
  "BandwidthPerPixelPhaseEncode": 17.17,
  "BaseResolution": 104,
  "BodyPartExamined": "BRAIN",
  "CoilString": "HC1-7;NC1_2",
  "ConsistencyInfo": "N4_VE11C_LATEST_20160120",
  "ConversionSoftware": "dcm2niix",
  "ConversionSoftwareVersion": "v1.0.20190720  (JP2:OpenJPEG) GCC7.3.0",
  "DerivedVendorReportedEchoSpacing": 0.000560011,
  "DeviceSerialNumber": "167006",
  "DwellTime": 2.1e-06,
  "EchoTime": 0.037,
  "EchoTrainLength": 104,
  "EffectiveEchoSpacing": 0.000560011,
  "FlipAngle": 52,
  "ImageComments": "Unaliased_MB4_PE3_LB",
  "ImageOrientationPatientDICOM": [0.999412, -0.0195948, -0.0281238, 0.00523298, 0.898094, -0.439772],
  "ImageType": [
    "ORIGINAL",
    "PRIMARY",
    "M",
    "MB",
    "ND",
    "MOSAIC"
],
  "ImagingFrequency": 123.259,
  "InPlanePhaseEncodingDirectionDICOM": "COL",
  "InstitutionAddress": "Chemin_Queen-Mary_4565_Montreal_District_CA_H3W_1W5",
  "InstitutionName": "IUGM",
  "InstitutionalDepartmentName": "Department",
  "MRAcquisitionType": "2D",
  "MagneticFieldStrength": 3,
  "Manufacturer": "Siemens",
  "ManufacturersModelName": "Prisma_fit",
  "Modality": "MR",
  "MultibandAccelerationFactor": 4,
  "PartialFourier": 1,
  "PatientPosition": "HFS",
  "PercentPhaseFOV": 100,
  "PhaseEncodingDirection": "j",
  "PhaseEncodingSteps": 104,
  "PhaseResolution": 1,
  "PixelBandwidth": 2290,
  "ProcedureStepDescription": "hcptrt_generic",
  "ProtocolName": "func_task-motor_run-1",
  "PulseSequenceDetails": "%CustomerSeq%_cmrr_mbep2d_bold",
  "ReceiveCoilActiveElements": "HC1-7;NC1,2",
  "ReceiveCoilName": "HeadNeck_64",
  "ReconMatrixPE": 104,
  "RepetitionTime": 1.49,
  "SAR": 0.0337671,
  "ScanOptions": "FS",
  "ScanningSequence": "EP",
  "SequenceName": "epfid2d1_104",
  "SequenceVariant": "SK_SS",
  "SeriesDescription": "func_task-motor_run-1",
  "SeriesNumber": 17,
  "ShimSetting": [622, -7236, -8875, 408, 60, -407, -7, 61],
  "SliceThickness": 2,
  "SliceTiming": [0, 0.785, 0.1, 0.8825, 0.1975, 0.98, 0.295, 1.0775, 0.3925, 1.1775, 0.49, 1.275, 0.5875, 1.3725, 0.6875, 0, 0.785, 0.1, 0.8825, 0.1975, 0.98, 0.295, 1.0775, 0.3925, 1.1775, 0.49, 1.275, 0.5875, 1.3725, 0.6875, 0, 0.785, 0.1, 0.8825, 0.1975, 0.98, 0.295, 1.0775, 0.3925, 1.1775, 0.49, 1.275, 0.5875, 1.3725, 0.6875, 0, 0.785, 0.1, 0.8825, 0.1975, 0.98, 0.295, 1.0775, 0.3925, 1.1775, 0.49, 1.275, 0.5875, 1.3725, 0.6875],
  "SoftwareVersions": "syngo_MR_E11",
  "SpacingBetweenSlices": 2,
  "StationName": "MRC35049",
  "TaskName": "motor",
  "TotalReadoutTime": 0.0576811,
  "TxRefAmp": 236.153,
  "WipMemBlock": "9ae8f3a9-d65e-460f-a7c8-8b342a2916bd||Sequence: R016 ve11c/master r/e634e98; Dec 19 2017 11:00:25 by eja",
  "dcmmeta_affine": [
    [-1.9988247156143188, 0.010465950705111027, -0.06775003671646118, 105.18067169189453],
    [0.03918950632214546, 1.7961888313293457, -0.8787320852279663, -58.45859146118164],
    [-0.05624754726886749, 0.8795432448387146, 1.7953383922576904, -79.86425018310547],
    [0.0, 0.0, 0.0, 1.0]
],
  "dcmmeta_reorient_transform": [
    [0.0, -1.0, 0.0, 103.0],
    [1.0, 0.0, 0.0, 0.0],
    [0.0, 0.0, 1.0, 0.0],
    [0.0, 0.0, 0.0, 1.0]
],
  "dcmmeta_shape": [104, 104, 60, 144],
  "dcmmeta_slice_dim": 2,
  "dcmmeta_version": 0.6,
  "global": {
    "const": {
      "AcquisitionMatrix": [104, 0, 0, 104],
      "AngioFlag": "N",
      "BitsAllocated": 16,
      "BitsStored": 16,
      "BodyPartExamined": "BRAIN",
      "Columns": 832,
      "EchoNumbers": 1,
      "EchoTime": 37.0,
      "EchoTrainLength": 104,
      "FlipAngle": 52.0,
      "HighBit": 15,
      "ImageOrientationPatient": [0.99941237687072, -0.019594753348, -0.0281237728418, 0.005232975487, 0.89809438627206, -0.4397716331395],
      "ImagePositionPatient": [-837.64048400391, -766.09658533986, 351.35656276788],
      "ImageType": [
        "ORIGINAL",
        "PRIMARY",
        "M",
        "MB",
        "ND",
        "MOSAIC"
],
      "ImagedNucleus": "1H",
      "ImagingFrequency": 123.259452,
      "InPlanePhaseEncodingDirection": "COL",
      "MRAcquisitionType": "2D",
      "MagneticFieldStrength": 3.0,
      "Manufacturer": "SIEMENS",
      "ManufacturerModelName": "Prisma_fit",
      "Modality": "MR",
      "NumberOfAverages": 1.0,
      "NumberOfPhaseEncodingSteps": 104,
      "PercentPhaseFieldOfView": 100.0,
      "PercentSampling": 100.0,
      "PerformedProcedureStepStartTime": "171349.034000",
      "PhotometricInterpretation": "MONOCHROME2",
      "PixelBandwidth": 2290.0,
      "PixelRepresentation": 0,
      "PixelSpacing": [2.0, 2.0],
      "ProtocolName": "func_task-motor_run-1",
      "RepetitionTime": 1490.0,
      "Rows": 832,
      "SAR": 0.03376712582181,
      "SamplesPerPixel": 1,
      "ScanOptions": "FS",
      "ScanningSequence": "EP",
      "SequenceName": "epfid2d1_104",
      "SequenceVariant": [
        "SK",
        "SS"
],
      "SeriesDescription": "func_task-motor_run-1",
      "SeriesNumber": 17,
      "SeriesTime": "174745.557000",
      "SliceLocation": -49.56995304136,
      "SliceThickness": 2.0,
      "SmallestImagePixelValue": 0,
      "SoftwareVersions": "syngo MR E11",
      "SpacingBetweenSlices": 1.9999999655727,
      "SpecificCharacterSet": "ISO_IR 100",
      "StudyID": "1",
      "StudyTime": "171348.975000",
      "TransmitCoilName": "Body",
      "VariableFlipAngleFlag": "N",
      "WindowCenterWidthExplanation": "Algo1",
      "dBdt": 0.0},
    "slices": {}
  },
  "time": {
    "samples": {
      "AcquisitionNumber": [1, 2, 3, 4, 5, 6, 7, 8, 9, 10, 11, 12, 13, 14, 15, 16, 17, 18, 19, 20, 21, 22, 23, 24, 25, 26, 27, 28, 29, 30, 31, 32, 33, 34, 35, 36, 37, 38, 39, 40, 41, 42, 43, 44, 45, 46, 47, 48, 49, 50, 51, 52, 53, 54, 55, 56, 57, 58, 59, 60, 61, 62, 63, 64, 65, 66, 67, 68, 69, 70, 71, 72, 73, 74, 75, 76, 77, 78, 79, 80, 81, 82, 83, 84, 85, 86, 87, 88, 89, 90, 91, 92, 93, 94, 95, 96, 97, 98, 99, 100, 101, 102, 103, 104, 105, 106, 107, 108, 109, 110, 111, 112, 113, 114, 115, 116, 117, 118, 119, 120, 121, 122, 123, 124, 125, 126, 127, 128, 129, 130, 131, 132, 133, 134, 135, 136, 137, 138, 139, 140, 141, 142, 143, 144],
      "AcquisitionTime": ["174629.567500", "174631.057500", "174632.547500", "174634.037500", "174635.527500", "174637.017500", "174638.507500", "174639.997500", "174641.487500", "174642.977500", "174644.467500", "174645.957500", "174647.447500", "174648.937500", "174650.427500", "174651.917500", "174653.407500", "174654.897500", "174656.387500", "174657.877500", "174659.367500", "174700.857500", "174702.347500", "174703.837500", "174705.327500", "174706.817500", "174708.307500", "174709.797500", "174711.287500", "174712.777500", "174714.267500", "174715.757500", "174717.247500", "174718.737500", "174720.227500", "174721.717500", "174723.207500", "174724.697500", "174726.187500", "174727.677500", "174729.167500", "174730.657500", "174732.147500", "174733.637500", "174735.127500", "174736.617500", "174738.107500", "174739.597500", "174741.087500", "174742.577500", "174744.067500", "174745.557500", "174747.047500", "174748.537500", "174750.027500", "174751.517500", "174753.007500", "174754.497500", "174755.987500", "174757.477500", "174758.967500", "174800.457500", "174801.947500", "174803.437500", "174804.927500", "174806.417500", "174807.907500", "174809.397500", "174810.887500", "174812.377500", "174813.867500", "174815.357500", "174816.847500", "174818.337500", "174819.827500", "174821.317500", "174822.807500", "174824.297500", "174825.787500", "174827.277500", "174828.767500", "174830.257500", "174831.747500", "174833.237500", "174834.727500", "174836.217500", "174837.707500", "174839.197500", "174840.687500", "174842.177500", "174843.667500", "174845.157500", "174846.647500", "174848.137500", "174849.627500", "174851.117500", "174852.607500", "174854.097500", "174855.587500", "174857.077500", "174858.567500", "174900.057500", "174901.547500", "174903.037500", "174904.527500", "174906.017500", "174907.507500", "174908.997500", "174910.487500", "174911.977500", "174913.467500", "174914.957500", "174916.447500", "174917.937500", "174919.427500", "174920.917500", "174922.407500", "174923.897500", "174925.387500", "174926.877500", "174928.367500", "174929.857500", "174931.347500", "174932.837500", "174934.327500", "174935.817500", "174937.307500", "174938.797500", "174940.287500", "174941.777500", "174943.267500", "174944.757500", "174946.247500", "174947.737500", "174949.227500", "174950.717500", "174952.207500", "174953.697500", "174955.187500", "174956.677500", "174958.167500", "174959.657500", "175001.147500", "175002.637500"],
      "ContentTime": ["174745.560000", "174745.570000", "174745.573000", "174745.576000", "174745.582000", "174745.585000", "174745.587000", "174745.590000", "174745.593000", "174745.596000", "174745.599000", "174745.602000", "174745.605000", "174745.607000", "174745.616000", "174745.619000", "174745.622000", "174745.625000", "174745.628000", "174745.630000", "174745.633000", "174745.636000", "174805.527000", "174805.530000", "174805.533000", "174805.536000", "174805.539000", "174805.541000", "174805.544000", "174805.547000", "174805.550000", "174805.553000", "174805.556000", "174805.559000", "174805.561000", "174805.564000", "174805.567000", "174805.570000", "174805.581000", "174805.584000", "174805.587000", "174805.589000", "174825.527000", "174825.530000", "174825.533000", "174825.536000", "174825.538000", "174825.541000", "174825.544000", "174825.547000", "174825.550000", "174825.553000", "174825.556000", "174825.558000", "174825.561000", "174825.564000", "174825.567000", "174825.570000", "174825.572000", "174825.575000", "174825.578000", "174825.581000", "174845.527000", "174845.530000", "174845.533000", "174845.536000", "174845.539000", "174845.541000", "174845.544000", "174845.547000", "174845.550000", "174845.553000", "174845.555000", "174845.558000", "174845.561000", "174845.564000", "174845.567000", "174845.570000", "174845.573000", "174845.575000", "174845.578000", "174845.581000", "174845.584000", "174905.527000", "174905.530000", "174905.533000", "174905.535000", "174905.538000", "174905.541000", "174905.544000", "174905.547000", "174905.550000", "174905.553000", "174905.555000", "174905.558000", "174905.561000", "174905.564000", "174905.567000", "174905.570000", "174905.572000", "174905.575000", "174905.578000", "174905.581000", "174945.526000", "174945.529000", "174945.532000", "174945.535000", "174945.538000", "174945.541000", "174945.543000", "174945.546000", "174945.549000", "174945.552000", "174945.555000", "174945.558000", "174945.561000", "174945.564000", "174945.567000", "174945.570000", "174945.572000", "174945.575000", "174945.578000", "174945.581000", "174945.584000", "174945.587000", "174945.590000", "174945.593000", "174945.596000", "174945.604000", "174945.607000", "174945.610000", "175004.586000", "175004.589000", "175004.592000", "175004.595000", "175004.598000", "175004.601000", "175004.604000", "175004.606000", "175004.609000", "175004.612000", "175004.615000", "175004.618000", "175004.621000"],
      "InstanceCreationTime": ["174745.560000", "174745.570000", "174745.573000", "174745.576000", "174745.582000", "174745.585000", "174745.587000", "174745.590000", "174745.593000", "174745.596000", "174745.599000", "174745.602000", "174745.605000", "174745.607000", "174745.616000", "174745.619000", "174745.622000", "174745.625000", "174745.628000", "174745.630000", "174745.633000", "174745.636000", "174805.527000", "174805.530000", "174805.533000", "174805.536000", "174805.539000", "174805.541000", "174805.544000", "174805.547000", "174805.550000", "174805.553000", "174805.556000", "174805.559000", "174805.561000", "174805.564000", "174805.567000", "174805.570000", "174805.581000", "174805.584000", "174805.587000", "174805.589000", "174825.527000", "174825.530000", "174825.533000", "174825.536000", "174825.538000", "174825.541000", "174825.544000", "174825.547000", "174825.550000", "174825.553000", "174825.556000", "174825.558000", "174825.561000", "174825.564000", "174825.567000", "174825.570000", "174825.572000", "174825.575000", "174825.578000", "174825.581000", "174845.527000", "174845.530000", "174845.533000", "174845.536000", "174845.539000", "174845.541000", "174845.544000", "174845.547000", "174845.550000", "174845.553000", "174845.555000", "174845.558000", "174845.561000", "174845.564000", "174845.567000", "174845.570000", "174845.573000", "174845.575000", "174845.578000", "174845.581000", "174845.584000", "174905.527000", "174905.530000", "174905.533000", "174905.535000", "174905.538000", "174905.541000", "174905.544000", "174905.547000", "174905.550000", "174905.553000", "174905.555000", "174905.558000", "174905.561000", "174905.564000", "174905.567000", "174905.570000", "174905.572000", "174905.575000", "174905.578000", "174905.581000", "174945.526000", "174945.529000", "174945.532000", "174945.535000", "174945.538000", "174945.541000", "174945.543000", "174945.546000", "174945.549000", "174945.552000", "174945.555000", "174945.558000", "174945.561000", "174945.564000", "174945.567000", "174945.570000", "174945.572000", "174945.575000", "174945.578000", "174945.581000", "174945.584000", "174945.587000", "174945.590000", "174945.593000", "174945.596000", "174945.604000", "174945.607000", "174945.610000", "175004.586000", "175004.589000", "175004.592000", "175004.595000", "175004.598000", "175004.601000", "175004.604000", "175004.606000", "175004.609000", "175004.612000", "175004.615000", "175004.618000", "175004.621000"],
      "InstanceNumber": [1, 2, 3, 4, 5, 6, 7, 8, 9, 10, 11, 12, 13, 14, 15, 16, 17, 18, 19, 20, 21, 22, 23, 24, 25, 26, 27, 28, 29, 30, 31, 32, 33, 34, 35, 36, 37, 38, 39, 40, 41, 42, 43, 44, 45, 46, 47, 48, 49, 50, 51, 52, 53, 54, 55, 56, 57, 58, 59, 60, 61, 62, 63, 64, 65, 66, 67, 68, 69, 70, 71, 72, 73, 74, 75, 76, 77, 78, 79, 80, 81, 82, 83, 84, 85, 86, 87, 88, 89, 90, 91, 92, 93, 94, 95, 96, 97, 98, 99, 100, 101, 102, 103, 104, 105, 106, 107, 108, 109, 110, 111, 112, 113, 114, 115, 116, 117, 118, 119, 120, 121, 122, 123, 124, 125, 126, 127, 128, 129, 130, 131, 132, 133, 134, 135, 136, 137, 138, 139, 140, 141, 142, 143, 144],
      "LargestImagePixelValue": [56653, 54530, 53901, 54386, 55511, 54598, 53877, 54244, 53509, 53852, 53337, 53077, 53152, 53691, 53260, 53839, 53828, 53781, 53664, 53513, 53385, 53130, 52980, 53152, 54232, 53499, 52977, 52635, 53252, 53649, 53585, 52995, 53186, 53481, 52704, 53758, 53253, 52812, 52752, 53768, 53539, 53243, 52804, 52873, 52899, 52673, 53212, 54574, 54214, 53352, 53087, 53056, 53051, 52762, 52448, 52631, 53572, 54179, 53829, 54813, 55457, 54998, 53825, 53508, 53117, 53161, 52782, 52493, 53340, 53285, 52473, 52830, 52371, 52485, 53055, 52958, 53243, 52823, 53170, 53283, 53260, 53743, 52688, 53451, 52417, 52561, 52961, 52477, 53405, 53505, 53488, 54076, 53139, 54044, 52642, 53472, 52560, 53048, 54417, 53626, 53779, 52513, 53498, 52692, 53789, 53781, 53714, 53315, 53675, 53264, 53754, 54200, 53108, 53796, 53748, 53478, 53263, 52867, 53760, 53284, 53168, 52843, 53506, 53232, 52964, 53900, 53168, 53652, 53370, 53133, 53438, 53241, 53804, 53823, 54176, 53928, 54387, 53279, 53494, 53398, 53897, 53515, 53429, 53893],
      "WindowCenter": [10375.0, 10307.0, 10283.0, 10296.0, 10338.0, 10337.0, 10306.0, 10307.0, 10284.0, 10280.0, 10264.0, 10257.0, 10247.0, 10260.0, 10270.0, 10280.0, 10285.0, 10294.0, 10300.0, 10307.0, 10314.0, 10328.0, 10337.0, 10349.0, 10371.0, 10363.0, 10347.0, 10336.0, 10336.0, 10358.0, 10353.0, 10356.0, 10362.0, 10356.0, 10342.0, 10335.0, 10319.0, 10335.0, 10353.0, 10378.0, 10373.0, 10355.0, 10337.0, 10334.0, 10345.0, 10349.0, 10348.0, 10368.0, 10376.0, 10355.0, 10331.0, 10319.0, 10301.0, 10283.0, 10275.0, 10288.0, 10333.0, 10363.0, 10357.0, 10350.0, 10342.0, 10317.0, 10283.0, 10264.0, 10251.0, 10258.0, 10259.0, 10279.0, 10302.0, 10328.0, 10317.0, 10301.0, 10281.0, 10260.0, 10262.0, 10287.0, 10325.0, 10359.0, 10373.0, 10364.0, 10348.0, 10344.0, 10320.0, 10317.0, 10313.0, 10308.0, 10323.0, 10334.0, 10350.0, 10368.0, 10393.0, 10401.0, 10376.0, 10369.0, 10339.0, 10323.0, 10300.0, 10304.0, 10324.0, 10334.0, 10336.0, 10306.0, 10294.0, 10274.0, 10287.0, 10299.0, 10328.0, 10345.0, 10347.0, 10335.0, 10323.0, 10341.0, 10341.0, 10348.0, 10342.0, 10326.0, 10309.0, 10309.0, 10348.0, 10359.0, 10353.0, 10328.0, 10332.0, 10337.0, 10342.0, 10352.0, 10344.0, 10338.0, 10325.0, 10321.0, 10329.0, 10338.0, 10370.0, 10390.0, 10393.0, 10374.0, 10350.0, 10320.0, 10312.0, 10314.0, 10322.0, 10315.0, 10306.0, 10297.0],
      "WindowWidth": [22368.0, 22179.0, 22097.0, 22109.0, 22193.0, 22190.0, 22121.0, 22127.0, 22079.0, 22064.0, 22032.0, 22018.0, 21991.0, 22020.0, 22040.0, 22068.0, 22074.0, 22099.0, 22114.0, 22127.0, 22140.0, 22177.0, 22199.0, 22220.0, 22269.0, 22260.0, 22221.0, 22195.0, 22194.0, 22245.0, 22232.0, 22238.0, 22249.0, 22241.0, 22213.0, 22195.0, 22160.0, 22197.0, 22242.0, 22293.0, 22282.0, 22242.0, 22195.0, 22191.0, 22215.0, 22225.0, 22216.0, 22257.0, 22283.0, 22239.0, 22186.0, 22156.0, 22116.0, 22078.0, 22059.0, 22085.0, 22183.0, 22247.0, 22236.0, 22213.0, 22198.0, 22142.0, 22067.0, 22022.0, 21998.0, 22013.0, 22011.0, 22058.0, 22110.0, 22172.0, 22153.0, 22117.0, 22069.0, 22022.0, 22026.0, 22078.0, 22164.0, 22240.0, 22277.0, 22256.0, 22224.0, 22212.0, 22163.0, 22151.0, 22145.0, 22129.0, 22164.0, 22190.0, 22225.0, 22269.0, 22322.0, 22337.0, 22287.0, 22267.0, 22207.0, 22168.0, 22120.0, 22114.0, 22159.0, 22182.0, 22187.0, 22124.0, 22100.0, 22054.0, 22074.0, 22105.0, 22170.0, 22208.0, 22211.0, 22186.0, 22159.0, 22204.0, 22200.0, 22214.0, 22209.0, 22173.0, 22133.0, 22132.0, 22221.0, 22247.0, 22236.0, 22176.0, 22184.0, 22203.0, 22208.0, 22233.0, 22216.0, 22195.0, 22169.0, 22160.0, 22178.0, 22197.0, 22266.0, 22314.0, 22319.0, 22274.0, 22222.0, 22158.0, 22148.0, 22146.0, 22162.0, 22147.0, 22124.0, 22104.0]
    },
    "slices": {}
  }
}