{
  "AcquisitionMatrixPE": 104,
  "AcquisitionNumber": 1,
  "AcquisitionTime": "18:00:13.492500",
  "BandwidthPerPixelPhaseEncode": 17.17,
  "BaseResolution": 104,
  "BodyPartExamined": "BRAIN",
  "CoilString": "HC1-7;NC1_2",
  "ConsistencyInfo": "N4_VE11C_LATEST_20160120",
  "ConversionSoftware": "dcm2niix",
  "ConversionSoftwareVersion": "v1.0.20190720  (JP2:OpenJPEG) GCC7.3.0",
  "DerivedVendorReportedEchoSpacing": 0.000560011,
  "DeviceSerialNumber": "167006",
  "DwellTime": 2.1e-06,
  "EchoTime": 0.037,
  "EchoTrainLength": 104,
  "EffectiveEchoSpacing": 0.000560011,
  "FlipAngle": 52,
  "ImageComments": "Unaliased_MB4_PE3_LB",
  "ImageOrientationPatientDICOM": [0.999412, -0.0195948, -0.0281238, 0.00523298, 0.898094, -0.439772],
  "ImageType": [
    "ORIGINAL",
    "PRIMARY",
    "M",
    "MB",
    "ND",
    "MOSAIC"
],
  "ImagingFrequency": 123.259,
  "InPlanePhaseEncodingDirectionDICOM": "COL",
  "InstitutionAddress": "Chemin_Queen-Mary_4565_Montreal_District_CA_H3W_1W5",
  "InstitutionName": "IUGM",
  "InstitutionalDepartmentName": "Department",
  "MRAcquisitionType": "2D",
  "MagneticFieldStrength": 3,
  "Manufacturer": "Siemens",
  "ManufacturersModelName": "Prisma_fit",
  "Modality": "MR",
  "MultibandAccelerationFactor": 4,
  "PartialFourier": 1,
  "PatientPosition": "HFS",
  "PercentPhaseFOV": 100,
  "PhaseEncodingDirection": "j",
  "PhaseEncodingSteps": 104,
  "PhaseResolution": 1,
  "PixelBandwidth": 2290,
  "ProcedureStepDescription": "hcptrt_generic",
  "ProtocolName": "func_task-motor_run-2",
  "PulseSequenceDetails": "%CustomerSeq%_cmrr_mbep2d_bold",
  "ReceiveCoilActiveElements": "HC1-7;NC1,2",
  "ReceiveCoilName": "HeadNeck_64",
  "ReconMatrixPE": 104,
  "RepetitionTime": 1.49,
  "SAR": 0.0337671,
  "ScanOptions": "FS",
  "ScanningSequence": "EP",
  "SequenceName": "epfid2d1_104",
  "SequenceVariant": "SK_SS",
  "SeriesDescription": "func_task-motor_run-2",
  "SeriesNumber": 25,
  "ShimSetting": [622, -7236, -8875, 408, 60, -407, -7, 61],
  "SliceThickness": 2,
  "SliceTiming": [0, 0.7825, 0.0975, 0.88, 0.195, 0.98, 0.2925, 1.0775, 0.39, 1.175, 0.49, 1.2725, 0.5875, 1.37, 0.685, 0, 0.7825, 0.0975, 0.88, 0.195, 0.98, 0.2925, 1.0775, 0.39, 1.175, 0.49, 1.2725, 0.5875, 1.37, 0.685, 0, 0.7825, 0.0975, 0.88, 0.195, 0.98, 0.2925, 1.0775, 0.39, 1.175, 0.49, 1.2725, 0.5875, 1.37, 0.685, 0, 0.7825, 0.0975, 0.88, 0.195, 0.98, 0.2925, 1.0775, 0.39, 1.175, 0.49, 1.2725, 0.5875, 1.37, 0.685],
  "SoftwareVersions": "syngo_MR_E11",
  "SpacingBetweenSlices": 2,
  "StationName": "MRC35049",
  "TaskName": "motor",
  "TotalReadoutTime": 0.0576811,
  "TxRefAmp": 236.153,
  "WipMemBlock": "54341287-998e-49ed-9e03-723412e9c7d5||Sequence: R016 ve11c/master r/e634e98; Dec 19 2017 11:00:25 by eja",
  "dcmmeta_affine": [
    [-1.9988247156143188, 0.010465950705111027, -0.06775003671646118, 105.18067169189453],
    [0.03918950632214546, 1.7961888313293457, -0.8787320852279663, -58.45859146118164],
    [-0.05624754726886749, 0.8795432448387146, 1.7953383922576904, -79.86425018310547],
    [0.0, 0.0, 0.0, 1.0]
],
  "dcmmeta_reorient_transform": [
    [0.0, -1.0, 0.0, 103.0],
    [1.0, 0.0, 0.0, 0.0],
    [0.0, 0.0, 1.0, 0.0],
    [0.0, 0.0, 0.0, 1.0]
],
  "dcmmeta_shape": [104, 104, 60, 144],
  "dcmmeta_slice_dim": 2,
  "dcmmeta_version": 0.6,
  "global": {
    "const": {
      "AcquisitionMatrix": [104, 0, 0, 104],
      "AngioFlag": "N",
      "BitsAllocated": 16,
      "BitsStored": 16,
      "BodyPartExamined": "BRAIN",
      "Columns": 832,
      "EchoNumbers": 1,
      "EchoTime": 37.0,
      "EchoTrainLength": 104,
      "FlipAngle": 52.0,
      "HighBit": 15,
      "ImageOrientationPatient": [0.99941237687072, -0.019594753348, -0.0281237728418, 0.005232975487, 0.89809438627206, -0.4397716331395],
      "ImagePositionPatient": [-837.64048400391, -766.09658533986, 351.35656276788],
      "ImageType": [
        "ORIGINAL",
        "PRIMARY",
        "M",
        "MB",
        "ND",
        "MOSAIC"
],
      "ImagedNucleus": "1H",
      "ImagingFrequency": 123.259455,
      "InPlanePhaseEncodingDirection": "COL",
      "MRAcquisitionType": "2D",
      "MagneticFieldStrength": 3.0,
      "Manufacturer": "SIEMENS",
      "ManufacturerModelName": "Prisma_fit",
      "Modality": "MR",
      "NumberOfAverages": 1.0,
      "NumberOfPhaseEncodingSteps": 104,
      "PercentPhaseFieldOfView": 100.0,
      "PercentSampling": 100.0,
      "PerformedProcedureStepStartTime": "171349.034000",
      "PhotometricInterpretation": "MONOCHROME2",
      "PixelBandwidth": 2290.0,
      "PixelRepresentation": 0,
      "PixelSpacing": [2.0, 2.0],
      "ProtocolName": "func_task-motor_run-2",
      "RepetitionTime": 1490.0,
      "Rows": 832,
      "SAR": 0.03376712582181,
      "SamplesPerPixel": 1,
      "ScanOptions": "FS",
      "ScanningSequence": "EP",
      "SequenceName": "epfid2d1_104",
      "SequenceVariant": [
        "SK",
        "SS"
],
      "SeriesDescription": "func_task-motor_run-2",
      "SeriesNumber": 25,
      "SeriesTime": "180133.773000",
      "SliceLocation": -49.56995304136,
      "SliceThickness": 2.0,
      "SmallestImagePixelValue": 0,
      "SoftwareVersions": "syngo MR E11",
      "SpacingBetweenSlices": 1.9999999655727,
      "SpecificCharacterSet": "ISO_IR 100",
      "StudyID": "1",
      "StudyTime": "171348.975000",
      "TransmitCoilName": "Body",
      "VariableFlipAngleFlag": "N",
      "WindowCenterWidthExplanation": "Algo1",
      "dBdt": 0.0},
    "slices": {}
  },
  "time": {
    "samples": {
      "AcquisitionNumber": [1, 2, 3, 4, 5, 6, 7, 8, 9, 10, 11, 12, 13, 14, 15, 16, 17, 18, 19, 20, 21, 22, 23, 24, 25, 26, 27, 28, 29, 30, 31, 32, 33, 34, 35, 36, 37, 38, 39, 40, 41, 42, 43, 44, 45, 46, 47, 48, 49, 50, 51, 52, 53, 54, 55, 56, 57, 58, 59, 60, 61, 62, 63, 64, 65, 66, 67, 68, 69, 70, 71, 72, 73, 74, 75, 76, 77, 78, 79, 80, 81, 82, 83, 84, 85, 86, 87, 88, 89, 90, 91, 92, 93, 94, 95, 96, 97, 98, 99, 100, 101, 102, 103, 104, 105, 106, 107, 108, 109, 110, 111, 112, 113, 114, 115, 116, 117, 118, 119, 120, 121, 122, 123, 124, 125, 126, 127, 128, 129, 130, 131, 132, 133, 134, 135, 136, 137, 138, 139, 140, 141, 142, 143, 144],
      "AcquisitionTime": ["180013.492500", "180014.982500", "180016.472500", "180017.962500", "180019.452500", "180020.942500", "180022.432500", "180023.922500", "180025.412500", "180026.902500", "180028.392500", "180029.882500", "180031.372500", "180032.862500", "180034.352500", "180035.842500", "180037.332500", "180038.822500", "180040.312500", "180041.802500", "180043.292500", "180044.782500", "180046.272500", "180047.762500", "180049.252500", "180050.742500", "180052.232500", "180053.722500", "180055.212500", "180056.702500", "180058.192500", "180059.682500", "180101.172500", "180102.662500", "180104.152500", "180105.642500", "180107.132500", "180108.622500", "180110.112500", "180111.602500", "180113.092500", "180114.582500", "180116.072500", "180117.562500", "180119.052500", "180120.542500", "180122.032500", "180123.522500", "180125.012500", "180126.502500", "180127.992500", "180129.482500", "180130.972500", "180132.462500", "180133.952500", "180135.442500", "180136.932500", "180138.422500", "180139.912500", "180141.402500", "180142.892500", "180144.382500", "180145.872500", "180147.362500", "180148.852500", "180150.342500", "180151.832500", "180153.322500", "180154.812500", "180156.302500", "180157.792500", "180159.282500", "180200.772500", "180202.262500", "180203.752500", "180205.242500", "180206.732500", "180208.222500", "180209.712500", "180211.202500", "180212.692500", "180214.182500", "180215.672500", "180217.162500", "180218.652500", "180220.142500", "180221.632500", "180223.122500", "180224.612500", "180226.102500", "180227.592500", "180229.082500", "180230.572500", "180232.062500", "180233.552500", "180235.042500", "180236.532500", "180238.022500", "180239.512500", "180241.002500", "180242.492500", "180243.982500", "180245.472500", "180246.962500", "180248.452500", "180249.942500", "180251.432500", "180252.922500", "180254.412500", "180255.902500", "180257.392500", "180258.882500", "180300.372500", "180301.862500", "180303.352500", "180304.842500", "180306.332500", "180307.822500", "180309.312500", "180310.802500", "180312.292500", "180313.782500", "180315.272500", "180316.762500", "180318.252500", "180319.742500", "180321.232500", "180322.722500", "180324.212500", "180325.702500", "180327.192500", "180328.682500", "180330.172500", "180331.662500", "180333.152500", "180334.642500", "180336.132500", "180337.622500", "180339.112500", "180340.602500", "180342.092500", "180343.582500", "180345.072500", "180346.562500"],
      "ContentTime": ["180133.776000", "180133.779000", "180133.782000", "180133.785000", "180133.788000", "180133.791000", "180133.794000", "180133.797000", "180133.800000", "180133.803000", "180133.805000", "180133.808000", "180133.811000", "180133.814000", "180133.824000", "180133.833000", "180133.835000", "180133.838000", "180133.841000", "180133.844000", "180133.847000", "180133.850000", "180133.856000", "180133.859000", "180133.862000", "180153.734000", "180153.737000", "180153.740000", "180153.742000", "180153.745000", "180153.748000", "180153.751000", "180153.754000", "180153.757000", "180153.759000", "180153.762000", "180153.765000", "180153.768000", "180153.771000", "180153.774000", "180153.784000", "180153.787000", "180153.790000", "180153.792000", "180153.795000", "180213.733000", "180213.736000", "180213.739000", "180213.742000", "180213.745000", "180213.747000", "180213.750000", "180213.753000", "180213.756000", "180213.759000", "180213.762000", "180213.764000", "180213.767000", "180213.777000", "180213.780000", "180213.783000", "180213.786000", "180213.789000", "180213.791000", "180213.794000", "180233.733000", "180233.736000", "180233.739000", "180233.742000", "180233.745000", "180233.748000", "180233.750000", "180233.753000", "180233.756000", "180233.759000", "180233.762000", "180233.765000", "180233.768000", "180233.771000", "180233.774000", "180233.777000", "180233.786000", "180233.789000", "180233.792000", "180233.795000", "180233.797000", "180253.733000", "180253.736000", "180253.739000", "180253.742000", "180253.745000", "180253.748000", "180253.751000", "180253.754000", "180253.756000", "180253.759000", "180253.762000", "180253.765000", "180253.768000", "180253.771000", "180253.774000", "180253.777000", "180253.780000", "180253.782000", "180253.785000", "180253.788000", "180333.734000", "180333.737000", "180333.740000", "180333.743000", "180333.746000", "180333.749000", "180333.752000", "180333.754000", "180333.757000", "180333.760000", "180333.771000", "180333.774000", "180333.777000", "180333.780000", "180333.783000", "180333.786000", "180333.789000", "180333.792000", "180333.795000", "180333.797000", "180333.800000", "180333.803000", "180333.806000", "180333.809000", "180333.812000", "180333.815000", "180333.818000", "180348.978000", "180348.981000", "180348.984000", "180348.987000", "180348.990000", "180348.992000", "180348.995000", "180348.998000", "180349.002000", "180349.005000", "180349.008000"],
      "InstanceCreationTime": ["180133.776000", "180133.779000", "180133.782000", "180133.785000", "180133.788000", "180133.791000", "180133.794000", "180133.797000", "180133.800000", "180133.803000", "180133.805000", "180133.808000", "180133.811000", "180133.814000", "180133.824000", "180133.833000", "180133.835000", "180133.838000", "180133.841000", "180133.844000", "180133.847000", "180133.850000", "180133.856000", "180133.859000", "180133.862000", "180153.734000", "180153.737000", "180153.740000", "180153.742000", "180153.745000", "180153.748000", "180153.751000", "180153.754000", "180153.757000", "180153.759000", "180153.762000", "180153.765000", "180153.768000", "180153.771000", "180153.774000", "180153.784000", "180153.787000", "180153.790000", "180153.792000", "180153.795000", "180213.733000", "180213.736000", "180213.739000", "180213.742000", "180213.745000", "180213.747000", "180213.750000", "180213.753000", "180213.756000", "180213.759000", "180213.762000", "180213.764000", "180213.767000", "180213.777000", "180213.780000", "180213.783000", "180213.786000", "180213.789000", "180213.791000", "180213.794000", "180233.733000", "180233.736000", "180233.739000", "180233.742000", "180233.745000", "180233.748000", "180233.750000", "180233.753000", "180233.756000", "180233.759000", "180233.762000", "180233.765000", "180233.768000", "180233.771000", "180233.774000", "180233.777000", "180233.786000", "180233.789000", "180233.792000", "180233.795000", "180233.797000", "180253.733000", "180253.736000", "180253.739000", "180253.742000", "180253.745000", "180253.748000", "180253.751000", "180253.754000", "180253.756000", "180253.759000", "180253.762000", "180253.765000", "180253.768000", "180253.771000", "180253.774000", "180253.777000", "180253.780000", "180253.782000", "180253.785000", "180253.788000", "180333.734000", "180333.737000", "180333.740000", "180333.743000", "180333.746000", "180333.749000", "180333.752000", "180333.754000", "180333.757000", "180333.760000", "180333.771000", "180333.774000", "180333.777000", "180333.780000", "180333.783000", "180333.786000", "180333.789000", "180333.792000", "180333.795000", "180333.797000", "180333.800000", "180333.803000", "180333.806000", "180333.809000", "180333.812000", "180333.815000", "180333.818000", "180348.978000", "180348.981000", "180348.984000", "180348.987000", "180348.990000", "180348.992000", "180348.995000", "180348.998000", "180349.002000", "180349.005000", "180349.008000"],
      "InstanceNumber": [1, 2, 3, 4, 5, 6, 7, 8, 9, 10, 11, 12, 13, 14, 15, 16, 17, 18, 19, 20, 21, 22, 23, 24, 25, 26, 27, 28, 29, 30, 31, 32, 33, 34, 35, 36, 37, 38, 39, 40, 41, 42, 43, 44, 45, 46, 47, 48, 49, 50, 51, 52, 53, 54, 55, 56, 57, 58, 59, 60, 61, 62, 63, 64, 65, 66, 67, 68, 69, 70, 71, 72, 73, 74, 75, 76, 77, 78, 79, 80, 81, 82, 83, 84, 85, 86, 87, 88, 89, 90, 91, 92, 93, 94, 95, 96, 97, 98, 99, 100, 101, 102, 103, 104, 105, 106, 107, 108, 109, 110, 111, 112, 113, 114, 115, 116, 117, 118, 119, 120, 121, 122, 123, 124, 125, 126, 127, 128, 129, 130, 131, 132, 133, 134, 135, 136, 137, 138, 139, 140, 141, 142, 143, 144],
      "LargestImagePixelValue": [56664, 54782, 54487, 53589, 53176, 53068, 52925, 52810, 52858, 53534, 52956, 53620, 53386, 53093, 53325, 52901, 53250, 53076, 53303, 53319, 53111, 52522, 52710, 52087, 52823, 53053, 53916, 53277, 53419, 53404, 52803, 52466, 53203, 53368, 53571, 53368, 52873, 52768, 52983, 53082, 53263, 52867, 53761, 53941, 53074, 53635, 53741, 53387, 53323, 52814, 52642, 52390, 53018, 53064, 52748, 52811, 53137, 52958, 53119, 52916, 52518, 53238, 53163, 53699, 54045, 53494, 54149, 53342, 53264, 52583, 52364, 52686, 52933, 52787, 53743, 53690, 52719, 54309, 53050, 52423, 53704, 52494, 53019, 52325, 52697, 52980, 52763, 53279, 53028, 52726, 52901, 52564, 52861, 52699, 52875, 53125, 53599, 54100, 53037, 52814, 53299, 52960, 53077, 52802, 52415, 52556, 52611, 52603, 52308, 52830, 52679, 52205, 52836, 52240, 53157, 52659, 53445, 52686, 53146, 52372, 52422, 53270, 52593, 52552, 53028, 52800, 52736, 52754, 52766, 53496, 52797, 53725, 52846, 53612, 53041, 52405, 53426, 52701, 52625, 52504, 53046, 53259, 52731, 52147],
      "WindowCenter": [10365.0, 10323.0, 10311.0, 10299.0, 10297.0, 10299.0, 10298.0, 10288.0, 10296.0, 10317.0, 10335.0, 10354.0, 10357.0, 10341.0, 10337.0, 10323.0, 10336.0, 10349.0, 10361.0, 10365.0, 10351.0, 10344.0, 10343.0, 10339.0, 10357.0, 10353.0, 10346.0, 10323.0, 10320.0, 10318.0, 10313.0, 10319.0, 10326.0, 10342.0, 10352.0, 10353.0, 10348.0, 10338.0, 10335.0, 10346.0, 10347.0, 10348.0, 10354.0, 10358.0, 10348.0, 10351.0, 10330.0, 10320.0, 10317.0, 10305.0, 10304.0, 10302.0, 10304.0, 10301.0, 10292.0, 10299.0, 10315.0, 10319.0, 10320.0, 10299.0, 10281.0, 10266.0, 10265.0, 10306.0, 10337.0, 10331.0, 10320.0, 10298.0, 10279.0, 10263.0, 10254.0, 10282.0, 10301.0, 10312.0, 10324.0, 10320.0, 10309.0, 10308.0, 10301.0, 10312.0, 10354.0, 10351.0, 10344.0, 10321.0, 10306.0, 10309.0, 10324.0, 10347.0, 10351.0, 10335.0, 10318.0, 10297.0, 10281.0, 10279.0, 10302.0, 10320.0, 10328.0, 10322.0, 10315.0, 10316.0, 10308.0, 10298.0, 10289.0, 10294.0, 10307.0, 10324.0, 10321.0, 10319.0, 10326.0, 10331.0, 10316.0, 10294.0, 10297.0, 10296.0, 10305.0, 10312.0, 10320.0, 10312.0, 10310.0, 10308.0, 10306.0, 10321.0, 10325.0, 10321.0, 10336.0, 10347.0, 10350.0, 10333.0, 10329.0, 10337.0, 10345.0, 10351.0, 10333.0, 10328.0, 10312.0, 10302.0, 10325.0, 10346.0, 10338.0, 10320.0, 10308.0, 10287.0, 10275.0, 10270.0],
      "WindowWidth": [22342.0, 22210.0, 22157.0, 22112.0, 22103.0, 22104.0, 22101.0, 22077.0, 22094.0, 22141.0, 22180.0, 22226.0, 22234.0, 22195.0, 22188.0, 22155.0, 22184.0, 22220.0, 22240.0, 22253.0, 22223.0, 22209.0, 22207.0, 22200.0, 22236.0, 22227.0, 22205.0, 22158.0, 22151.0, 22146.0, 22137.0, 22151.0, 22165.0, 22197.0, 22221.0, 22223.0, 22214.0, 22191.0, 22182.0, 22207.0, 22214.0, 22214.0, 22227.0, 22231.0, 22214.0, 22216.0, 22170.0, 22147.0, 22140.0, 22115.0, 22116.0, 22107.0, 22120.0, 22108.0, 22087.0, 22101.0, 22136.0, 22146.0, 22152.0, 22107.0, 22067.0, 22030.0, 22024.0, 22114.0, 22182.0, 22173.0, 22143.0, 22097.0, 22058.0, 22022.0, 22004.0, 22058.0, 22106.0, 22130.0, 22154.0, 22149.0, 22126.0, 22122.0, 22109.0, 22133.0, 22227.0, 22220.0, 22209.0, 22161.0, 22121.0, 22126.0, 22156.0, 22212.0, 22217.0, 22183.0, 22149.0, 22097.0, 22065.0, 22057.0, 22105.0, 22146.0, 22160.0, 22156.0, 22137.0, 22138.0, 22120.0, 22101.0, 22078.0, 22088.0, 22121.0, 22157.0, 22157.0, 22150.0, 22162.0, 22172.0, 22138.0, 22092.0, 22095.0, 22095.0, 22117.0, 22133.0, 22147.0, 22128.0, 22120.0, 22125.0, 22118.0, 22153.0, 22167.0, 22151.0, 22187.0, 22213.0, 22224.0, 22182.0, 22168.0, 22190.0, 22207.0, 22217.0, 22184.0, 22168.0, 22135.0, 22110.0, 22158.0, 22208.0, 22201.0, 22156.0, 22124.0, 22076.0, 22048.0, 22041.0]
    },
    "slices": {}
  }
}