{
  "AcquisitionMatrixPE": 104,
  "AcquisitionNumber": 1,
  "AcquisitionTime": "17:56:4.500000",
  "BandwidthPerPixelPhaseEncode": 17.17,
  "BaseResolution": 104,
  "BodyPartExamined": "BRAIN",
  "CoilString": "HC1-7;NC1_2",
  "ConsistencyInfo": "N4_VE11C_LATEST_20160120",
  "ConversionSoftware": "dcm2niix",
  "ConversionSoftwareVersion": "v1.0.20190720  (JP2:OpenJPEG) GCC7.3.0",
  "DerivedVendorReportedEchoSpacing": 0.000560011,
  "DeviceSerialNumber": "167006",
  "DwellTime": 2.1e-06,
  "EchoTime": 0.037,
  "EchoTrainLength": 104,
  "EffectiveEchoSpacing": 0.000560011,
  "FlipAngle": 52,
  "ImageComments": "Unaliased_MB4_PE3_LB",
  "ImageOrientationPatientDICOM": [0.999412, -0.0195948, -0.0281238, 0.00523298, 0.898094, -0.439772],
  "ImageType": [
    "ORIGINAL",
    "PRIMARY",
    "M",
    "MB",
    "ND",
    "MOSAIC"
],
  "ImagingFrequency": 123.259,
  "InPlanePhaseEncodingDirectionDICOM": "COL",
  "InstitutionAddress": "Chemin_Queen-Mary_4565_Montreal_District_CA_H3W_1W5",
  "InstitutionName": "IUGM",
  "InstitutionalDepartmentName": "Department",
  "MRAcquisitionType": "2D",
  "MagneticFieldStrength": 3,
  "Manufacturer": "Siemens",
  "ManufacturersModelName": "Prisma_fit",
  "Modality": "MR",
  "MultibandAccelerationFactor": 4,
  "PartialFourier": 1,
  "PatientPosition": "HFS",
  "PercentPhaseFOV": 100,
  "PhaseEncodingDirection": "j",
  "PhaseEncodingSteps": 104,
  "PhaseResolution": 1,
  "PixelBandwidth": 2290,
  "ProcedureStepDescription": "hcptrt_generic",
  "ProtocolName": "func_task-gambling_run-2",
  "PulseSequenceDetails": "%CustomerSeq%_cmrr_mbep2d_bold",
  "ReceiveCoilActiveElements": "HC1-7;NC1,2",
  "ReceiveCoilName": "HeadNeck_64",
  "ReconMatrixPE": 104,
  "RepetitionTime": 1.49,
  "SAR": 0.0337165,
  "ScanOptions": "FS",
  "ScanningSequence": "EP",
  "SequenceName": "epfid2d1_104",
  "SequenceVariant": "SK_SS",
  "SeriesDescription": "func_task-gambling_run-2",
  "SeriesNumber": 23,
  "ShimSetting": [622, -7236, -8875, 408, 60, -407, -7, 61],
  "SliceThickness": 2,
  "SliceTiming": [0, 0.7825, 0.0975, 0.8825, 0.195, 0.98, 0.2925, 1.0775, 0.3925, 1.175, 0.49, 1.2725, 0.5875, 1.3725, 0.685, 0, 0.7825, 0.0975, 0.8825, 0.195, 0.98, 0.2925, 1.0775, 0.3925, 1.175, 0.49, 1.2725, 0.5875, 1.3725, 0.685, 0, 0.7825, 0.0975, 0.8825, 0.195, 0.98, 0.2925, 1.0775, 0.3925, 1.175, 0.49, 1.2725, 0.5875, 1.3725, 0.685, 0, 0.7825, 0.0975, 0.8825, 0.195, 0.98, 0.2925, 1.0775, 0.3925, 1.175, 0.49, 1.2725, 0.5875, 1.3725, 0.685],
  "SoftwareVersions": "syngo_MR_E11",
  "SpacingBetweenSlices": 2,
  "StationName": "MRC35049",
  "TaskName": "gambling",
  "TotalReadoutTime": 0.0576811,
  "TxRefAmp": 236.153,
  "WipMemBlock": "86646ea4-e562-4401-893c-d268e203ca66||Sequence: R016 ve11c/master r/e634e98; Dec 19 2017 11:00:25 by eja",
  "dcmmeta_affine": [
    [-1.9988247156143188, 0.010465950705111027, -0.06775003671646118, 105.18067169189453],
    [0.03918950632214546, 1.7961888313293457, -0.8787320852279663, -58.45859146118164],
    [-0.05624754726886749, 0.8795432448387146, 1.7953383922576904, -79.86425018310547],
    [0.0, 0.0, 0.0, 1.0]
],
  "dcmmeta_reorient_transform": [
    [0.0, -1.0, 0.0, 103.0],
    [1.0, 0.0, 0.0, 0.0],
    [0.0, 0.0, 1.0, 0.0],
    [0.0, 0.0, 0.0, 1.0]
],
  "dcmmeta_shape": [104, 104, 60, 129],
  "dcmmeta_slice_dim": 2,
  "dcmmeta_version": 0.6,
  "global": {
    "const": {
      "AcquisitionMatrix": [104, 0, 0, 104],
      "AngioFlag": "N",
      "BitsAllocated": 16,
      "BitsStored": 16,
      "BodyPartExamined": "BRAIN",
      "Columns": 832,
      "EchoNumbers": 1,
      "EchoTime": 37.0,
      "EchoTrainLength": 104,
      "FlipAngle": 52.0,
      "HighBit": 15,
      "ImageOrientationPatient": [0.99941237687072, -0.019594753348, -0.0281237728418, 0.005232975487, 0.89809438627206, -0.4397716331395],
      "ImagePositionPatient": [-837.64048400391, -766.09658533986, 351.35656276788],
      "ImageType": [
        "ORIGINAL",
        "PRIMARY",
        "M",
        "MB",
        "ND",
        "MOSAIC"
],
      "ImagedNucleus": "1H",
      "ImagingFrequency": 123.259453,
      "InPlanePhaseEncodingDirection": "COL",
      "MRAcquisitionType": "2D",
      "MagneticFieldStrength": 3.0,
      "Manufacturer": "SIEMENS",
      "ManufacturerModelName": "Prisma_fit",
      "Modality": "MR",
      "NumberOfAverages": 1.0,
      "NumberOfPhaseEncodingSteps": 104,
      "PercentPhaseFieldOfView": 100.0,
      "PercentSampling": 100.0,
      "PerformedProcedureStepStartTime": "171349.034000",
      "PhotometricInterpretation": "MONOCHROME2",
      "PixelBandwidth": 2290.0,
      "PixelRepresentation": 0,
      "PixelSpacing": [2.0, 2.0],
      "ProtocolName": "func_task-gambling_run-2",
      "RepetitionTime": 1490.0,
      "Rows": 832,
      "SAR": 0.03371647217373,
      "SamplesPerPixel": 1,
      "ScanOptions": "FS",
      "ScanningSequence": "EP",
      "SequenceName": "epfid2d1_104",
      "SequenceVariant": [
        "SK",
        "SS"
],
      "SeriesDescription": "func_task-gambling_run-2",
      "SeriesNumber": 23,
      "SeriesTime": "175725.558000",
      "SliceLocation": -49.56995304136,
      "SliceThickness": 2.0,
      "SmallestImagePixelValue": 0,
      "SoftwareVersions": "syngo MR E11",
      "SpacingBetweenSlices": 1.9999999655727,
      "SpecificCharacterSet": "ISO_IR 100",
      "StudyID": "1",
      "StudyTime": "171348.975000",
      "TransmitCoilName": "Body",
      "VariableFlipAngleFlag": "N",
      "WindowCenterWidthExplanation": "Algo1",
      "dBdt": 0.0},
    "slices": {}
  },
  "time": {
    "samples": {
      "AcquisitionNumber": [1, 2, 3, 4, 5, 6, 7, 8, 9, 10, 11, 12, 13, 14, 15, 16, 17, 18, 19, 20, 21, 22, 23, 24, 25, 26, 27, 28, 29, 30, 31, 32, 33, 34, 35, 36, 37, 38, 39, 40, 41, 42, 43, 44, 45, 46, 47, 48, 49, 50, 51, 52, 53, 54, 55, 56, 57, 58, 59, 60, 61, 62, 63, 64, 65, 66, 67, 68, 69, 70, 71, 72, 73, 74, 75, 76, 77, 78, 79, 80, 81, 82, 83, 84, 85, 86, 87, 88, 89, 90, 91, 92, 93, 94, 95, 96, 97, 98, 99, 100, 101, 102, 103, 104, 105, 106, 107, 108, 109, 110, 111, 112, 113, 114, 115, 116, 117, 118, 119, 120, 121, 122, 123, 124, 125, 126, 127, 128, 129],
      "AcquisitionTime": ["175604.500000", "175605.990000", "175607.480000", "175608.970000", "175610.460000", "175611.950000", "175613.440000", "175614.930000", "175616.420000", "175617.910000", "175619.400000", "175620.890000", "175622.380000", "175623.870000", "175625.360000", "175626.850000", "175628.340000", "175629.830000", "175631.320000", "175632.810000", "175634.300000", "175635.790000", "175637.280000", "175638.770000", "175640.260000", "175641.750000", "175643.240000", "175644.730000", "175646.220000", "175647.710000", "175649.200000", "175650.690000", "175652.180000", "175653.670000", "175655.160000", "175656.650000", "175658.140000", "175659.630000", "175701.120000", "175702.610000", "175704.100000", "175705.590000", "175707.080000", "175708.570000", "175710.060000", "175711.550000", "175713.040000", "175714.530000", "175716.020000", "175717.510000", "175719.000000", "175720.490000", "175721.980000", "175723.470000", "175724.960000", "175726.450000", "175727.940000", "175729.430000", "175730.920000", "175732.410000", "175733.900000", "175735.390000", "175736.880000", "175738.370000", "175739.860000", "175741.350000", "175742.840000", "175744.330000", "175745.820000", "175747.310000", "175748.800000", "175750.290000", "175751.780000", "175753.270000", "175754.760000", "175756.250000", "175757.740000", "175759.230000", "175800.720000", "175802.210000", "175803.700000", "175805.190000", "175806.680000", "175808.170000", "175809.660000", "175811.150000", "175812.640000", "175814.130000", "175815.620000", "175817.110000", "175818.600000", "175820.090000", "175821.580000", "175823.070000", "175824.560000", "175826.050000", "175827.540000", "175829.030000", "175830.520000", "175832.010000", "175833.500000", "175834.990000", "175836.480000", "175837.970000", "175839.460000", "175840.950000", "175842.440000", "175843.930000", "175845.420000", "175846.910000", "175848.400000", "175849.890000", "175851.380000", "175852.870000", "175854.360000", "175855.850000", "175857.340000", "175858.830000", "175900.320000", "175901.810000", "175903.300000", "175904.790000", "175906.280000", "175907.770000", "175909.260000", "175910.750000", "175912.240000", "175913.730000", "175915.220000"],
      "ContentTime": ["175725.561000", "175725.564000", "175725.567000", "175725.570000", "175725.573000", "175725.576000", "175725.579000", "175725.586000", "175725.589000", "175725.591000", "175725.598000", "175725.601000", "175725.604000", "175725.607000", "175725.610000", "175725.612000", "175725.615000", "175725.621000", "175725.624000", "175725.627000", "175725.630000", "175725.633000", "175725.636000", "175725.638000", "175725.641000", "175725.644000", "175725.647000", "175725.650000", "175745.527000", "175745.530000", "175745.533000", "175745.536000", "175745.539000", "175745.546000", "175745.549000", "175745.552000", "175745.555000", "175745.558000", "175745.561000", "175745.563000", "175745.566000", "175745.569000", "175745.572000", "175745.575000", "175745.578000", "175745.581000", "175745.584000", "175745.586000", "175805.527000", "175805.530000", "175805.533000", "175805.536000", "175805.538000", "175805.541000", "175805.544000", "175805.554000", "175805.557000", "175805.559000", "175805.562000", "175805.565000", "175805.568000", "175805.571000", "175805.574000", "175805.577000", "175805.580000", "175805.583000", "175805.604000", "175805.613000", "175805.616000", "175825.527000", "175825.530000", "175825.533000", "175825.536000", "175825.538000", "175825.541000", "175825.544000", "175825.547000", "175825.550000", "175825.552000", "175825.555000", "175825.558000", "175825.562000", "175825.565000", "175825.568000", "175825.571000", "175825.574000", "175825.577000", "175825.580000", "175825.583000", "175845.527000", "175845.530000", "175845.533000", "175845.536000", "175845.539000", "175845.541000", "175845.544000", "175845.547000", "175845.550000", "175845.553000", "175845.555000", "175845.558000", "175845.561000", "175845.564000", "175845.567000", "175845.570000", "175845.573000", "175845.575000", "175917.198000", "175917.201000", "175917.204000", "175917.207000", "175917.209000", "175917.212000", "175917.215000", "175917.218000", "175917.221000", "175917.224000", "175917.226000", "175917.229000", "175917.239000", "175917.242000", "175917.245000", "175917.248000", "175917.251000", "175917.254000", "175917.257000", "175917.268000", "175917.272000", "175917.275000"],
      "InstanceCreationTime": ["175725.561000", "175725.564000", "175725.567000", "175725.570000", "175725.573000", "175725.576000", "175725.579000", "175725.586000", "175725.589000", "175725.591000", "175725.598000", "175725.601000", "175725.604000", "175725.607000", "175725.610000", "175725.612000", "175725.615000", "175725.621000", "175725.624000", "175725.627000", "175725.630000", "175725.633000", "175725.636000", "175725.638000", "175725.641000", "175725.644000", "175725.647000", "175725.650000", "175745.527000", "175745.530000", "175745.533000", "175745.536000", "175745.539000", "175745.546000", "175745.549000", "175745.552000", "175745.555000", "175745.558000", "175745.561000", "175745.563000", "175745.566000", "175745.569000", "175745.572000", "175745.575000", "175745.578000", "175745.581000", "175745.584000", "175745.586000", "175805.527000", "175805.530000", "175805.533000", "175805.536000", "175805.538000", "175805.541000", "175805.544000", "175805.554000", "175805.557000", "175805.559000", "175805.562000", "175805.565000", "175805.568000", "175805.571000", "175805.574000", "175805.577000", "175805.580000", "175805.583000", "175805.604000", "175805.613000", "175805.616000", "175825.527000", "175825.530000", "175825.533000", "175825.536000", "175825.538000", "175825.541000", "175825.544000", "175825.547000", "175825.550000", "175825.552000", "175825.555000", "175825.558000", "175825.562000", "175825.565000", "175825.568000", "175825.571000", "175825.574000", "175825.577000", "175825.580000", "175825.583000", "175845.527000", "175845.530000", "175845.533000", "175845.536000", "175845.539000", "175845.541000", "175845.544000", "175845.547000", "175845.550000", "175845.553000", "175845.555000", "175845.558000", "175845.561000", "175845.564000", "175845.567000", "175845.570000", "175845.573000", "175845.575000", "175917.198000", "175917.201000", "175917.204000", "175917.207000", "175917.209000", "175917.212000", "175917.215000", "175917.218000", "175917.221000", "175917.224000", "175917.226000", "175917.229000", "175917.239000", "175917.242000", "175917.245000", "175917.248000", "175917.251000", "175917.254000", "175917.257000", "175917.268000", "175917.272000", "175917.275000"],
      "InstanceNumber": [1, 2, 3, 4, 5, 6, 7, 8, 9, 10, 11, 12, 13, 14, 15, 16, 17, 18, 19, 20, 21, 22, 23, 24, 25, 26, 27, 28, 29, 30, 31, 32, 33, 34, 35, 36, 37, 38, 39, 40, 41, 42, 43, 44, 45, 46, 47, 48, 49, 50, 51, 52, 53, 54, 55, 56, 57, 58, 59, 60, 61, 62, 63, 64, 65, 66, 67, 68, 69, 70, 71, 72, 73, 74, 75, 76, 77, 78, 79, 80, 81, 82, 83, 84, 85, 86, 87, 88, 89, 90, 91, 92, 93, 94, 95, 96, 97, 98, 99, 100, 101, 102, 103, 104, 105, 106, 107, 108, 109, 110, 111, 112, 113, 114, 115, 116, 117, 118, 119, 120, 121, 122, 123, 124, 125, 126, 127, 128, 129],
      "LargestImagePixelValue": [55967, 54537, 53185, 52992, 52746, 52156, 52515, 52402, 52985, 53054, 52837, 52921, 52461, 52588, 52337, 52043, 52458, 52592, 53108, 52355, 52524, 52738, 52693, 52798, 52140, 52442, 52076, 53140, 53254, 52689, 52907, 53332, 53110, 52257, 52460, 54179, 54268, 53101, 53364, 52182, 52399, 52227, 52235, 52524, 52243, 53127, 52881, 52652, 52341, 52897, 52479, 52304, 53017, 52347, 52991, 52809, 52865, 53057, 52736, 53237, 52240, 53186, 53424, 52948, 52888, 53006, 52857, 53345, 52424, 53550, 52686, 53658, 53459, 53258, 52909, 53293, 52662, 53739, 53355, 53288, 53225, 52822, 52662, 53053, 52957, 53328, 52964, 52600, 53180, 52904, 52667, 52056, 53123, 52431, 52913, 52602, 52582, 52326, 52587, 52726, 52959, 52341, 52584, 52259, 52736, 52888, 52891, 52526, 52713, 53033, 52900, 52364, 53120, 52689, 52774, 53276, 52922, 53595, 52862, 52649, 52647, 53062, 52825, 53355, 52961, 52815, 52876, 52510, 52758],
      "WindowCenter": [10375.0, 10338.0, 10311.0, 10295.0, 10285.0, 10279.0, 10275.0, 10280.0, 10297.0, 10315.0, 10306.0, 10299.0, 10283.0, 10287.0, 10294.0, 10306.0, 10317.0, 10310.0, 10306.0, 10297.0, 10295.0, 10304.0, 10305.0, 10312.0, 10307.0, 10308.0, 10306.0, 10312.0, 10317.0, 10319.0, 10318.0, 10308.0, 10285.0, 10259.0, 10263.0, 10299.0, 10318.0, 10305.0, 10290.0, 10266.0, 10249.0, 10232.0, 10239.0, 10247.0, 10240.0, 10251.0, 10245.0, 10250.0, 10252.0, 10270.0, 10280.0, 10284.0, 10295.0, 10290.0, 10295.0, 10299.0, 10298.0, 10298.0, 10290.0, 10288.0, 10284.0, 10316.0, 10361.0, 10309.0, 10299.0, 10291.0, 10280.0, 10285.0, 10274.0, 10293.0, 10291.0, 10311.0, 10305.0, 10298.0, 10282.0, 10287.0, 10287.0, 10306.0, 10303.0, 10294.0, 10280.0, 10269.0, 10276.0, 10285.0, 10287.0, 10285.0, 10270.0, 10255.0, 10274.0, 10285.0, 10279.0, 10272.0, 10279.0, 10288.0, 10288.0, 10280.0, 10266.0, 10263.0, 10270.0, 10288.0, 10306.0, 10307.0, 10302.0, 10291.0, 10297.0, 10311.0, 10315.0, 10302.0, 10296.0, 10279.0, 10272.0, 10271.0, 10292.0, 10294.0, 10296.0, 10300.0, 10298.0, 10297.0, 10283.0, 10278.0, 10288.0, 10304.0, 10293.0, 10285.0, 10273.0, 10263.0, 10264.0, 10255.0, 10272.0],
      "WindowWidth": [22352.0, 22242.0, 22162.0, 22105.0, 22076.0, 22064.0, 22048.0, 22059.0, 22094.0, 22137.0, 22114.0, 22098.0, 22064.0, 22073.0, 22087.0, 22115.0, 22142.0, 22127.0, 22115.0, 22094.0, 22089.0, 22115.0, 22116.0, 22129.0, 22126.0, 22123.0, 22119.0, 22129.0, 22145.0, 22145.0, 22139.0, 22113.0, 22063.0, 22010.0, 22013.0, 22093.0, 22134.0, 22109.0, 22072.0, 22021.0, 21982.0, 21943.0, 21961.0, 21978.0, 21964.0, 21984.0, 21973.0, 21981.0, 21987.0, 22028.0, 22052.0, 22061.0, 22080.0, 22072.0, 22083.0, 22097.0, 22089.0, 22091.0, 22076.0, 22070.0, 22064.0, 22135.0, 22240.0, 22116.0, 22090.0, 22073.0, 22049.0, 22056.0, 22039.0, 22075.0, 22078.0, 22117.0, 22108.0, 22090.0, 22058.0, 22066.0, 22066.0, 22103.0, 22100.0, 22078.0, 22054.0, 22025.0, 22039.0, 22062.0, 22067.0, 22061.0, 22029.0, 21997.0, 22032.0, 22062.0, 22051.0, 22033.0, 22048.0, 22068.0, 22066.0, 22048.0, 22021.0, 22014.0, 22028.0, 22069.0, 22111.0, 22114.0, 22110.0, 22077.0, 22089.0, 22119.0, 22129.0, 22102.0, 22086.0, 22049.0, 22034.0, 22035.0, 22074.0, 22083.0, 22088.0, 22101.0, 22093.0, 22090.0, 22063.0, 22049.0, 22069.0, 22104.0, 22083.0, 22065.0, 22038.0, 22014.0, 22015.0, 21994.0, 22035.0]
    },
    "slices": {}
  }
}