{
  "AcquisitionMatrixPE": 104,
  "AcquisitionNumber": 1,
  "AcquisitionTime": "17:51:31.615000",
  "BandwidthPerPixelPhaseEncode": 17.17,
  "BaseResolution": 104,
  "BodyPartExamined": "BRAIN",
  "CoilString": "HC1-7;NC1_2",
  "ConsistencyInfo": "N4_VE11C_LATEST_20160120",
  "ConversionSoftware": "dcm2niix",
  "ConversionSoftwareVersion": "v1.0.20190720  (JP2:OpenJPEG) GCC7.3.0",
  "DerivedVendorReportedEchoSpacing": 0.000560011,
  "DeviceSerialNumber": "167006",
  "DwellTime": 2.1e-06,
  "EchoTime": 0.037,
  "EchoTrainLength": 104,
  "EffectiveEchoSpacing": 0.000560011,
  "FlipAngle": 52,
  "ImageComments": "Unaliased_MB4_PE3_LB",
  "ImageOrientationPatientDICOM": [0.999412, -0.0195948, -0.0281238, 0.00523298, 0.898094, -0.439772],
  "ImageType": [
    "ORIGINAL",
    "PRIMARY",
    "M",
    "MB",
    "ND",
    "MOSAIC"
],
  "ImagingFrequency": 123.259,
  "InPlanePhaseEncodingDirectionDICOM": "COL",
  "InstitutionAddress": "Chemin_Queen-Mary_4565_Montreal_District_CA_H3W_1W5",
  "InstitutionName": "IUGM",
  "InstitutionalDepartmentName": "Department",
  "MRAcquisitionType": "2D",
  "MagneticFieldStrength": 3,
  "Manufacturer": "Siemens",
  "ManufacturersModelName": "Prisma_fit",
  "Modality": "MR",
  "MultibandAccelerationFactor": 4,
  "PartialFourier": 1,
  "PatientPosition": "HFS",
  "PercentPhaseFOV": 100,
  "PhaseEncodingDirection": "j",
  "PhaseEncodingSteps": 104,
  "PhaseResolution": 1,
  "PixelBandwidth": 2290,
  "ProcedureStepDescription": "hcptrt_generic",
  "ProtocolName": "func_task-gambling_run-1",
  "PulseSequenceDetails": "%CustomerSeq%_cmrr_mbep2d_bold",
  "ReceiveCoilActiveElements": "HC1-7;NC1,2",
  "ReceiveCoilName": "HeadNeck_64",
  "ReconMatrixPE": 104,
  "RepetitionTime": 1.49,
  "SAR": 0.0337165,
  "ScanOptions": "FS",
  "ScanningSequence": "EP",
  "SequenceName": "epfid2d1_104",
  "SequenceVariant": "SK_SS",
  "SeriesDescription": "func_task-gambling_run-1",
  "SeriesNumber": 19,
  "ShimSetting": [622, -7236, -8875, 408, 60, -407, -7, 61],
  "SliceThickness": 2,
  "SliceTiming": [0, 0.785, 0.1, 0.8825, 0.1975, 0.98, 0.295, 1.08, 0.3925, 1.1775, 0.49, 1.275, 0.59, 1.3725, 0.6875, 0, 0.785, 0.1, 0.8825, 0.1975, 0.98, 0.295, 1.08, 0.3925, 1.1775, 0.49, 1.275, 0.59, 1.3725, 0.6875, 0, 0.785, 0.1, 0.8825, 0.1975, 0.98, 0.295, 1.08, 0.3925, 1.1775, 0.49, 1.275, 0.59, 1.3725, 0.6875, 0, 0.785, 0.1, 0.8825, 0.1975, 0.98, 0.295, 1.08, 0.3925, 1.1775, 0.49, 1.275, 0.59, 1.3725, 0.6875],
  "SoftwareVersions": "syngo_MR_E11",
  "SpacingBetweenSlices": 2,
  "StationName": "MRC35049",
  "TaskName": "gambling",
  "TotalReadoutTime": 0.0576811,
  "TxRefAmp": 236.153,
  "WipMemBlock": "8dc5b89a-b3a2-4aba-8c9d-abc167652c17||Sequence: R016 ve11c/master r/e634e98; Dec 19 2017 11:00:25 by eja",
  "dcmmeta_affine": [
    [-1.9988247156143188, 0.010465950705111027, -0.06775003671646118, 105.18067169189453],
    [0.03918950632214546, 1.7961888313293457, -0.8787320852279663, -58.45859146118164],
    [-0.05624754726886749, 0.8795432448387146, 1.7953383922576904, -79.86425018310547],
    [0.0, 0.0, 0.0, 1.0]
],
  "dcmmeta_reorient_transform": [
    [0.0, -1.0, 0.0, 103.0],
    [1.0, 0.0, 0.0, 0.0],
    [0.0, 0.0, 1.0, 0.0],
    [0.0, 0.0, 0.0, 1.0]
],
  "dcmmeta_shape": [104, 104, 60, 129],
  "dcmmeta_slice_dim": 2,
  "dcmmeta_version": 0.6,
  "global": {
    "const": {
      "AcquisitionMatrix": [104, 0, 0, 104],
      "AngioFlag": "N",
      "BitsAllocated": 16,
      "BitsStored": 16,
      "BodyPartExamined": "BRAIN",
      "Columns": 832,
      "EchoNumbers": 1,
      "EchoTime": 37.0,
      "EchoTrainLength": 104,
      "FlipAngle": 52.0,
      "HighBit": 15,
      "ImageOrientationPatient": [0.99941237687072, -0.019594753348, -0.0281237728418, 0.005232975487, 0.89809438627206, -0.4397716331395],
      "ImagePositionPatient": [-837.64048400391, -766.09658533986, 351.35656276788],
      "ImageType": [
        "ORIGINAL",
        "PRIMARY",
        "M",
        "MB",
        "ND",
        "MOSAIC"
],
      "ImagedNucleus": "1H",
      "ImagingFrequency": 123.259453,
      "InPlanePhaseEncodingDirection": "COL",
      "MRAcquisitionType": "2D",
      "MagneticFieldStrength": 3.0,
      "Manufacturer": "SIEMENS",
      "ManufacturerModelName": "Prisma_fit",
      "Modality": "MR",
      "NumberOfAverages": 1.0,
      "NumberOfPhaseEncodingSteps": 104,
      "PercentPhaseFieldOfView": 100.0,
      "PercentSampling": 100.0,
      "PerformedProcedureStepStartTime": "171349.034000",
      "PhotometricInterpretation": "MONOCHROME2",
      "PixelBandwidth": 2290.0,
      "PixelRepresentation": 0,
      "PixelSpacing": [2.0, 2.0],
      "ProtocolName": "func_task-gambling_run-1",
      "RepetitionTime": 1490.0,
      "Rows": 832,
      "SAR": 0.03371647217373,
      "SamplesPerPixel": 1,
      "ScanOptions": "FS",
      "ScanningSequence": "EP",
      "SequenceName": "epfid2d1_104",
      "SequenceVariant": [
        "SK",
        "SS"
],
      "SeriesDescription": "func_task-gambling_run-1",
      "SeriesNumber": 19,
      "SeriesTime": "175253.761000",
      "SliceLocation": -49.56995304136,
      "SliceThickness": 2.0,
      "SmallestImagePixelValue": 0,
      "SoftwareVersions": "syngo MR E11",
      "SpacingBetweenSlices": 1.9999999655727,
      "SpecificCharacterSet": "ISO_IR 100",
      "StudyID": "1",
      "StudyTime": "171348.975000",
      "TransmitCoilName": "Body",
      "VariableFlipAngleFlag": "N",
      "WindowCenterWidthExplanation": "Algo1",
      "dBdt": 0.0},
    "slices": {}
  },
  "time": {
    "samples": {
      "AcquisitionNumber": [1, 2, 3, 4, 5, 6, 7, 8, 9, 10, 11, 12, 13, 14, 15, 16, 17, 18, 19, 20, 21, 22, 23, 24, 25, 26, 27, 28, 29, 30, 31, 32, 33, 34, 35, 36, 37, 38, 39, 40, 41, 42, 43, 44, 45, 46, 47, 48, 49, 50, 51, 52, 53, 54, 55, 56, 57, 58, 59, 60, 61, 62, 63, 64, 65, 66, 67, 68, 69, 70, 71, 72, 73, 74, 75, 76, 77, 78, 79, 80, 81, 82, 83, 84, 85, 86, 87, 88, 89, 90, 91, 92, 93, 94, 95, 96, 97, 98, 99, 100, 101, 102, 103, 104, 105, 106, 107, 108, 109, 110, 111, 112, 113, 114, 115, 116, 117, 118, 119, 120, 121, 122, 123, 124, 125, 126, 127, 128, 129],
      "AcquisitionTime": ["175131.615000", "175133.105000", "175134.595000", "175136.085000", "175137.575000", "175139.065000", "175140.555000", "175142.045000", "175143.535000", "175145.025000", "175146.515000", "175148.005000", "175149.495000", "175150.985000", "175152.475000", "175153.965000", "175155.455000", "175156.945000", "175158.435000", "175159.925000", "175201.415000", "175202.905000", "175204.395000", "175205.885000", "175207.375000", "175208.865000", "175210.355000", "175211.845000", "175213.335000", "175214.825000", "175216.315000", "175217.805000", "175219.295000", "175220.785000", "175222.275000", "175223.765000", "175225.255000", "175226.745000", "175228.235000", "175229.725000", "175231.215000", "175232.705000", "175234.195000", "175235.685000", "175237.175000", "175238.665000", "175240.155000", "175241.645000", "175243.135000", "175244.625000", "175246.115000", "175247.605000", "175249.095000", "175250.585000", "175252.075000", "175253.565000", "175255.055000", "175256.545000", "175258.035000", "175259.525000", "175301.015000", "175302.505000", "175303.995000", "175305.485000", "175306.975000", "175308.465000", "175309.955000", "175311.445000", "175312.935000", "175314.425000", "175315.915000", "175317.405000", "175318.895000", "175320.385000", "175321.875000", "175323.365000", "175324.855000", "175326.345000", "175327.835000", "175329.325000", "175330.815000", "175332.305000", "175333.795000", "175335.285000", "175336.775000", "175338.265000", "175339.755000", "175341.245000", "175342.735000", "175344.225000", "175345.715000", "175347.205000", "175348.695000", "175350.185000", "175351.675000", "175353.165000", "175354.655000", "175356.145000", "175357.635000", "175359.125000", "175400.615000", "175402.105000", "175403.595000", "175405.085000", "175406.575000", "175408.065000", "175409.555000", "175411.045000", "175412.535000", "175414.025000", "175415.515000", "175417.005000", "175418.495000", "175419.985000", "175421.475000", "175422.965000", "175424.455000", "175425.945000", "175427.435000", "175428.925000", "175430.415000", "175431.905000", "175433.395000", "175434.885000", "175436.375000", "175437.865000", "175439.355000", "175440.845000", "175442.335000"],
      "ContentTime": ["175253.764000", "175253.767000", "175253.770000", "175253.773000", "175253.776000", "175253.779000", "175253.782000", "175253.784000", "175253.787000", "175253.790000", "175253.793000", "175253.803000", "175253.806000", "175253.809000", "175253.812000", "175253.815000", "175253.817000", "175253.820000", "175253.823000", "175253.826000", "175253.829000", "175253.832000", "175253.834000", "175253.837000", "175253.840000", "175253.843000", "175253.846000", "175253.849000", "175313.733000", "175313.736000", "175313.739000", "175313.742000", "175313.744000", "175313.747000", "175313.750000", "175313.753000", "175313.756000", "175313.759000", "175313.762000", "175313.765000", "175313.768000", "175313.770000", "175313.773000", "175313.776000", "175313.779000", "175313.782000", "175313.785000", "175313.787000", "175333.733000", "175333.736000", "175333.739000", "175333.742000", "175333.745000", "175333.748000", "175333.751000", "175333.753000", "175333.756000", "175333.759000", "175333.762000", "175333.765000", "175333.767000", "175333.770000", "175333.773000", "175333.776000", "175333.779000", "175333.782000", "175333.785000", "175333.788000", "175353.734000", "175353.737000", "175353.740000", "175353.743000", "175353.746000", "175353.748000", "175353.751000", "175353.754000", "175353.757000", "175353.760000", "175353.763000", "175353.766000", "175353.768000", "175353.771000", "175353.774000", "175353.777000", "175353.785000", "175353.788000", "175353.791000", "175353.794000", "175413.734000", "175413.737000", "175413.740000", "175413.743000", "175413.746000", "175413.749000", "175413.751000", "175413.754000", "175413.757000", "175413.760000", "175413.763000", "175413.766000", "175413.769000", "175413.771000", "175413.774000", "175413.777000", "175413.780000", "175413.783000", "175413.786000", "175413.789000", "175444.367000", "175444.370000", "175444.373000", "175444.378000", "175444.381000", "175444.383000", "175444.386000", "175444.389000", "175444.392000", "175444.395000", "175444.398000", "175444.401000", "175444.404000", "175444.407000", "175444.410000", "175444.413000", "175444.416000", "175444.419000", "175444.422000", "175444.425000", "175444.427000"],
      "InstanceCreationTime": ["175253.764000", "175253.767000", "175253.770000", "175253.773000", "175253.776000", "175253.779000", "175253.782000", "175253.784000", "175253.787000", "175253.790000", "175253.793000", "175253.803000", "175253.806000", "175253.809000", "175253.812000", "175253.815000", "175253.817000", "175253.820000", "175253.823000", "175253.826000", "175253.829000", "175253.832000", "175253.834000", "175253.837000", "175253.840000", "175253.843000", "175253.846000", "175253.849000", "175313.733000", "175313.736000", "175313.739000", "175313.742000", "175313.744000", "175313.747000", "175313.750000", "175313.753000", "175313.756000", "175313.759000", "175313.762000", "175313.765000", "175313.768000", "175313.770000", "175313.773000", "175313.776000", "175313.779000", "175313.782000", "175313.785000", "175313.787000", "175333.733000", "175333.736000", "175333.739000", "175333.742000", "175333.745000", "175333.748000", "175333.751000", "175333.753000", "175333.756000", "175333.759000", "175333.762000", "175333.765000", "175333.767000", "175333.770000", "175333.773000", "175333.776000", "175333.779000", "175333.782000", "175333.785000", "175333.788000", "175353.734000", "175353.737000", "175353.740000", "175353.743000", "175353.746000", "175353.748000", "175353.751000", "175353.754000", "175353.757000", "175353.760000", "175353.763000", "175353.766000", "175353.768000", "175353.771000", "175353.774000", "175353.777000", "175353.785000", "175353.788000", "175353.791000", "175353.794000", "175413.734000", "175413.737000", "175413.740000", "175413.743000", "175413.746000", "175413.749000", "175413.751000", "175413.754000", "175413.757000", "175413.760000", "175413.763000", "175413.766000", "175413.769000", "175413.771000", "175413.774000", "175413.777000", "175413.780000", "175413.783000", "175413.786000", "175413.789000", "175444.367000", "175444.370000", "175444.373000", "175444.378000", "175444.381000", "175444.383000", "175444.386000", "175444.389000", "175444.392000", "175444.395000", "175444.398000", "175444.401000", "175444.404000", "175444.407000", "175444.410000", "175444.413000", "175444.416000", "175444.419000", "175444.422000", "175444.425000", "175444.427000"],
      "InstanceNumber": [1, 2, 3, 4, 5, 6, 7, 8, 9, 10, 11, 12, 13, 14, 15, 16, 17, 18, 19, 20, 21, 22, 23, 24, 25, 26, 27, 28, 29, 30, 31, 32, 33, 34, 35, 36, 37, 38, 39, 40, 41, 42, 43, 44, 45, 46, 47, 48, 49, 50, 51, 52, 53, 54, 55, 56, 57, 58, 59, 60, 61, 62, 63, 64, 65, 66, 67, 68, 69, 70, 71, 72, 73, 74, 75, 76, 77, 78, 79, 80, 81, 82, 83, 84, 85, 86, 87, 88, 89, 90, 91, 92, 93, 94, 95, 96, 97, 98, 99, 100, 101, 102, 103, 104, 105, 106, 107, 108, 109, 110, 111, 112, 113, 114, 115, 116, 117, 118, 119, 120, 121, 122, 123, 124, 125, 126, 127, 128, 129],
      "LargestImagePixelValue": [57627, 55784, 54822, 53715, 54771, 55184, 55077, 54102, 53602, 53531, 53553, 53836, 54175, 54022, 54672, 54151, 54449, 54101, 54464, 53716, 54029, 53659, 53675, 53689, 53595, 53860, 53888, 54375, 53959, 54620, 54289, 54248, 53786, 52979, 52968, 53753, 54226, 54228, 54321, 54458, 54710, 53998, 53971, 53688, 54176, 54261, 53962, 54102, 54653, 53794, 54301, 53958, 53933, 53916, 53756, 53823, 53871, 54096, 53661, 53957, 52917, 53406, 53404, 54110, 53968, 54204, 53802, 53957, 54119, 53657, 53944, 54085, 53914, 53856, 53709, 53811, 54053, 53689, 53978, 54170, 53934, 53984, 53272, 53940, 53357, 54177, 53379, 53615, 53531, 54207, 53346, 53973, 53704, 53493, 53933, 53406, 53656, 53724, 53590, 53578, 53472, 53726, 53440, 53734, 53737, 53679, 53381, 53315, 53688, 53896, 53438, 53844, 53292, 53898, 53214, 53479, 53086, 54167, 53512, 53069, 53074, 52918, 53135, 53314, 54490, 55084, 54031, 54854, 53962],
      "WindowCenter": [10349.0, 10288.0, 10258.0, 10246.0, 10264.0, 10298.0, 10297.0, 10284.0, 10275.0, 10285.0, 10288.0, 10289.0, 10293.0, 10286.0, 10291.0, 10286.0, 10292.0, 10301.0, 10314.0, 10309.0, 10316.0, 10305.0, 10303.0, 10302.0, 10305.0, 10312.0, 10312.0, 10321.0, 10314.0, 10316.0, 10311.0, 10310.0, 10310.0, 10289.0, 10295.0, 10325.0, 10343.0, 10333.0, 10324.0, 10310.0, 10293.0, 10284.0, 10291.0, 10309.0, 10318.0, 10318.0, 10312.0, 10302.0, 10307.0, 10309.0, 10311.0, 10310.0, 10310.0, 10311.0, 10320.0, 10320.0, 10313.0, 10304.0, 10295.0, 10300.0, 10283.0, 10287.0, 10299.0, 10323.0, 10336.0, 10324.0, 10308.0, 10296.0, 10286.0, 10283.0, 10296.0, 10308.0, 10318.0, 10320.0, 10312.0, 10303.0, 10300.0, 10296.0, 10304.0, 10309.0, 10302.0, 10296.0, 10289.0, 10302.0, 10303.0, 10310.0, 10305.0, 10307.0, 10307.0, 10305.0, 10290.0, 10293.0, 10287.0, 10288.0, 10286.0, 10280.0, 10285.0, 10277.0, 10272.0, 10279.0, 10270.0, 10268.0, 10260.0, 10266.0, 10276.0, 10283.0, 10294.0, 10297.0, 10305.0, 10305.0, 10304.0, 10303.0, 10303.0, 10305.0, 10306.0, 10316.0, 10323.0, 10332.0, 10308.0, 10284.0, 10266.0, 10247.0, 10261.0, 10305.0, 10375.0, 10386.0, 10362.0, 10340.0, 10305.0],
      "WindowWidth": [22308.0, 22129.0, 22040.0, 21997.0, 22029.0, 22101.0, 22091.0, 22067.0, 22040.0, 22063.0, 22072.0, 22076.0, 22083.0, 22069.0, 22077.0, 22070.0, 22082.0, 22103.0, 22130.0, 22121.0, 22137.0, 22112.0, 22106.0, 22104.0, 22115.0, 22130.0, 22131.0, 22149.0, 22135.0, 22134.0, 22129.0, 22126.0, 22127.0, 22078.0, 22091.0, 22157.0, 22195.0, 22177.0, 22156.0, 22123.0, 22084.0, 22065.0, 22081.0, 22121.0, 22141.0, 22140.0, 22130.0, 22103.0, 22112.0, 22119.0, 22125.0, 22124.0, 22124.0, 22127.0, 22147.0, 22149.0, 22130.0, 22113.0, 22092.0, 22102.0, 22072.0, 22079.0, 22100.0, 22150.0, 22180.0, 22154.0, 22119.0, 22092.0, 22069.0, 22063.0, 22087.0, 22115.0, 22139.0, 22146.0, 22127.0, 22106.0, 22098.0, 22095.0, 22110.0, 22120.0, 22105.0, 22093.0, 22078.0, 22103.0, 22106.0, 22119.0, 22108.0, 22115.0, 22120.0, 22110.0, 22081.0, 22082.0, 22069.0, 22072.0, 22065.0, 22054.0, 22061.0, 22044.0, 22034.0, 22050.0, 22030.0, 22025.0, 22006.0, 22017.0, 22043.0, 22056.0, 22085.0, 22091.0, 22109.0, 22110.0, 22105.0, 22104.0, 22107.0, 22108.0, 22115.0, 22139.0, 22152.0, 22173.0, 22120.0, 22068.0, 22031.0, 21984.0, 22011.0, 22117.0, 22279.0, 22300.0, 22247.0, 22188.0, 22109.0]
    },
    "slices": {}
  }
}