{
  "AcquisitionMatrixPE": 104,
  "AcquisitionNumber": 1,
  "AcquisitionTime": "18:22:56.212500",
  "BandwidthPerPixelPhaseEncode": 17.17,
  "BaseResolution": 104,
  "BodyPartExamined": "BRAIN",
  "CoilString": "HC1-7;NC1_2",
  "ConsistencyInfo": "N4_VE11C_LATEST_20160120",
  "ConversionSoftware": "dcm2niix",
  "ConversionSoftwareVersion": "v1.0.20190720  (JP2:OpenJPEG) GCC7.3.0",
  "DerivedVendorReportedEchoSpacing": 0.000560011,
  "DeviceSerialNumber": "167006",
  "DwellTime": 2.1e-06,
  "EchoTime": 0.037,
  "EchoTrainLength": 104,
  "EffectiveEchoSpacing": 0.000560011,
  "FlipAngle": 52,
  "ImageComments": "Unaliased_MB4_PE3_LB",
  "ImageOrientationPatientDICOM": [0.999412, -0.0195948, -0.0281238, 0.00523298, 0.898094, -0.439772],
  "ImageType": [
    "ORIGINAL",
    "PRIMARY",
    "M",
    "MB",
    "ND",
    "MOSAIC"
],
  "ImagingFrequency": 123.259,
  "InPlanePhaseEncodingDirectionDICOM": "COL",
  "InstitutionAddress": "Chemin_Queen-Mary_4565_Montreal_District_CA_H3W_1W5",
  "InstitutionName": "IUGM",
  "InstitutionalDepartmentName": "Department",
  "MRAcquisitionType": "2D",
  "MagneticFieldStrength": 3,
  "Manufacturer": "Siemens",
  "ManufacturersModelName": "Prisma_fit",
  "Modality": "MR",
  "MultibandAccelerationFactor": 4,
  "PartialFourier": 1,
  "PatientPosition": "HFS",
  "PercentPhaseFOV": 100,
  "PhaseEncodingDirection": "j",
  "PhaseEncodingSteps": 104,
  "PhaseResolution": 1,
  "PixelBandwidth": 2290,
  "ProcedureStepDescription": "hcptrt_generic",
  "ProtocolName": "func_task-language_run-2",
  "PulseSequenceDetails": "%CustomerSeq%_cmrr_mbep2d_bold",
  "ReceiveCoilActiveElements": "HC1-7;NC1,2",
  "ReceiveCoilName": "HeadNeck_64",
  "ReconMatrixPE": 104,
  "RepetitionTime": 1.49,
  "SAR": 0.0338086,
  "ScanOptions": "FS",
  "ScanningSequence": "EP",
  "SequenceName": "epfid2d1_104",
  "SequenceVariant": "SK_SS",
  "SeriesDescription": "func_task-language_run-2",
  "SeriesNumber": 38,
  "ShimSetting": [622, -7236, -8875, 408, 60, -407, -7, 61],
  "SliceThickness": 2,
  "SliceTiming": [0, 0.7825, 0.0975, 0.88, 0.195, 0.98, 0.2925, 1.0775, 0.3925, 1.175, 0.49, 1.2725, 0.5875, 1.37, 0.685, 0, 0.7825, 0.0975, 0.88, 0.195, 0.98, 0.2925, 1.0775, 0.3925, 1.175, 0.49, 1.2725, 0.5875, 1.37, 0.685, 0, 0.7825, 0.0975, 0.88, 0.195, 0.98, 0.2925, 1.0775, 0.3925, 1.175, 0.49, 1.2725, 0.5875, 1.37, 0.685, 0, 0.7825, 0.0975, 0.88, 0.195, 0.98, 0.2925, 1.0775, 0.3925, 1.175, 0.49, 1.2725, 0.5875, 1.37, 0.685],
  "SoftwareVersions": "syngo_MR_E11",
  "SpacingBetweenSlices": 2,
  "StationName": "MRC35049",
  "TaskName": "language",
  "TotalReadoutTime": 0.0576811,
  "TxRefAmp": 236.153,
  "WipMemBlock": "b2422559-d16b-48fd-bf9b-4f6015e91fdc||Sequence: R016 ve11c/master r/e634e98; Dec 19 2017 11:00:25 by eja",
  "dcmmeta_affine": [
    [-1.9988247156143188, 0.010465950705111027, -0.06775003671646118, 105.18067169189453],
    [0.03918950632214546, 1.7961888313293457, -0.8787320852279663, -58.45859146118164],
    [-0.05624754726886749, 0.8795432448387146, 1.7953383922576904, -79.86425018310547],
    [0.0, 0.0, 0.0, 1.0]
],
  "dcmmeta_reorient_transform": [
    [0.0, -1.0, 0.0, 103.0],
    [1.0, 0.0, 0.0, 0.0],
    [0.0, 0.0, 1.0, 0.0],
    [0.0, 0.0, 0.0, 1.0]
],
  "dcmmeta_shape": [104, 104, 60, 159],
  "dcmmeta_slice_dim": 2,
  "dcmmeta_version": 0.6,
  "global": {
    "const": {
      "AcquisitionMatrix": [104, 0, 0, 104],
      "AngioFlag": "N",
      "BitsAllocated": 16,
      "BitsStored": 16,
      "BodyPartExamined": "BRAIN",
      "Columns": 832,
      "EchoNumbers": 1,
      "EchoTime": 37.0,
      "EchoTrainLength": 104,
      "FlipAngle": 52.0,
      "HighBit": 15,
      "ImageOrientationPatient": [0.99941237687072, -0.019594753348, -0.0281237728418, 0.005232975487, 0.89809438627206, -0.4397716331395],
      "ImagePositionPatient": [-837.64048400391, -766.09658533986, 351.35656276788],
      "ImageType": [
        "ORIGINAL",
        "PRIMARY",
        "M",
        "MB",
        "ND",
        "MOSAIC"
],
      "ImagedNucleus": "1H",
      "ImagingFrequency": 123.259459,
      "InPlanePhaseEncodingDirection": "COL",
      "MRAcquisitionType": "2D",
      "MagneticFieldStrength": 3.0,
      "Manufacturer": "SIEMENS",
      "ManufacturerModelName": "Prisma_fit",
      "Modality": "MR",
      "NumberOfAverages": 1.0,
      "NumberOfPhaseEncodingSteps": 104,
      "PercentPhaseFieldOfView": 100.0,
      "PercentSampling": 100.0,
      "PerformedProcedureStepStartTime": "171349.034000",
      "PhotometricInterpretation": "MONOCHROME2",
      "PixelBandwidth": 2290.0,
      "PixelRepresentation": 0,
      "PixelSpacing": [2.0, 2.0],
      "ProtocolName": "func_task-language_run-2",
      "RepetitionTime": 1490.0,
      "Rows": 832,
      "SAR": 0.03380862476355,
      "SamplesPerPixel": 1,
      "ScanOptions": "FS",
      "ScanningSequence": "EP",
      "SequenceName": "epfid2d1_104",
      "SequenceVariant": [
        "SK",
        "SS"
],
      "SeriesDescription": "func_task-language_run-2",
      "SeriesNumber": 38,
      "SeriesTime": "182425.573000",
      "SliceLocation": -49.56995304136,
      "SliceThickness": 2.0,
      "SmallestImagePixelValue": 0,
      "SoftwareVersions": "syngo MR E11",
      "SpacingBetweenSlices": 1.9999999655727,
      "SpecificCharacterSet": "ISO_IR 100",
      "StudyID": "1",
      "StudyTime": "171348.975000",
      "TransmitCoilName": "Body",
      "VariableFlipAngleFlag": "N",
      "WindowCenterWidthExplanation": "Algo1",
      "dBdt": 0.0},
    "slices": {}
  },
  "time": {
    "samples": {
      "AcquisitionNumber": [1, 2, 3, 4, 5, 6, 7, 8, 9, 10, 11, 12, 13, 14, 15, 16, 17, 18, 19, 20, 21, 22, 23, 24, 25, 26, 27, 28, 29, 30, 31, 32, 33, 34, 35, 36, 37, 38, 39, 40, 41, 42, 43, 44, 45, 46, 47, 48, 49, 50, 51, 52, 53, 54, 55, 56, 57, 58, 59, 60, 61, 62, 63, 64, 65, 66, 67, 68, 69, 70, 71, 72, 73, 74, 75, 76, 77, 78, 79, 80, 81, 82, 83, 84, 85, 86, 87, 88, 89, 90, 91, 92, 93, 94, 95, 96, 97, 98, 99, 100, 101, 102, 103, 104, 105, 106, 107, 108, 109, 110, 111, 112, 113, 114, 115, 116, 117, 118, 119, 120, 121, 122, 123, 124, 125, 126, 127, 128, 129, 130, 131, 132, 133, 134, 135, 136, 137, 138, 139, 140, 141, 142, 143, 144, 145, 146, 147, 148, 149, 150, 151, 152, 153, 154, 155, 156, 157, 158, 159],
      "AcquisitionTime": ["182256.212500", "182257.702500", "182259.192500", "182300.682500", "182302.172500", "182303.662500", "182305.152500", "182306.642500", "182308.132500", "182309.622500", "182311.112500", "182312.602500", "182314.092500", "182315.582500", "182317.072500", "182318.562500", "182320.052500", "182321.542500", "182323.032500", "182324.522500", "182326.012500", "182327.502500", "182328.992500", "182330.482500", "182331.972500", "182333.462500", "182334.952500", "182336.442500", "182337.932500", "182339.422500", "182340.912500", "182342.402500", "182343.892500", "182345.382500", "182346.872500", "182348.362500", "182349.852500", "182351.342500", "182352.832500", "182354.322500", "182355.812500", "182357.302500", "182358.792500", "182400.282500", "182401.772500", "182403.262500", "182404.752500", "182406.242500", "182407.732500", "182409.222500", "182410.712500", "182412.202500", "182413.692500", "182415.182500", "182416.672500", "182418.162500", "182419.652500", "182421.142500", "182422.632500", "182424.122500", "182425.612500", "182427.102500", "182428.592500", "182430.082500", "182431.572500", "182433.062500", "182434.552500", "182436.042500", "182437.532500", "182439.022500", "182440.512500", "182442.002500", "182443.492500", "182444.982500", "182446.472500", "182447.962500", "182449.452500", "182450.942500", "182452.432500", "182453.922500", "182455.412500", "182456.902500", "182458.392500", "182459.882500", "182501.372500", "182502.862500", "182504.352500", "182505.842500", "182507.332500", "182508.822500", "182510.312500", "182511.802500", "182513.292500", "182514.782500", "182516.272500", "182517.762500", "182519.252500", "182520.742500", "182522.232500", "182523.722500", "182525.212500", "182526.702500", "182528.192500", "182529.682500", "182531.172500", "182532.662500", "182534.152500", "182535.642500", "182537.132500", "182538.622500", "182540.112500", "182541.602500", "182543.092500", "182544.582500", "182546.072500", "182547.562500", "182549.052500", "182550.542500", "182552.032500", "182553.522500", "182555.012500", "182556.502500", "182557.992500", "182559.482500", "182600.972500", "182602.462500", "182603.952500", "182605.442500", "182606.932500", "182608.422500", "182609.912500", "182611.402500", "182612.892500", "182614.382500", "182615.872500", "182617.362500", "182618.852500", "182620.342500", "182621.832500", "182623.322500", "182624.812500", "182626.302500", "182627.792500", "182629.282500", "182630.772500", "182632.262500", "182633.752500", "182635.242500", "182636.732500", "182638.222500", "182639.712500", "182641.202500", "182642.692500", "182644.182500", "182645.672500", "182647.162500", "182648.652500", "182650.142500", "182651.632500"],
      "ContentTime": ["182425.576000", "182425.580000", "182425.583000", "182425.586000", "182425.589000", "182425.592000", "182425.595000", "182425.597000", "182425.600000", "182425.603000", "182425.606000", "182425.609000", "182425.612000", "182425.615000", "182425.624000", "182425.627000", "182425.630000", "182425.633000", "182425.636000", "182425.639000", "182425.641000", "182425.644000", "182425.649000", "182425.652000", "182425.654000", "182425.657000", "182425.660000", "182425.663000", "182425.666000", "182425.669000", "182425.672000", "182425.674000", "182425.677000", "182425.680000", "182425.683000", "182445.526000", "182445.529000", "182445.532000", "182445.535000", "182445.537000", "182445.543000", "182445.546000", "182445.549000", "182445.552000", "182445.554000", "182445.557000", "182445.560000", "182445.563000", "182445.566000", "182445.569000", "182445.571000", "182445.574000", "182445.577000", "182445.580000", "182445.583000", "182505.527000", "182505.530000", "182505.533000", "182505.536000", "182505.538000", "182505.541000", "182505.544000", "182505.547000", "182505.550000", "182505.552000", "182505.555000", "182505.558000", "182505.561000", "182505.564000", "182505.566000", "182505.569000", "182505.572000", "182505.575000", "182505.578000", "182505.581000", "182505.584000", "182525.527000", "182525.530000", "182525.533000", "182525.536000", "182525.539000", "182525.541000", "182525.544000", "182525.547000", "182525.550000", "182525.553000", "182525.556000", "182525.558000", "182525.561000", "182525.564000", "182525.567000", "182525.570000", "182525.573000", "182525.576000", "182525.578000", "182525.581000", "182605.527000", "182605.530000", "182605.533000", "182605.536000", "182605.539000", "182605.542000", "182605.544000", "182605.547000", "182605.550000", "182605.553000", "182605.556000", "182605.559000", "182605.562000", "182605.564000", "182605.567000", "182605.570000", "182605.573000", "182605.576000", "182605.579000", "182605.582000", "182605.585000", "182605.587000", "182605.590000", "182605.593000", "182605.596000", "182605.599000", "182605.602000", "182605.605000", "182605.608000", "182605.610000", "182645.527000", "182645.530000", "182645.533000", "182645.536000", "182645.539000", "182645.542000", "182645.545000", "182645.548000", "182645.550000", "182645.553000", "182645.556000", "182645.559000", "182645.562000", "182645.565000", "182645.568000", "182645.570000", "182645.573000", "182645.576000", "182645.579000", "182645.582000", "182645.585000", "182645.588000", "182645.591000", "182645.593000", "182645.596000", "182645.599000", "182645.602000", "182654.026000", "182654.030000", "182654.033000", "182654.036000", "182654.039000", "182654.042000"],
      "InstanceCreationTime": ["182425.576000", "182425.580000", "182425.583000", "182425.586000", "182425.589000", "182425.592000", "182425.595000", "182425.597000", "182425.600000", "182425.603000", "182425.606000", "182425.609000", "182425.612000", "182425.615000", "182425.624000", "182425.627000", "182425.630000", "182425.633000", "182425.636000", "182425.639000", "182425.641000", "182425.644000", "182425.649000", "182425.652000", "182425.654000", "182425.657000", "182425.660000", "182425.663000", "182425.666000", "182425.669000", "182425.672000", "182425.674000", "182425.677000", "182425.680000", "182425.683000", "182445.526000", "182445.529000", "182445.532000", "182445.535000", "182445.537000", "182445.543000", "182445.546000", "182445.549000", "182445.552000", "182445.554000", "182445.557000", "182445.560000", "182445.563000", "182445.566000", "182445.569000", "182445.571000", "182445.574000", "182445.577000", "182445.580000", "182445.583000", "182505.527000", "182505.530000", "182505.533000", "182505.536000", "182505.538000", "182505.541000", "182505.544000", "182505.547000", "182505.550000", "182505.552000", "182505.555000", "182505.558000", "182505.561000", "182505.564000", "182505.566000", "182505.569000", "182505.572000", "182505.575000", "182505.578000", "182505.581000", "182505.584000", "182525.527000", "182525.530000", "182525.533000", "182525.536000", "182525.539000", "182525.541000", "182525.544000", "182525.547000", "182525.550000", "182525.553000", "182525.556000", "182525.558000", "182525.561000", "182525.564000", "182525.567000", "182525.570000", "182525.573000", "182525.576000", "182525.578000", "182525.581000", "182605.527000", "182605.530000", "182605.533000", "182605.536000", "182605.539000", "182605.542000", "182605.544000", "182605.547000", "182605.550000", "182605.553000", "182605.556000", "182605.559000", "182605.562000", "182605.564000", "182605.567000", "182605.570000", "182605.573000", "182605.576000", "182605.579000", "182605.582000", "182605.585000", "182605.587000", "182605.590000", "182605.593000", "182605.596000", "182605.599000", "182605.602000", "182605.605000", "182605.608000", "182605.610000", "182645.527000", "182645.530000", "182645.533000", "182645.536000", "182645.539000", "182645.542000", "182645.545000", "182645.548000", "182645.550000", "182645.553000", "182645.556000", "182645.559000", "182645.562000", "182645.565000", "182645.568000", "182645.570000", "182645.573000", "182645.576000", "182645.579000", "182645.582000", "182645.585000", "182645.588000", "182645.591000", "182645.593000", "182645.596000", "182645.599000", "182645.602000", "182654.026000", "182654.030000", "182654.033000", "182654.036000", "182654.039000", "182654.042000"],
      "InstanceNumber": [1, 2, 3, 4, 5, 6, 7, 8, 9, 10, 11, 12, 13, 14, 15, 16, 17, 18, 19, 20, 21, 22, 23, 24, 25, 26, 27, 28, 29, 30, 31, 32, 33, 34, 35, 36, 37, 38, 39, 40, 41, 42, 43, 44, 45, 46, 47, 48, 49, 50, 51, 52, 53, 54, 55, 56, 57, 58, 59, 60, 61, 62, 63, 64, 65, 66, 67, 68, 69, 70, 71, 72, 73, 74, 75, 76, 77, 78, 79, 80, 81, 82, 83, 84, 85, 86, 87, 88, 89, 90, 91, 92, 93, 94, 95, 96, 97, 98, 99, 100, 101, 102, 103, 104, 105, 106, 107, 108, 109, 110, 111, 112, 113, 114, 115, 116, 117, 118, 119, 120, 121, 122, 123, 124, 125, 126, 127, 128, 129, 130, 131, 132, 133, 134, 135, 136, 137, 138, 139, 140, 141, 142, 143, 144, 145, 146, 147, 148, 149, 150, 151, 152, 153, 154, 155, 156, 157, 158, 159],
      "LargestImagePixelValue": [58161, 55076, 54725, 54448, 53963, 54516, 53607, 53649, 53535, 53671, 53418, 53295, 53253, 54793, 54145, 53990, 54530, 53998, 54308, 53790, 53887, 53324, 53957, 53433, 53465, 53366, 53672, 53696, 53809, 53431, 53436, 52962, 53719, 53000, 53133, 53410, 53346, 53607, 53741, 53954, 53650, 52766, 53238, 53664, 52490, 52868, 52907, 53230, 53468, 53740, 53956, 53190, 53630, 53163, 53463, 53225, 53270, 53368, 53385, 53316, 53719, 53144, 53611, 53652, 53711, 53869, 53379, 54149, 53729, 53235, 53543, 52861, 53639, 53659, 53778, 53382, 54068, 53653, 53541, 53470, 53673, 53106, 53087, 53028, 52815, 52884, 52929, 53333, 53224, 53623, 53435, 53641, 53276, 53831, 53775, 54063, 53405, 53596, 53424, 53899, 53414, 54001, 53330, 53947, 53498, 53405, 53616, 52534, 52111, 53041, 53479, 52966, 53392, 53197, 53484, 52728, 52277, 52202, 52563, 52256, 52802, 52505, 53060, 52893, 53367, 53463, 53094, 52954, 52966, 52807, 52730, 52712, 52225, 52739, 52858, 53180, 53228, 52965, 52447, 52026, 52637, 52368, 52434, 52234, 52798, 52618, 52360, 51824, 52369, 52335, 52269, 52383, 52339, 52095, 52170, 52355, 53551, 52703, 53169],
      "WindowCenter": [10416.0, 10340.0, 10319.0, 10310.0, 10303.0, 10299.0, 10285.0, 10276.0, 10275.0, 10282.0, 10284.0, 10282.0, 10291.0, 10305.0, 10294.0, 10285.0, 10274.0, 10265.0, 10269.0, 10278.0, 10282.0, 10292.0, 10297.0, 10277.0, 10275.0, 10281.0, 10282.0, 10282.0, 10277.0, 10284.0, 10292.0, 10302.0, 10301.0, 10289.0, 10287.0, 10286.0, 10293.0, 10299.0, 10300.0, 10297.0, 10298.0, 10299.0, 10298.0, 10291.0, 10270.0, 10267.0, 10276.0, 10302.0, 10319.0, 10320.0, 10304.0, 10286.0, 10273.0, 10274.0, 10295.0, 10301.0, 10301.0, 10292.0, 10276.0, 10264.0, 10261.0, 10263.0, 10280.0, 10296.0, 10293.0, 10291.0, 10290.0, 10296.0, 10298.0, 10299.0, 10301.0, 10296.0, 10308.0, 10302.0, 10295.0, 10301.0, 10297.0, 10292.0, 10284.0, 10279.0, 10275.0, 10269.0, 10250.0, 10234.0, 10238.0, 10256.0, 10283.0, 10294.0, 10279.0, 10267.0, 10262.0, 10262.0, 10273.0, 10290.0, 10298.0, 10304.0, 10286.0, 10290.0, 10291.0, 10290.0, 10291.0, 10299.0, 10294.0, 10292.0, 10285.0, 10275.0, 10277.0, 10280.0, 10273.0, 10257.0, 10238.0, 10230.0, 10235.0, 10244.0, 10252.0, 10240.0, 10233.0, 10233.0, 10245.0, 10251.0, 10272.0, 10277.0, 10276.0, 10283.0, 10296.0, 10299.0, 10294.0, 10286.0, 10277.0, 10267.0, 10268.0, 10274.0, 10276.0, 10278.0, 10284.0, 10288.0, 10287.0, 10281.0, 10275.0, 10269.0, 10274.0, 10274.0, 10277.0, 10275.0, 10280.0, 10277.0, 10276.0, 10262.0, 10266.0, 10273.0, 10282.0, 10287.0, 10293.0, 10285.0, 10270.0, 10276.0, 10304.0, 10304.0, 10316.0],
      "WindowWidth": [22447.0, 22233.0, 22154.0, 22119.0, 22102.0, 22089.0, 22059.0, 22039.0, 22041.0, 22053.0, 22060.0, 22053.0, 22072.0, 22099.0, 22077.0, 22055.0, 22028.0, 22009.0, 22017.0, 22039.0, 22052.0, 22075.0, 22086.0, 22044.0, 22035.0, 22049.0, 22052.0, 22051.0, 22041.0, 22056.0, 22073.0, 22099.0, 22099.0, 22074.0, 22068.0, 22062.0, 22077.0, 22090.0, 22093.0, 22086.0, 22086.0, 22097.0, 22092.0, 22071.0, 22031.0, 22023.0, 22043.0, 22101.0, 22138.0, 22141.0, 22105.0, 22065.0, 22033.0, 22036.0, 22082.0, 22096.0, 22097.0, 22076.0, 22042.0, 22013.0, 22006.0, 22012.0, 22052.0, 22083.0, 22082.0, 22075.0, 22069.0, 22080.0, 22084.0, 22088.0, 22095.0, 22086.0, 22111.0, 22100.0, 22083.0, 22095.0, 22081.0, 22071.0, 22057.0, 22047.0, 22035.0, 22021.0, 21979.0, 21943.0, 21953.0, 21992.0, 22055.0, 22080.0, 22048.0, 22018.0, 22006.0, 22005.0, 22029.0, 22067.0, 22083.0, 22098.0, 22061.0, 22067.0, 22075.0, 22066.0, 22073.0, 22092.0, 22083.0, 22076.0, 22062.0, 22039.0, 22037.0, 22055.0, 22039.0, 21996.0, 21950.0, 21934.0, 21943.0, 21961.0, 21978.0, 21954.0, 21942.0, 21944.0, 21966.0, 21984.0, 22027.0, 22047.0, 22042.0, 22054.0, 22078.0, 22085.0, 22076.0, 22058.0, 22037.0, 22015.0, 22020.0, 22035.0, 22041.0, 22049.0, 22058.0, 22061.0, 22058.0, 22043.0, 22033.0, 22024.0, 22033.0, 22032.0, 22042.0, 22037.0, 22047.0, 22047.0, 22042.0, 22011.0, 22016.0, 22029.0, 22050.0, 22063.0, 22078.0, 22061.0, 22027.0, 22041.0, 22114.0, 22113.0, 22132.0]
    },
    "slices": {}
  }
}