{
  "AcquisitionMatrixPE": 104,
  "AcquisitionNumber": 1,
  "AcquisitionTime": "17:27:2.917500",
  "BandwidthPerPixelPhaseEncode": 17.17,
  "BaseResolution": 104,
  "BodyPartExamined": "BRAIN",
  "CoilString": "HC1-7;NC1_2",
  "ConsistencyInfo": "N4_VE11C_LATEST_20160120",
  "ConversionSoftware": "dcm2niix",
  "ConversionSoftwareVersion": "v1.0.20190720  (JP2:OpenJPEG) GCC7.3.0",
  "DerivedVendorReportedEchoSpacing": 0.000560011,
  "DeviceSerialNumber": "167006",
  "DwellTime": 2.1e-06,
  "EchoTime": 0.037,
  "EchoTrainLength": 104,
  "EffectiveEchoSpacing": 0.000560011,
  "FlipAngle": 52,
  "ImageComments": "Unaliased_MB4_PE3_LB",
  "ImageOrientationPatientDICOM": [0.999412, -0.0195948, -0.0281238, 0.00523298, 0.898094, -0.439772],
  "ImageType": [
    "ORIGINAL",
    "PRIMARY",
    "M",
    "MB",
    "ND",
    "MOSAIC"
],
  "ImagingFrequency": 123.259,
  "InPlanePhaseEncodingDirectionDICOM": "COL",
  "InstitutionAddress": "Chemin_Queen-Mary_4565_Montreal_District_CA_H3W_1W5",
  "InstitutionName": "IUGM",
  "InstitutionalDepartmentName": "Department",
  "MRAcquisitionType": "2D",
  "MagneticFieldStrength": 3,
  "Manufacturer": "Siemens",
  "ManufacturersModelName": "Prisma_fit",
  "Modality": "MR",
  "MultibandAccelerationFactor": 4,
  "PartialFourier": 1,
  "PatientPosition": "HFS",
  "PercentPhaseFOV": 100,
  "PhaseEncodingDirection": "j",
  "PhaseEncodingSteps": 104,
  "PhaseResolution": 1,
  "PixelBandwidth": 2290,
  "ProcedureStepDescription": "hcptrt_generic",
  "ProtocolName": "func_task-relational_run-1",
  "PulseSequenceDetails": "%CustomerSeq%_cmrr_mbep2d_bold",
  "ReceiveCoilActiveElements": "HC1-7;NC1,2",
  "ReceiveCoilName": "HeadNeck_64",
  "ReconMatrixPE": 104,
  "RepetitionTime": 1.49,
  "SAR": 0.033676,
  "ScanOptions": "FS",
  "ScanningSequence": "EP",
  "SequenceName": "epfid2d1_104",
  "SequenceVariant": "SK_SS",
  "SeriesDescription": "func_task-relational_run-1",
  "SeriesNumber": 9,
  "ShimSetting": [622, -7236, -8875, 408, 60, -407, -7, 61],
  "SliceThickness": 2,
  "SliceTiming": [0, 0.785, 0.0975, 0.8825, 0.1975, 0.98, 0.295, 1.0775, 0.3925, 1.175, 0.49, 1.275, 0.5875, 1.3725, 0.6875, 0, 0.785, 0.0975, 0.8825, 0.1975, 0.98, 0.295, 1.0775, 0.3925, 1.175, 0.49, 1.275, 0.5875, 1.3725, 0.6875, 0, 0.785, 0.0975, 0.8825, 0.1975, 0.98, 0.295, 1.0775, 0.3925, 1.175, 0.49, 1.275, 0.5875, 1.3725, 0.6875, 0, 0.785, 0.0975, 0.8825, 0.1975, 0.98, 0.295, 1.0775, 0.3925, 1.175, 0.49, 1.275, 0.5875, 1.3725, 0.6875],
  "SoftwareVersions": "syngo_MR_E11",
  "SpacingBetweenSlices": 2,
  "StationName": "MRC35049",
  "TaskName": "relational",
  "TotalReadoutTime": 0.0576811,
  "TxRefAmp": 236.153,
  "WipMemBlock": "6c31bf7c-c0c2-4be9-a80f-10e68803cb4a||Sequence: R016 ve11c/master r/e634e98; Dec 19 2017 11:00:25 by eja",
  "dcmmeta_affine": [
    [-1.9988247156143188, 0.010465950705111027, -0.06775003671646118, 105.18067169189453],
    [0.03918950632214546, 1.7961888313293457, -0.8787320852279663, -58.45859146118164],
    [-0.05624754726886749, 0.8795432448387146, 1.7953383922576904, -79.86425018310547],
    [0.0, 0.0, 0.0, 1.0]
],
  "dcmmeta_reorient_transform": [
    [0.0, -1.0, 0.0, 103.0],
    [1.0, 0.0, 0.0, 0.0],
    [0.0, 0.0, 1.0, 0.0],
    [0.0, 0.0, 0.0, 1.0]
],
  "dcmmeta_shape": [104, 104, 60, 119],
  "dcmmeta_slice_dim": 2,
  "dcmmeta_version": 0.6,
  "global": {
    "const": {
      "AcquisitionMatrix": [104, 0, 0, 104],
      "AngioFlag": "N",
      "BitsAllocated": 16,
      "BitsStored": 16,
      "BodyPartExamined": "BRAIN",
      "Columns": 832,
      "EchoNumbers": 1,
      "EchoTime": 37.0,
      "EchoTrainLength": 104,
      "FlipAngle": 52.0,
      "HighBit": 15,
      "ImageOrientationPatient": [0.99941237687072, -0.019594753348, -0.0281237728418, 0.005232975487, 0.89809438627206, -0.4397716331395],
      "ImagePositionPatient": [-837.64048400391, -766.09658533986, 351.35656276788],
      "ImageType": [
        "ORIGINAL",
        "PRIMARY",
        "M",
        "MB",
        "ND",
        "MOSAIC"
],
      "ImagedNucleus": "1H",
      "ImagingFrequency": 123.259443,
      "InPlanePhaseEncodingDirection": "COL",
      "MRAcquisitionType": "2D",
      "MagneticFieldStrength": 3.0,
      "Manufacturer": "SIEMENS",
      "ManufacturerModelName": "Prisma_fit",
      "Modality": "MR",
      "NumberOfAverages": 1.0,
      "NumberOfPhaseEncodingSteps": 104,
      "PercentPhaseFieldOfView": 100.0,
      "PercentSampling": 100.0,
      "PerformedProcedureStepStartTime": "171349.034000",
      "PhotometricInterpretation": "MONOCHROME2",
      "PixelBandwidth": 2290.0,
      "PixelRepresentation": 0,
      "PixelSpacing": [2.0, 2.0],
      "ProtocolName": "func_task-relational_run-1",
      "RepetitionTime": 1490.0,
      "Rows": 832,
      "SAR": 0.03367600539455,
      "SamplesPerPixel": 1,
      "ScanOptions": "FS",
      "ScanningSequence": "EP",
      "SequenceName": "epfid2d1_104",
      "SequenceVariant": [
        "SK",
        "SS"
],
      "SeriesDescription": "func_task-relational_run-1",
      "SeriesNumber": 9,
      "SeriesTime": "172828.227000",
      "SliceLocation": -49.56995304136,
      "SliceThickness": 2.0,
      "SmallestImagePixelValue": 0,
      "SoftwareVersions": "syngo MR E11",
      "SpacingBetweenSlices": 1.9999999655727,
      "SpecificCharacterSet": "ISO_IR 100",
      "StudyID": "1",
      "StudyTime": "171348.975000",
      "TransmitCoilName": "Body",
      "VariableFlipAngleFlag": "N",
      "WindowCenterWidthExplanation": "Algo1",
      "dBdt": 0.0},
    "slices": {}
  },
  "time": {
    "samples": {
      "AcquisitionNumber": [1, 2, 3, 4, 5, 6, 7, 8, 9, 10, 11, 12, 13, 14, 15, 16, 17, 18, 19, 20, 21, 22, 23, 24, 25, 26, 27, 28, 29, 30, 31, 32, 33, 34, 35, 36, 37, 38, 39, 40, 41, 42, 43, 44, 45, 46, 47, 48, 49, 50, 51, 52, 53, 54, 55, 56, 57, 58, 59, 60, 61, 62, 63, 64, 65, 66, 67, 68, 69, 70, 71, 72, 73, 74, 75, 76, 77, 78, 79, 80, 81, 82, 83, 84, 85, 86, 87, 88, 89, 90, 91, 92, 93, 94, 95, 96, 97, 98, 99, 100, 101, 102, 103, 104, 105, 106, 107, 108, 109, 110, 111, 112, 113, 114, 115, 116, 117, 118, 119],
      "AcquisitionTime": ["172702.917500", "172704.407500", "172705.897500", "172707.387500", "172708.877500", "172710.367500", "172711.857500", "172713.347500", "172714.837500", "172716.327500", "172717.817500", "172719.307500", "172720.797500", "172722.287500", "172723.777500", "172725.267500", "172726.757500", "172728.247500", "172729.737500", "172731.227500", "172732.717500", "172734.207500", "172735.697500", "172737.187500", "172738.677500", "172740.167500", "172741.657500", "172743.147500", "172744.637500", "172746.127500", "172747.617500", "172749.107500", "172750.597500", "172752.087500", "172753.577500", "172755.067500", "172756.557500", "172758.047500", "172759.537500", "172801.027500", "172802.517500", "172804.007500", "172805.497500", "172806.987500", "172808.477500", "172809.967500", "172811.457500", "172812.947500", "172814.437500", "172815.927500", "172817.417500", "172818.907500", "172820.397500", "172821.887500", "172823.377500", "172824.867500", "172826.357500", "172827.847500", "172829.337500", "172830.827500", "172832.317500", "172833.807500", "172835.297500", "172836.787500", "172838.277500", "172839.767500", "172841.257500", "172842.747500", "172844.237500", "172845.727500", "172847.217500", "172848.707500", "172850.197500", "172851.687500", "172853.177500", "172854.667500", "172856.157500", "172857.647500", "172859.137500", "172900.627500", "172902.117500", "172903.607500", "172905.097500", "172906.587500", "172908.077500", "172909.567500", "172911.057500", "172912.547500", "172914.037500", "172915.527500", "172917.017500", "172918.507500", "172919.997500", "172921.487500", "172922.977500", "172924.467500", "172925.957500", "172927.447500", "172928.937500", "172930.427500", "172931.917500", "172933.407500", "172934.897500", "172936.387500", "172937.877500", "172939.367500", "172940.857500", "172942.347500", "172943.837500", "172945.327500", "172946.817500", "172948.307500", "172949.797500", "172951.287500", "172952.777500", "172954.267500", "172955.757500", "172957.247500", "172958.737500"],
      "ContentTime": ["172828.230000", "172828.233000", "172828.236000", "172828.239000", "172828.242000", "172828.251000", "172828.254000", "172828.257000", "172828.260000", "172828.263000", "172828.266000", "172828.269000", "172828.272000", "172828.274000", "172828.277000", "172828.280000", "172828.283000", "172828.293000", "172828.296000", "172828.299000", "172828.301000", "172828.304000", "172828.307000", "172828.310000", "172828.313000", "172828.316000", "172828.319000", "172828.322000", "172828.325000", "172828.327000", "172828.330000", "172828.333000", "172848.183000", "172848.186000", "172848.189000", "172848.192000", "172848.195000", "172848.197000", "172848.206000", "172848.209000", "172848.211000", "172848.214000", "172848.217000", "172848.220000", "172848.223000", "172848.226000", "172848.229000", "172848.232000", "172848.234000", "172848.237000", "172848.240000", "172848.243000", "172908.183000", "172908.186000", "172908.189000", "172908.192000", "172908.194000", "172908.197000", "172908.200000", "172908.203000", "172908.206000", "172908.209000", "172908.212000", "172908.215000", "172908.218000", "172908.220000", "172908.223000", "172908.226000", "172908.229000", "172908.232000", "172908.235000", "172908.238000", "172928.183000", "172928.186000", "172928.189000", "172928.191000", "172928.194000", "172928.197000", "172928.200000", "172928.203000", "172928.206000", "172928.209000", "172928.212000", "172928.215000", "172928.217000", "172928.220000", "172928.223000", "172928.226000", "172928.229000", "172928.232000", "172928.235000", "172928.237000", "173000.857000", "173000.860000", "173000.863000", "173000.866000", "173000.869000", "173000.872000", "173000.875000", "173000.878000", "173000.881000", "173000.884000", "173000.886000", "173000.889000", "173000.892000", "173000.895000", "173000.898000", "173000.901000", "173000.904000", "173000.907000", "173000.910000", "173000.913000", "173000.916000", "173000.919000", "173000.922000", "173000.925000", "173000.928000", "173000.931000", "173000.934000"],
      "InstanceCreationTime": ["172828.230000", "172828.233000", "172828.236000", "172828.239000", "172828.242000", "172828.251000", "172828.254000", "172828.257000", "172828.260000", "172828.263000", "172828.266000", "172828.269000", "172828.272000", "172828.274000", "172828.277000", "172828.280000", "172828.283000", "172828.293000", "172828.296000", "172828.299000", "172828.301000", "172828.304000", "172828.307000", "172828.310000", "172828.313000", "172828.316000", "172828.319000", "172828.322000", "172828.325000", "172828.327000", "172828.330000", "172828.333000", "172848.183000", "172848.186000", "172848.189000", "172848.192000", "172848.195000", "172848.197000", "172848.206000", "172848.209000", "172848.211000", "172848.214000", "172848.217000", "172848.220000", "172848.223000", "172848.226000", "172848.229000", "172848.232000", "172848.234000", "172848.237000", "172848.240000", "172848.243000", "172908.183000", "172908.186000", "172908.189000", "172908.192000", "172908.194000", "172908.197000", "172908.200000", "172908.203000", "172908.206000", "172908.209000", "172908.212000", "172908.215000", "172908.218000", "172908.220000", "172908.223000", "172908.226000", "172908.229000", "172908.232000", "172908.235000", "172908.238000", "172928.183000", "172928.186000", "172928.189000", "172928.191000", "172928.194000", "172928.197000", "172928.200000", "172928.203000", "172928.206000", "172928.209000", "172928.212000", "172928.215000", "172928.217000", "172928.220000", "172928.223000", "172928.226000", "172928.229000", "172928.232000", "172928.235000", "172928.237000", "173000.857000", "173000.860000", "173000.863000", "173000.866000", "173000.869000", "173000.872000", "173000.875000", "173000.878000", "173000.881000", "173000.884000", "173000.886000", "173000.889000", "173000.892000", "173000.895000", "173000.898000", "173000.901000", "173000.904000", "173000.907000", "173000.910000", "173000.913000", "173000.916000", "173000.919000", "173000.922000", "173000.925000", "173000.928000", "173000.931000", "173000.934000"],
      "InstanceNumber": [1, 2, 3, 4, 5, 6, 7, 8, 9, 10, 11, 12, 13, 14, 15, 16, 17, 18, 19, 20, 21, 22, 23, 24, 25, 26, 27, 28, 29, 30, 31, 32, 33, 34, 35, 36, 37, 38, 39, 40, 41, 42, 43, 44, 45, 46, 47, 48, 49, 50, 51, 52, 53, 54, 55, 56, 57, 58, 59, 60, 61, 62, 63, 64, 65, 66, 67, 68, 69, 70, 71, 72, 73, 74, 75, 76, 77, 78, 79, 80, 81, 82, 83, 84, 85, 86, 87, 88, 89, 90, 91, 92, 93, 94, 95, 96, 97, 98, 99, 100, 101, 102, 103, 104, 105, 106, 107, 108, 109, 110, 111, 112, 113, 114, 115, 116, 117, 118, 119],
      "LargestImagePixelValue": [56977, 55701, 54802, 54278, 53873, 52878, 52476, 53327, 52701, 53305, 52970, 53022, 53290, 53317, 53787, 53591, 53618, 53611, 54591, 53918, 54005, 55860, 55263, 53971, 53529, 53973, 54406, 54911, 54284, 53842, 52801, 52756, 53255, 53500, 53377, 53414, 53630, 53173, 53897, 54050, 53363, 53085, 53261, 52989, 52922, 53157, 53275, 52968, 53414, 53177, 53069, 53325, 53166, 52756, 52882, 53078, 53371, 53305, 53101, 53140, 53260, 53407, 52942, 53906, 53320, 53588, 53361, 54198, 54368, 53616, 53022, 53206, 53362, 53293, 53116, 53284, 53804, 54261, 53020, 52986, 52780, 52695, 53482, 52916, 53310, 53085, 53869, 52926, 53183, 52712, 52957, 52728, 52623, 53611, 53083, 53088, 52858, 52820, 53028, 53308, 52580, 53044, 52409, 53535, 53286, 53242, 52954, 53138, 54401, 54731, 53741, 52774, 52786, 52379, 52283, 52874, 52937, 53158, 53299],
      "WindowCenter": [10462.0, 10406.0, 10378.0, 10373.0, 10358.0, 10329.0, 10318.0, 10325.0, 10333.0, 10359.0, 10371.0, 10372.0, 10365.0, 10369.0, 10376.0, 10380.0, 10403.0, 10412.0, 10418.0, 10401.0, 10412.0, 10435.0, 10418.0, 10392.0, 10374.0, 10372.0, 10365.0, 10349.0, 10317.0, 10284.0, 10261.0, 10258.0, 10262.0, 10271.0, 10278.0, 10297.0, 10322.0, 10333.0, 10343.0, 10347.0, 10352.0, 10362.0, 10365.0, 10364.0, 10357.0, 10362.0, 10355.0, 10354.0, 10367.0, 10366.0, 10380.0, 10388.0, 10383.0, 10367.0, 10362.0, 10362.0, 10389.0, 10389.0, 10378.0, 10366.0, 10356.0, 10344.0, 10332.0, 10340.0, 10341.0, 10342.0, 10344.0, 10350.0, 10343.0, 10351.0, 10344.0, 10327.0, 10315.0, 10305.0, 10307.0, 10324.0, 10331.0, 10335.0, 10339.0, 10342.0, 10340.0, 10333.0, 10337.0, 10333.0, 10340.0, 10347.0, 10347.0, 10342.0, 10332.0, 10324.0, 10322.0, 10340.0, 10343.0, 10359.0, 10339.0, 10331.0, 10340.0, 10363.0, 10372.0, 10365.0, 10336.0, 10322.0, 10315.0, 10333.0, 10345.0, 10346.0, 10347.0, 10345.0, 10367.0, 10360.0, 10330.0, 10306.0, 10297.0, 10298.0, 10292.0, 10291.0, 10267.0, 10254.0, 10260.0],
      "WindowWidth": [22588.0, 22414.0, 22327.0, 22303.0, 22264.0, 22199.0, 22169.0, 22182.0, 22198.0, 22255.0, 22284.0, 22286.0, 22272.0, 22282.0, 22298.0, 22308.0, 22360.0, 22380.0, 22393.0, 22353.0, 22376.0, 22425.0, 22384.0, 22331.0, 22286.0, 22277.0, 22262.0, 22226.0, 22150.0, 22077.0, 22029.0, 22025.0, 22032.0, 22058.0, 22068.0, 22111.0, 22165.0, 22191.0, 22216.0, 22219.0, 22235.0, 22260.0, 22266.0, 22263.0, 22246.0, 22258.0, 22242.0, 22241.0, 22266.0, 22271.0, 22301.0, 22319.0, 22311.0, 22274.0, 22260.0, 22259.0, 22321.0, 22317.0, 22297.0, 22269.0, 22244.0, 22215.0, 22193.0, 22205.0, 22209.0, 22212.0, 22216.0, 22228.0, 22209.0, 22231.0, 22216.0, 22177.0, 22148.0, 22125.0, 22133.0, 22173.0, 22184.0, 22190.0, 22202.0, 22212.0, 22203.0, 22188.0, 22196.0, 22193.0, 22207.0, 22222.0, 22224.0, 22212.0, 22190.0, 22176.0, 22165.0, 22210.0, 22219.0, 22247.0, 22205.0, 22191.0, 22212.0, 22257.0, 22281.0, 22262.0, 22201.0, 22163.0, 22154.0, 22187.0, 22223.0, 22222.0, 22217.0, 22213.0, 22261.0, 22245.0, 22179.0, 22125.0, 22105.0, 22113.0, 22098.0, 22094.0, 22040.0, 22013.0, 22023.0]
    },
    "slices": {}
  }
}