{
  "AcquisitionMatrixPE": 104,
  "AcquisitionNumber": 1,
  "AcquisitionTime": "18:16:52.905000",
  "BandwidthPerPixelPhaseEncode": 17.17,
  "BaseResolution": 104,
  "BodyPartExamined": "BRAIN",
  "CoilString": "HC1-7;NC1_2",
  "ConsistencyInfo": "N4_VE11C_LATEST_20160120",
  "ConversionSoftware": "dcm2niix",
  "ConversionSoftwareVersion": "v1.0.20190720  (JP2:OpenJPEG) GCC7.3.0",
  "DerivedVendorReportedEchoSpacing": 0.000560011,
  "DeviceSerialNumber": "167006",
  "DwellTime": 2.1e-06,
  "EchoTime": 0.037,
  "EchoTrainLength": 104,
  "EffectiveEchoSpacing": 0.000560011,
  "FlipAngle": 52,
  "ImageComments": "Unaliased_MB4_PE3_LB",
  "ImageOrientationPatientDICOM": [0.999412, -0.0195948, -0.0281238, 0.00523298, 0.898094, -0.439772],
  "ImageType": [
    "ORIGINAL",
    "PRIMARY",
    "M",
    "MB",
    "ND",
    "MOSAIC"
],
  "ImagingFrequency": 123.259,
  "InPlanePhaseEncodingDirectionDICOM": "COL",
  "InstitutionAddress": "Chemin_Queen-Mary_4565_Montreal_District_CA_H3W_1W5",
  "InstitutionName": "IUGM",
  "InstitutionalDepartmentName": "Department",
  "MRAcquisitionType": "2D",
  "MagneticFieldStrength": 3,
  "Manufacturer": "Siemens",
  "ManufacturersModelName": "Prisma_fit",
  "Modality": "MR",
  "MultibandAccelerationFactor": 4,
  "PartialFourier": 1,
  "PatientPosition": "HFS",
  "PercentPhaseFOV": 100,
  "PhaseEncodingDirection": "j",
  "PhaseEncodingSteps": 104,
  "PhaseResolution": 1,
  "PixelBandwidth": 2290,
  "ProcedureStepDescription": "hcptrt_generic",
  "ProtocolName": "func_task-wm_run-2",
  "PulseSequenceDetails": "%CustomerSeq%_cmrr_mbep2d_bold",
  "ReceiveCoilActiveElements": "HC1-7;NC1,2",
  "ReceiveCoilName": "HeadNeck_64",
  "ReconMatrixPE": 104,
  "RepetitionTime": 1.49,
  "SAR": 0.0338946,
  "ScanOptions": "FS",
  "ScanningSequence": "EP",
  "SequenceName": "epfid2d1_104",
  "SequenceVariant": "SK_SS",
  "SeriesDescription": "func_task-wm_run-2",
  "SeriesNumber": 36,
  "ShimSetting": [622, -7236, -8875, 408, 60, -407, -7, 61],
  "SliceThickness": 2,
  "SliceTiming": [0, 0.785, 0.1, 0.8825, 0.1975, 0.98, 0.295, 1.08, 0.3925, 1.1775, 0.49, 1.275, 0.59, 1.3725, 0.6875, 0, 0.785, 0.1, 0.8825, 0.1975, 0.98, 0.295, 1.08, 0.3925, 1.1775, 0.49, 1.275, 0.59, 1.3725, 0.6875, 0, 0.785, 0.1, 0.8825, 0.1975, 0.98, 0.295, 1.08, 0.3925, 1.1775, 0.49, 1.275, 0.59, 1.3725, 0.6875, 0, 0.785, 0.1, 0.8825, 0.1975, 0.98, 0.295, 1.08, 0.3925, 1.1775, 0.49, 1.275, 0.59, 1.3725, 0.6875],
  "SoftwareVersions": "syngo_MR_E11",
  "SpacingBetweenSlices": 2,
  "StationName": "MRC35049",
  "TaskName": "wm",
  "TotalReadoutTime": 0.0576811,
  "TxRefAmp": 236.153,
  "WipMemBlock": "2b868540-7de6-4d06-881a-6cfd25a09978||Sequence: R016 ve11c/master r/e634e98; Dec 19 2017 11:00:25 by eja",
  "dcmmeta_affine": [
    [-1.9988247156143188, 0.010465950705111027, -0.06775003671646118, 105.18067169189453],
    [0.03918950632214546, 1.7961888313293457, -0.8787320852279663, -58.45859146118164],
    [-0.05624754726886749, 0.8795432448387146, 1.7953383922576904, -79.86425018310547],
    [0.0, 0.0, 0.0, 1.0]
],
  "dcmmeta_reorient_transform": [
    [0.0, -1.0, 0.0, 103.0],
    [1.0, 0.0, 0.0, 0.0],
    [0.0, 0.0, 1.0, 0.0],
    [0.0, 0.0, 0.0, 1.0]
],
  "dcmmeta_shape": [104, 104, 60, 202],
  "dcmmeta_slice_dim": 2,
  "dcmmeta_version": 0.6,
  "global": {
    "const": {
      "AcquisitionMatrix": [104, 0, 0, 104],
      "AngioFlag": "N",
      "BitsAllocated": 16,
      "BitsStored": 16,
      "BodyPartExamined": "BRAIN",
      "Columns": 832,
      "EchoNumbers": 1,
      "EchoTime": 37.0,
      "EchoTrainLength": 104,
      "FlipAngle": 52.0,
      "HighBit": 15,
      "ImageOrientationPatient": [0.99941237687072, -0.019594753348, -0.0281237728418, 0.005232975487, 0.89809438627206, -0.4397716331395],
      "ImagePositionPatient": [-837.64048400391, -766.09658533986, 351.35656276788],
      "ImageType": [
        "ORIGINAL",
        "PRIMARY",
        "M",
        "MB",
        "ND",
        "MOSAIC"
],
      "ImagedNucleus": "1H",
      "ImagingFrequency": 123.259457,
      "InPlanePhaseEncodingDirection": "COL",
      "MRAcquisitionType": "2D",
      "MagneticFieldStrength": 3.0,
      "Manufacturer": "SIEMENS",
      "ManufacturerModelName": "Prisma_fit",
      "Modality": "MR",
      "NumberOfAverages": 1.0,
      "NumberOfPhaseEncodingSteps": 104,
      "PercentPhaseFieldOfView": 100.0,
      "PercentSampling": 100.0,
      "PerformedProcedureStepStartTime": "171349.034000",
      "PhotometricInterpretation": "MONOCHROME2",
      "PixelBandwidth": 2290.0,
      "PixelRepresentation": 0,
      "PixelSpacing": [2.0, 2.0],
      "ProtocolName": "func_task-wm_run-2",
      "RepetitionTime": 1490.0,
      "Rows": 832,
      "SAR": 0.03389457716257,
      "SamplesPerPixel": 1,
      "ScanOptions": "FS",
      "ScanningSequence": "EP",
      "SequenceName": "epfid2d1_104",
      "SequenceVariant": [
        "SK",
        "SS"
],
      "SeriesDescription": "func_task-wm_run-2",
      "SeriesNumber": 36,
      "SeriesTime": "181828.226000",
      "SliceLocation": -49.56995304136,
      "SliceThickness": 2.0,
      "SmallestImagePixelValue": 0,
      "SoftwareVersions": "syngo MR E11",
      "SpacingBetweenSlices": 1.9999999655727,
      "SpecificCharacterSet": "ISO_IR 100",
      "StudyID": "1",
      "StudyTime": "171348.975000",
      "TransmitCoilName": "Body",
      "VariableFlipAngleFlag": "N",
      "WindowCenterWidthExplanation": "Algo1",
      "dBdt": 0.0},
    "slices": {}
  },
  "time": {
    "samples": {
      "AcquisitionNumber": [1, 2, 3, 4, 5, 6, 7, 8, 9, 10, 11, 12, 13, 14, 15, 16, 17, 18, 19, 20, 21, 22, 23, 24, 25, 26, 27, 28, 29, 30, 31, 32, 33, 34, 35, 36, 37, 38, 39, 40, 41, 42, 43, 44, 45, 46, 47, 48, 49, 50, 51, 52, 53, 54, 55, 56, 57, 58, 59, 60, 61, 62, 63, 64, 65, 66, 67, 68, 69, 70, 71, 72, 73, 74, 75, 76, 77, 78, 79, 80, 81, 82, 83, 84, 85, 86, 87, 88, 89, 90, 91, 92, 93, 94, 95, 96, 97, 98, 99, 100, 101, 102, 103, 104, 105, 106, 107, 108, 109, 110, 111, 112, 113, 114, 115, 116, 117, 118, 119, 120, 121, 122, 123, 124, 125, 126, 127, 128, 129, 130, 131, 132, 133, 134, 135, 136, 137, 138, 139, 140, 141, 142, 143, 144, 145, 146, 147, 148, 149, 150, 151, 152, 153, 154, 155, 156, 157, 158, 159, 160, 161, 162, 163, 164, 165, 166, 167, 168, 169, 170, 171, 172, 173, 174, 175, 176, 177, 178, 179, 180, 181, 182, 183, 184, 185, 186, 187, 188, 189, 190, 191, 192, 193, 194, 195, 196, 197, 198, 199, 200, 201, 202],
      "AcquisitionTime": ["181652.905000", "181654.395000", "181655.885000", "181657.375000", "181658.865000", "181700.355000", "181701.845000", "181703.335000", "181704.825000", "181706.315000", "181707.805000", "181709.295000", "181710.785000", "181712.275000", "181713.765000", "181715.255000", "181716.745000", "181718.235000", "181719.725000", "181721.215000", "181722.705000", "181724.195000", "181725.685000", "181727.175000", "181728.665000", "181730.155000", "181731.645000", "181733.135000", "181734.625000", "181736.115000", "181737.605000", "181739.095000", "181740.585000", "181742.075000", "181743.565000", "181745.055000", "181746.545000", "181748.035000", "181749.525000", "181751.015000", "181752.505000", "181753.995000", "181755.485000", "181756.975000", "181758.465000", "181759.955000", "181801.445000", "181802.935000", "181804.425000", "181805.915000", "181807.405000", "181808.895000", "181810.385000", "181811.875000", "181813.365000", "181814.855000", "181816.345000", "181817.835000", "181819.325000", "181820.815000", "181822.305000", "181823.795000", "181825.285000", "181826.775000", "181828.265000", "181829.755000", "181831.245000", "181832.735000", "181834.225000", "181835.715000", "181837.205000", "181838.695000", "181840.185000", "181841.675000", "181843.165000", "181844.655000", "181846.145000", "181847.635000", "181849.125000", "181850.615000", "181852.105000", "181853.595000", "181855.085000", "181856.575000", "181858.065000", "181859.555000", "181901.045000", "181902.535000", "181904.025000", "181905.515000", "181907.005000", "181908.495000", "181909.985000", "181911.475000", "181912.965000", "181914.455000", "181915.945000", "181917.435000", "181918.925000", "181920.415000", "181921.905000", "181923.395000", "181924.885000", "181926.375000", "181927.865000", "181929.355000", "181930.845000", "181932.335000", "181933.825000", "181935.315000", "181936.805000", "181938.295000", "181939.785000", "181941.275000", "181942.765000", "181944.255000", "181945.745000", "181947.235000", "181948.725000", "181950.215000", "181951.705000", "181953.195000", "181954.685000", "181956.175000", "181957.665000", "181959.155000", "182000.645000", "182002.135000", "182003.625000", "182005.115000", "182006.605000", "182008.095000", "182009.585000", "182011.075000", "182012.565000", "182014.055000", "182015.545000", "182017.035000", "182018.525000", "182020.015000", "182021.505000", "182022.995000", "182024.485000", "182025.975000", "182027.465000", "182028.955000", "182030.445000", "182031.935000", "182033.425000", "182034.915000", "182036.405000", "182037.895000", "182039.385000", "182040.875000", "182042.365000", "182043.855000", "182045.345000", "182046.835000", "182048.325000", "182049.815000", "182051.305000", "182052.795000", "182054.285000", "182055.775000", "182057.265000", "182058.755000", "182100.245000", "182101.735000", "182103.225000", "182104.715000", "182106.205000", "182107.695000", "182109.185000", "182110.675000", "182112.165000", "182113.655000", "182115.145000", "182116.635000", "182118.125000", "182119.615000", "182121.105000", "182122.595000", "182124.085000", "182125.575000", "182127.065000", "182128.555000", "182130.045000", "182131.535000", "182133.025000", "182134.515000", "182136.005000", "182137.495000", "182138.985000", "182140.475000", "182141.965000", "182143.455000", "182144.945000", "182146.435000", "182147.925000", "182149.415000", "182150.905000", "182152.395000"],
      "ContentTime": ["181828.229000", "181828.233000", "181828.236000", "181828.239000", "181828.242000", "181828.244000", "181828.247000", "181828.250000", "181828.253000", "181828.256000", "181828.259000", "181828.262000", "181828.265000", "181828.267000", "181828.270000", "181828.273000", "181828.276000", "181828.279000", "181828.282000", "181828.284000", "181828.287000", "181828.290000", "181828.293000", "181828.296000", "181828.303000", "181828.306000", "181828.309000", "181828.311000", "181828.314000", "181828.317000", "181828.320000", "181828.323000", "181828.326000", "181828.329000", "181828.331000", "181828.334000", "181828.337000", "181828.340000", "181828.343000", "181848.183000", "181848.186000", "181848.189000", "181848.191000", "181848.194000", "181848.197000", "181848.200000", "181848.203000", "181848.206000", "181848.209000", "181848.214000", "181848.217000", "181848.220000", "181848.223000", "181848.226000", "181848.230000", "181848.233000", "181848.236000", "181848.239000", "181848.242000", "181848.245000", "181908.183000", "181908.186000", "181908.189000", "181908.192000", "181908.195000", "181908.198000", "181908.201000", "181908.204000", "181908.207000", "181908.210000", "181908.213000", "181908.216000", "181908.219000", "181908.222000", "181908.224000", "181908.227000", "181908.230000", "181908.233000", "181908.236000", "181908.239000", "181928.183000", "181928.186000", "181928.189000", "181928.192000", "181928.195000", "181928.197000", "181928.200000", "181928.203000", "181928.206000", "181928.209000", "181928.211000", "181928.214000", "181928.217000", "181928.220000", "181928.223000", "181928.226000", "181928.229000", "181928.232000", "181928.234000", "181928.237000", "182008.183000", "182008.186000", "182008.189000", "182008.192000", "182008.194000", "182008.197000", "182008.200000", "182008.203000", "182008.206000", "182008.209000", "182008.212000", "182008.214000", "182008.217000", "182008.220000", "182008.223000", "182008.226000", "182008.229000", "182008.232000", "182008.234000", "182008.237000", "182008.240000", "182008.254000", "182008.257000", "182008.260000", "182008.263000", "182008.266000", "182008.268000", "182008.271000", "182008.274000", "182008.277000", "182048.183000", "182048.186000", "182048.189000", "182048.205000", "182048.208000", "182048.211000", "182048.214000", "182048.216000", "182048.219000", "182048.222000", "182048.225000", "182048.228000", "182048.231000", "182048.233000", "182048.236000", "182048.239000", "182048.242000", "182048.245000", "182048.248000", "182048.251000", "182048.254000", "182048.256000", "182048.259000", "182048.262000", "182048.265000", "182048.268000", "182048.271000", "182128.183000", "182128.186000", "182128.189000", "182128.192000", "182128.195000", "182128.198000", "182128.200000", "182128.203000", "182128.206000", "182128.209000", "182128.212000", "182128.215000", "182128.218000", "182128.221000", "182128.224000", "182128.227000", "182128.230000", "182128.232000", "182128.235000", "182128.238000", "182128.241000", "182128.244000", "182128.247000", "182128.249000", "182128.252000", "182128.255000", "182128.258000", "182154.479000", "182154.482000", "182154.485000", "182154.488000", "182154.491000", "182154.494000", "182154.497000", "182154.499000", "182154.502000", "182154.505000", "182154.508000", "182154.511000", "182154.514000", "182154.517000", "182154.520000", "182154.522000", "182154.525000", "182154.528000"],
      "InstanceCreationTime": ["181828.229000", "181828.233000", "181828.236000", "181828.239000", "181828.242000", "181828.244000", "181828.247000", "181828.250000", "181828.253000", "181828.256000", "181828.259000", "181828.262000", "181828.265000", "181828.267000", "181828.270000", "181828.273000", "181828.276000", "181828.279000", "181828.282000", "181828.284000", "181828.287000", "181828.290000", "181828.293000", "181828.296000", "181828.303000", "181828.306000", "181828.309000", "181828.311000", "181828.314000", "181828.317000", "181828.320000", "181828.323000", "181828.326000", "181828.329000", "181828.331000", "181828.334000", "181828.337000", "181828.340000", "181828.343000", "181848.183000", "181848.186000", "181848.189000", "181848.191000", "181848.194000", "181848.197000", "181848.200000", "181848.203000", "181848.206000", "181848.209000", "181848.214000", "181848.217000", "181848.220000", "181848.223000", "181848.226000", "181848.230000", "181848.233000", "181848.236000", "181848.239000", "181848.242000", "181848.245000", "181908.183000", "181908.186000", "181908.189000", "181908.192000", "181908.195000", "181908.198000", "181908.201000", "181908.204000", "181908.207000", "181908.210000", "181908.213000", "181908.216000", "181908.219000", "181908.222000", "181908.224000", "181908.227000", "181908.230000", "181908.233000", "181908.236000", "181908.239000", "181928.183000", "181928.186000", "181928.189000", "181928.192000", "181928.195000", "181928.197000", "181928.200000", "181928.203000", "181928.206000", "181928.209000", "181928.211000", "181928.214000", "181928.217000", "181928.220000", "181928.223000", "181928.226000", "181928.229000", "181928.232000", "181928.234000", "181928.237000", "182008.183000", "182008.186000", "182008.189000", "182008.192000", "182008.194000", "182008.197000", "182008.200000", "182008.203000", "182008.206000", "182008.209000", "182008.212000", "182008.214000", "182008.217000", "182008.220000", "182008.223000", "182008.226000", "182008.229000", "182008.232000", "182008.234000", "182008.237000", "182008.240000", "182008.254000", "182008.257000", "182008.260000", "182008.263000", "182008.266000", "182008.268000", "182008.271000", "182008.274000", "182008.277000", "182048.183000", "182048.186000", "182048.189000", "182048.205000", "182048.208000", "182048.211000", "182048.214000", "182048.216000", "182048.219000", "182048.222000", "182048.225000", "182048.228000", "182048.231000", "182048.233000", "182048.236000", "182048.239000", "182048.242000", "182048.245000", "182048.248000", "182048.251000", "182048.254000", "182048.256000", "182048.259000", "182048.262000", "182048.265000", "182048.268000", "182048.271000", "182128.183000", "182128.186000", "182128.189000", "182128.192000", "182128.195000", "182128.198000", "182128.200000", "182128.203000", "182128.206000", "182128.209000", "182128.212000", "182128.215000", "182128.218000", "182128.221000", "182128.224000", "182128.227000", "182128.230000", "182128.232000", "182128.235000", "182128.238000", "182128.241000", "182128.244000", "182128.247000", "182128.249000", "182128.252000", "182128.255000", "182128.258000", "182154.479000", "182154.482000", "182154.485000", "182154.488000", "182154.491000", "182154.494000", "182154.497000", "182154.499000", "182154.502000", "182154.505000", "182154.508000", "182154.511000", "182154.514000", "182154.517000", "182154.520000", "182154.522000", "182154.525000", "182154.528000"],
      "InstanceNumber": [1, 2, 3, 4, 5, 6, 7, 8, 9, 10, 11, 12, 13, 14, 15, 16, 17, 18, 19, 20, 21, 22, 23, 24, 25, 26, 27, 28, 29, 30, 31, 32, 33, 34, 35, 36, 37, 38, 39, 40, 41, 42, 43, 44, 45, 46, 47, 48, 49, 50, 51, 52, 53, 54, 55, 56, 57, 58, 59, 60, 61, 62, 63, 64, 65, 66, 67, 68, 69, 70, 71, 72, 73, 74, 75, 76, 77, 78, 79, 80, 81, 82, 83, 84, 85, 86, 87, 88, 89, 90, 91, 92, 93, 94, 95, 96, 97, 98, 99, 100, 101, 102, 103, 104, 105, 106, 107, 108, 109, 110, 111, 112, 113, 114, 115, 116, 117, 118, 119, 120, 121, 122, 123, 124, 125, 126, 127, 128, 129, 130, 131, 132, 133, 134, 135, 136, 137, 138, 139, 140, 141, 142, 143, 144, 145, 146, 147, 148, 149, 150, 151, 152, 153, 154, 155, 156, 157, 158, 159, 160, 161, 162, 163, 164, 165, 166, 167, 168, 169, 170, 171, 172, 173, 174, 175, 176, 177, 178, 179, 180, 181, 182, 183, 184, 185, 186, 187, 188, 189, 190, 191, 192, 193, 194, 195, 196, 197, 198, 199, 200, 201, 202],
      "LargestImagePixelValue": [56763, 54632, 54267, 53291, 54119, 52455, 53219, 52908, 53236, 52600, 53151, 52935, 52589, 53209, 52401, 53310, 52254, 53191, 52442, 53098, 52706, 53071, 52672, 53230, 52212, 52169, 53046, 52268, 52419, 52377, 52256, 52251, 52794, 52461, 52680, 52219, 53009, 52231, 52496, 52818, 52319, 52333, 52387, 52260, 53099, 53431, 53110, 52706, 52505, 52454, 52911, 52672, 52509, 52787, 52918, 53074, 52452, 52721, 52380, 52774, 52545, 53207, 52379, 52785, 52603, 52573, 52779, 52561, 52851, 52820, 52840, 52654, 52858, 53078, 52775, 53095, 52994, 53117, 52944, 52343, 52897, 52416, 52972, 52523, 53233, 52450, 52931, 52777, 53313, 52716, 53234, 52922, 53105, 52207, 52913, 52596, 53466, 52719, 53585, 52561, 53297, 52713, 52916, 53231, 53864, 53315, 53603, 53001, 52715, 53763, 52776, 53600, 53188, 53559, 53072, 53454, 53601, 53032, 53708, 52625, 53854, 52578, 53334, 53345, 53231, 53536, 52880, 53126, 53280, 53094, 53729, 53392, 53723, 52924, 53444, 53501, 52838, 52749, 53469, 53563, 53811, 53201, 54474, 53701, 53998, 53220, 53298, 53280, 53193, 53842, 53570, 53929, 53760, 53611, 53119, 53623, 53077, 53105, 52774, 53358, 53015, 53480, 53259, 53090, 52085, 53068, 53203, 53039, 53385, 53156, 52566, 53454, 53087, 53241, 53215, 53253, 53416, 53061, 52892, 53213, 53211, 52927, 52721, 53595, 52555, 53113, 52931, 53258, 53733, 53620, 53422, 52394, 53386, 52951, 53566, 52679, 53423, 53256, 53709, 53826, 53272, 53848],
      "WindowCenter": [10407.0, 10338.0, 10305.0, 10287.0, 10289.0, 10280.0, 10285.0, 10275.0, 10280.0, 10276.0, 10289.0, 10291.0, 10293.0, 10307.0, 10304.0, 10307.0, 10297.0, 10308.0, 10305.0, 10309.0, 10311.0, 10319.0, 10320.0, 10311.0, 10297.0, 10299.0, 10295.0, 10275.0, 10270.0, 10260.0, 10260.0, 10271.0, 10294.0, 10294.0, 10294.0, 10286.0, 10283.0, 10278.0, 10279.0, 10285.0, 10280.0, 10283.0, 10276.0, 10269.0, 10273.0, 10280.0, 10285.0, 10275.0, 10261.0, 10259.0, 10268.0, 10254.0, 10252.0, 10257.0, 10265.0, 10280.0, 10278.0, 10278.0, 10279.0, 10286.0, 10285.0, 10285.0, 10286.0, 10298.0, 10299.0, 10289.0, 10278.0, 10271.0, 10285.0, 10280.0, 10287.0, 10280.0, 10279.0, 10276.0, 10286.0, 10295.0, 10299.0, 10299.0, 10288.0, 10279.0, 10276.0, 10278.0, 10287.0, 10295.0, 10293.0, 10281.0, 10271.0, 10261.0, 10266.0, 10268.0, 10270.0, 10276.0, 10271.0, 10271.0, 10286.0, 10297.0, 10302.0, 10289.0, 10276.0, 10263.0, 10272.0, 10281.0, 10293.0, 10300.0, 10300.0, 10286.0, 10282.0, 10274.0, 10281.0, 10294.0, 10293.0, 10307.0, 10304.0, 10294.0, 10285.0, 10284.0, 10295.0, 10293.0, 10300.0, 10289.0, 10283.0, 10264.0, 10272.0, 10271.0, 10279.0, 10289.0, 10291.0, 10301.0, 10308.0, 10296.0, 10292.0, 10291.0, 10297.0, 10280.0, 10276.0, 10271.0, 10259.0, 10265.0, 10279.0, 10298.0, 10302.0, 10289.0, 10311.0, 10267.0, 10258.0, 10249.0, 10249.0, 10258.0, 10276.0, 10305.0, 10312.0, 10312.0, 10299.0, 10276.0, 10259.0, 10262.0, 10264.0, 10268.0, 10261.0, 10256.0, 10241.0, 10239.0, 10239.0, 10253.0, 10266.0, 10282.0, 10291.0, 10284.0, 10281.0, 10273.0, 10283.0, 10297.0, 10285.0, 10282.0, 10267.0, 10257.0, 10264.0, 10268.0, 10258.0, 10266.0, 10271.0, 10257.0, 10248.0, 10253.0, 10256.0, 10269.0, 10273.0, 10298.0, 10328.0, 10317.0, 10303.0, 10286.0, 10280.0, 10265.0, 10270.0, 10274.0, 10275.0, 10267.0, 10273.0, 10280.0, 10277.0, 10291.0],
      "WindowWidth": [22433.0, 22234.0, 22138.0, 22085.0, 22080.0, 22062.0, 22070.0, 22045.0, 22049.0, 22046.0, 22071.0, 22078.0, 22083.0, 22110.0, 22111.0, 22113.0, 22095.0, 22115.0, 22117.0, 22119.0, 22129.0, 22140.0, 22142.0, 22121.0, 22089.0, 22096.0, 22082.0, 22042.0, 22027.0, 22005.0, 22007.0, 22031.0, 22086.0, 22083.0, 22081.0, 22064.0, 22054.0, 22048.0, 22050.0, 22064.0, 22055.0, 22057.0, 22044.0, 22030.0, 22035.0, 22051.0, 22063.0, 22039.0, 22009.0, 22004.0, 22023.0, 21993.0, 21985.0, 21994.0, 22011.0, 22045.0, 22046.0, 22046.0, 22047.0, 22063.0, 22060.0, 22061.0, 22061.0, 22089.0, 22093.0, 22068.0, 22041.0, 22029.0, 22059.0, 22052.0, 22063.0, 22049.0, 22047.0, 22038.0, 22063.0, 22082.0, 22094.0, 22093.0, 22066.0, 22047.0, 22041.0, 22048.0, 22065.0, 22083.0, 22076.0, 22052.0, 22027.0, 22007.0, 22015.0, 22021.0, 22029.0, 22040.0, 22030.0, 22032.0, 22063.0, 22087.0, 22095.0, 22068.0, 22037.0, 22011.0, 22025.0, 22049.0, 22077.0, 22092.0, 22091.0, 22062.0, 22048.0, 22033.0, 22048.0, 22073.0, 22078.0, 22105.0, 22103.0, 22079.0, 22059.0, 22059.0, 22076.0, 22075.0, 22087.0, 22067.0, 22050.0, 22012.0, 22025.0, 22024.0, 22040.0, 22066.0, 22074.0, 22096.0, 22112.0, 22087.0, 22073.0, 22068.0, 22079.0, 22048.0, 22035.0, 22020.0, 21997.0, 22012.0, 22037.0, 22085.0, 22095.0, 22070.0, 22116.0, 22015.0, 21995.0, 21974.0, 21976.0, 21997.0, 22040.0, 22101.0, 22120.0, 22116.0, 22084.0, 22031.0, 21997.0, 21998.0, 22004.0, 22016.0, 22000.0, 21985.0, 21955.0, 21947.0, 21950.0, 21979.0, 22012.0, 22046.0, 22068.0, 22053.0, 22044.0, 22028.0, 22050.0, 22080.0, 22056.0, 22047.0, 22016.0, 21994.0, 22009.0, 22012.0, 21994.0, 22010.0, 22019.0, 21990.0, 21972.0, 21981.0, 21990.0, 22017.0, 22029.0, 22086.0, 22162.0, 22134.0, 22101.0, 22064.0, 22042.0, 22013.0, 22023.0, 22034.0, 22038.0, 22022.0, 22034.0, 22048.0, 22046.0, 22073.0]
    },
    "slices": {}
  }
}