{
  "AcquisitionMatrixPE": 104,
  "AcquisitionNumber": 1,
  "AcquisitionTime": "17:44:9.505000",
  "BandwidthPerPixelPhaseEncode": 17.17,
  "BaseResolution": 104,
  "BodyPartExamined": "BRAIN",
  "CoilString": "HC1-7;NC1_2",
  "ConsistencyInfo": "N4_VE11C_LATEST_20160120",
  "ConversionSoftware": "dcm2niix",
  "ConversionSoftwareVersion": "v1.0.20190720  (JP2:OpenJPEG) GCC7.3.0",
  "DerivedVendorReportedEchoSpacing": 0.000560011,
  "DeviceSerialNumber": "167006",
  "DwellTime": 2.1e-06,
  "EchoTime": 0.037,
  "EchoTrainLength": 104,
  "EffectiveEchoSpacing": 0.000560011,
  "FlipAngle": 52,
  "ImageComments": "Unaliased_MB4_PE3_LB",
  "ImageOrientationPatientDICOM": [0.99888, 0.0386114, 0.0273569, -0.0285991, 0.953173, -0.301069],
  "ImageType": [
    "ORIGINAL",
    "PRIMARY",
    "M",
    "MB",
    "ND",
    "MOSAIC"
],
  "ImagingFrequency": 123.259,
  "InPlanePhaseEncodingDirectionDICOM": "COL",
  "InstitutionAddress": "Chemin_Queen-Mary_4565_Montreal_District_CA_H3W_1W5",
  "InstitutionName": "IUGM",
  "InstitutionalDepartmentName": "Department",
  "MRAcquisitionType": "2D",
  "MagneticFieldStrength": 3,
  "Manufacturer": "Siemens",
  "ManufacturersModelName": "Prisma_fit",
  "Modality": "MR",
  "MultibandAccelerationFactor": 4,
  "PartialFourier": 1,
  "PatientPosition": "HFS",
  "PercentPhaseFOV": 100,
  "PhaseEncodingDirection": "j",
  "PhaseEncodingSteps": 104,
  "PhaseResolution": 1,
  "PixelBandwidth": 2290,
  "ProcedureStepDescription": "hcptrt_generic",
  "ProtocolName": "func_task-social_run-1",
  "PulseSequenceDetails": "%CustomerSeq%_cmrr_mbep2d_bold",
  "ReceiveCoilActiveElements": "HC1-7;NC1,2",
  "ReceiveCoilName": "HeadNeck_64",
  "ReconMatrixPE": 104,
  "RepetitionTime": 1.49,
  "SAR": 0.039239,
  "ScanOptions": "FS",
  "ScanningSequence": "EP",
  "SequenceName": "epfid2d1_104",
  "SequenceVariant": "SK_SS",
  "SeriesDescription": "func_task-social_run-1",
  "SeriesNumber": 13,
  "ShimSetting": [634, -7197, -8828, 703, 108, 4, -22, -20],
  "SliceThickness": 2,
  "SliceTiming": [0, 0.7825, 0.0975, 0.88, 0.195, 0.9775, 0.2925, 1.0775, 0.39, 1.175, 0.4875, 1.2725, 0.5875, 1.37, 0.685, 0, 0.7825, 0.0975, 0.88, 0.195, 0.9775, 0.2925, 1.0775, 0.39, 1.175, 0.4875, 1.2725, 0.5875, 1.37, 0.685, 0, 0.7825, 0.0975, 0.88, 0.195, 0.9775, 0.2925, 1.0775, 0.39, 1.175, 0.4875, 1.2725, 0.5875, 1.37, 0.685, 0, 0.7825, 0.0975, 0.88, 0.195, 0.9775, 0.2925, 1.0775, 0.39, 1.175, 0.4875, 1.2725, 0.5875, 1.37, 0.685],
  "SoftwareVersions": "syngo_MR_E11",
  "SpacingBetweenSlices": 2,
  "StationName": "MRC35049",
  "TaskName": "social",
  "TotalReadoutTime": 0.0576811,
  "TxRefAmp": 252.918,
  "WipMemBlock": "f1f63f6d-5889-4dd7-8e83-288c86ee85dc||Sequence: R016 ve11c/master r/e634e98; Dec 19 2017 11:00:25 by eja",
  "dcmmeta_affine": [
    [-1.997759461402893, -0.05719812959432602, 0.07540112733840942, 107.69708251953125],
    [-0.0772227868437767, 1.9063465595245361, -0.5998995900154114, -57.64419174194336],
    [0.05471377074718475, 0.602138876914978, 1.9064195156097412, -60.288448333740234],
    [0.0, 0.0, 0.0, 1.0]
],
  "dcmmeta_reorient_transform": [
    [0.0, -1.0, 0.0, 103.0],
    [1.0, 0.0, 0.0, 0.0],
    [0.0, 0.0, 1.0, 0.0],
    [0.0, 0.0, 0.0, 1.0]
],
  "dcmmeta_shape": [104, 104, 60, 139],
  "dcmmeta_slice_dim": 2,
  "dcmmeta_version": 0.6,
  "global": {
    "const": {
      "AcquisitionMatrix": [104, 0, 0, 104],
      "AngioFlag": "N",
      "BitsAllocated": 16,
      "BitsStored": 16,
      "BodyPartExamined": "BRAIN",
      "Columns": 832,
      "EchoNumbers": 1,
      "EchoTime": 37.0,
      "EchoTrainLength": 104,
      "FlipAngle": 52.0,
      "HighBit": 15,
      "ImageOrientationPatient": [0.9988797530754, 0.03861139426482, 0.02735688448922, -0.0285990649511, 0.95317327033447, -0.301069444155],
      "ImagePositionPatient": [-808.17001981501, -860.72873712581, 200.99460052696],
      "ImageType": [
        "ORIGINAL",
        "PRIMARY",
        "M",
        "MB",
        "ND",
        "MOSAIC"
],
      "ImagedNucleus": "1H",
      "ImagingFrequency": 123.259143,
      "InPlanePhaseEncodingDirection": "COL",
      "MRAcquisitionType": "2D",
      "MagneticFieldStrength": 3.0,
      "Manufacturer": "SIEMENS",
      "ManufacturerModelName": "Prisma_fit",
      "Modality": "MR",
      "NumberOfAverages": 1.0,
      "NumberOfPhaseEncodingSteps": 104,
      "PercentPhaseFieldOfView": 100.0,
      "PercentSampling": 100.0,
      "PerformedProcedureStepStartTime": "170859.440000",
      "PhotometricInterpretation": "MONOCHROME2",
      "PixelBandwidth": 2290.0,
      "PixelRepresentation": 0,
      "PixelSpacing": [2.0, 2.0],
      "ProtocolName": "func_task-social_run-1",
      "RepetitionTime": 1490.0,
      "Rows": 832,
      "SAR": 0.03923895570588,
      "SamplesPerPixel": 1,
      "ScanOptions": "FS",
      "ScanningSequence": "EP",
      "SequenceName": "epfid2d1_104",
      "SequenceVariant": [
        "SK",
        "SS"
],
      "SeriesDescription": "func_task-social_run-1",
      "SeriesNumber": 13,
      "SeriesTime": "174533.831000",
      "SliceLocation": -36.116931540092,
      "SliceThickness": 2.0,
      "SmallestImagePixelValue": 0,
      "SoftwareVersions": "syngo MR E11",
      "SpacingBetweenSlices": 2.0000000029654,
      "SpecificCharacterSet": "ISO_IR 100",
      "StudyID": "1",
      "StudyTime": "170859.337000",
      "TransmitCoilName": "Body",
      "VariableFlipAngleFlag": "N",
      "WindowCenterWidthExplanation": "Algo1",
      "dBdt": 0.0},
    "slices": {}
  },
  "time": {
    "samples": {
      "AcquisitionNumber": [1, 2, 3, 4, 5, 6, 7, 8, 9, 10, 11, 12, 13, 14, 15, 16, 17, 18, 19, 20, 21, 22, 23, 24, 25, 26, 27, 28, 29, 30, 31, 32, 33, 34, 35, 36, 37, 38, 39, 40, 41, 42, 43, 44, 45, 46, 47, 48, 49, 50, 51, 52, 53, 54, 55, 56, 57, 58, 59, 60, 61, 62, 63, 64, 65, 66, 67, 68, 69, 70, 71, 72, 73, 74, 75, 76, 77, 78, 79, 80, 81, 82, 83, 84, 85, 86, 87, 88, 89, 90, 91, 92, 93, 94, 95, 96, 97, 98, 99, 100, 101, 102, 103, 104, 105, 106, 107, 108, 109, 110, 111, 112, 113, 114, 115, 116, 117, 118, 119, 120, 121, 122, 123, 124, 125, 126, 127, 128, 129, 130, 131, 132, 133, 134, 135, 136, 137, 138, 139],
      "AcquisitionTime": ["174409.505000", "174410.995000", "174412.485000", "174413.975000", "174415.465000", "174416.955000", "174418.445000", "174419.935000", "174421.425000", "174422.915000", "174424.405000", "174425.895000", "174427.385000", "174428.875000", "174430.365000", "174431.855000", "174433.345000", "174434.835000", "174436.325000", "174437.815000", "174439.305000", "174440.795000", "174442.285000", "174443.775000", "174445.265000", "174446.755000", "174448.245000", "174449.735000", "174451.225000", "174452.715000", "174454.205000", "174455.695000", "174457.185000", "174458.675000", "174500.165000", "174501.655000", "174503.145000", "174504.635000", "174506.125000", "174507.615000", "174509.105000", "174510.595000", "174512.085000", "174513.575000", "174515.065000", "174516.555000", "174518.045000", "174519.535000", "174521.025000", "174522.515000", "174524.005000", "174525.495000", "174526.985000", "174528.475000", "174529.965000", "174531.455000", "174532.945000", "174534.435000", "174535.925000", "174537.415000", "174538.905000", "174540.395000", "174541.885000", "174543.375000", "174544.865000", "174546.355000", "174547.845000", "174549.335000", "174550.825000", "174552.315000", "174553.805000", "174555.295000", "174556.785000", "174558.275000", "174559.765000", "174601.255000", "174602.745000", "174604.235000", "174605.725000", "174607.215000", "174608.705000", "174610.195000", "174611.685000", "174613.175000", "174614.665000", "174616.155000", "174617.645000", "174619.135000", "174620.625000", "174622.115000", "174623.605000", "174625.095000", "174626.585000", "174628.075000", "174629.565000", "174631.055000", "174632.545000", "174634.035000", "174635.525000", "174637.015000", "174638.505000", "174639.995000", "174641.485000", "174642.975000", "174644.465000", "174645.955000", "174647.445000", "174648.935000", "174650.425000", "174651.915000", "174653.405000", "174654.895000", "174656.385000", "174657.875000", "174659.365000", "174700.855000", "174702.345000", "174703.835000", "174705.325000", "174706.815000", "174708.305000", "174709.795000", "174711.285000", "174712.775000", "174714.265000", "174715.755000", "174717.245000", "174718.735000", "174720.225000", "174721.715000", "174723.205000", "174724.695000", "174726.185000", "174727.675000", "174729.165000", "174730.655000", "174732.145000", "174733.635000", "174735.125000"],
      "ContentTime": ["174533.833000", "174533.837000", "174533.840000", "174533.843000", "174533.864000", "174533.867000", "174533.870000", "174533.873000", "174533.876000", "174533.879000", "174533.882000", "174533.885000", "174533.888000", "174533.891000", "174533.894000", "174533.896000", "174533.899000", "174533.902000", "174533.905000", "174533.908000", "174533.914000", "174533.917000", "174533.920000", "174533.923000", "174533.926000", "174533.929000", "174533.932000", "174533.935000", "174533.937000", "174533.940000", "174533.943000", "174553.801000", "174553.807000", "174553.810000", "174553.813000", "174553.816000", "174553.819000", "174553.822000", "174553.825000", "174553.828000", "174553.831000", "174553.834000", "174553.836000", "174553.839000", "174553.842000", "174553.845000", "174553.848000", "174553.851000", "174553.854000", "174553.857000", "174553.860000", "174613.801000", "174613.804000", "174613.807000", "174613.810000", "174613.813000", "174613.816000", "174613.819000", "174613.822000", "174613.825000", "174613.827000", "174613.830000", "174613.833000", "174613.836000", "174613.846000", "174613.849000", "174613.852000", "174613.854000", "174613.857000", "174613.860000", "174613.863000", "174633.801000", "174633.804000", "174633.807000", "174633.810000", "174633.813000", "174633.816000", "174633.819000", "174633.821000", "174633.824000", "174633.827000", "174633.830000", "174633.833000", "174633.836000", "174633.839000", "174633.842000", "174633.845000", "174633.848000", "174633.850000", "174633.853000", "174633.856000", "174713.801000", "174713.804000", "174713.807000", "174713.810000", "174713.813000", "174713.816000", "174713.819000", "174713.821000", "174713.824000", "174713.827000", "174713.830000", "174713.833000", "174713.836000", "174713.839000", "174713.842000", "174713.849000", "174713.852000", "174713.855000", "174713.858000", "174713.861000", "174713.864000", "174713.867000", "174713.870000", "174713.873000", "174713.875000", "174713.878000", "174713.881000", "174713.884000", "174713.887000", "174713.890000", "174713.893000", "174713.896000", "174733.802000", "174733.805000", "174733.808000", "174733.811000", "174733.814000", "174733.817000", "174733.820000", "174733.823000", "174733.826000", "174733.829000", "174733.832000", "174733.844000", "174733.847000", "174736.953000", "174736.956000", "174736.959000"],
      "InstanceCreationTime": ["174533.833000", "174533.837000", "174533.840000", "174533.843000", "174533.864000", "174533.867000", "174533.870000", "174533.873000", "174533.876000", "174533.879000", "174533.882000", "174533.885000", "174533.888000", "174533.891000", "174533.894000", "174533.896000", "174533.899000", "174533.902000", "174533.905000", "174533.908000", "174533.914000", "174533.917000", "174533.920000", "174533.923000", "174533.926000", "174533.929000", "174533.932000", "174533.935000", "174533.937000", "174533.940000", "174533.943000", "174553.801000", "174553.807000", "174553.810000", "174553.813000", "174553.816000", "174553.819000", "174553.822000", "174553.825000", "174553.828000", "174553.831000", "174553.834000", "174553.836000", "174553.839000", "174553.842000", "174553.845000", "174553.848000", "174553.851000", "174553.854000", "174553.857000", "174553.860000", "174613.801000", "174613.804000", "174613.807000", "174613.810000", "174613.813000", "174613.816000", "174613.819000", "174613.822000", "174613.825000", "174613.827000", "174613.830000", "174613.833000", "174613.836000", "174613.846000", "174613.849000", "174613.852000", "174613.854000", "174613.857000", "174613.860000", "174613.863000", "174633.801000", "174633.804000", "174633.807000", "174633.810000", "174633.813000", "174633.816000", "174633.819000", "174633.821000", "174633.824000", "174633.827000", "174633.830000", "174633.833000", "174633.836000", "174633.839000", "174633.842000", "174633.845000", "174633.848000", "174633.850000", "174633.853000", "174633.856000", "174713.801000", "174713.804000", "174713.807000", "174713.810000", "174713.813000", "174713.816000", "174713.819000", "174713.821000", "174713.824000", "174713.827000", "174713.830000", "174713.833000", "174713.836000", "174713.839000", "174713.842000", "174713.849000", "174713.852000", "174713.855000", "174713.858000", "174713.861000", "174713.864000", "174713.867000", "174713.870000", "174713.873000", "174713.875000", "174713.878000", "174713.881000", "174713.884000", "174713.887000", "174713.890000", "174713.893000", "174713.896000", "174733.802000", "174733.805000", "174733.808000", "174733.811000", "174733.814000", "174733.817000", "174733.820000", "174733.823000", "174733.826000", "174733.829000", "174733.832000", "174733.844000", "174733.847000", "174736.953000", "174736.956000", "174736.959000"],
      "InstanceNumber": [1, 2, 3, 4, 5, 6, 7, 8, 9, 10, 11, 12, 13, 14, 15, 16, 17, 18, 19, 20, 21, 22, 23, 24, 25, 26, 27, 28, 29, 30, 31, 32, 33, 34, 35, 36, 37, 38, 39, 40, 41, 42, 43, 44, 45, 46, 47, 48, 49, 50, 51, 52, 53, 54, 55, 56, 57, 58, 59, 60, 61, 62, 63, 64, 65, 66, 67, 68, 69, 70, 71, 72, 73, 74, 75, 76, 77, 78, 79, 80, 81, 82, 83, 84, 85, 86, 87, 88, 89, 90, 91, 92, 93, 94, 95, 96, 97, 98, 99, 100, 101, 102, 103, 104, 105, 106, 107, 108, 109, 110, 111, 112, 113, 114, 115, 116, 117, 118, 119, 120, 121, 122, 123, 124, 125, 126, 127, 128, 129, 130, 131, 132, 133, 134, 135, 136, 137, 138, 139],
      "LargestImagePixelValue": [39116, 38945, 42232, 38482, 39983, 37996, 37632, 37625, 37931, 37527, 37917, 37656, 37693, 37774, 37512, 37279, 37690, 37566, 38865, 37880, 38012, 37681, 37533, 37722, 37703, 39418, 37511, 37189, 37810, 37487, 37711, 38007, 37557, 37396, 37842, 37469, 37400, 37748, 37203, 37555, 37406, 37303, 37156, 37564, 37351, 37779, 37669, 37297, 37506, 38723, 37701, 37516, 37106, 37249, 37362, 37666, 37490, 37437, 37483, 37763, 37572, 37332, 37361, 37832, 37846, 37717, 37315, 37386, 37989, 36998, 37459, 37813, 37802, 42771, 37536, 37582, 37629, 38796, 37197, 37498, 37800, 37298, 37085, 37627, 37563, 37642, 37565, 37332, 38130, 37430, 37777, 37580, 37734, 40100, 37350, 37220, 37614, 37492, 37814, 37466, 39481, 37297, 37921, 37081, 37206, 38913, 38051, 37685, 37419, 37555, 37217, 37839, 38172, 37503, 37526, 37277, 37956, 37668, 37825, 37641, 37663, 37240, 37475, 37623, 37804, 37244, 42849, 37172, 37198, 37623, 37850, 37377, 37640, 38768, 45256, 37479, 37386, 37765, 37737],
      "WindowCenter": [9998.0, 9962.0, 9987.0, 9954.0, 9963.0, 9918.0, 9907.0, 9914.0, 9948.0, 9955.0, 9945.0, 9934.0, 9935.0, 9953.0, 9965.0, 9960.0, 9962.0, 9955.0, 9960.0, 9936.0, 9949.0, 9963.0, 9969.0, 9977.0, 9978.0, 9986.0, 9941.0, 9915.0, 9916.0, 9927.0, 9936.0, 9929.0, 9911.0, 9903.0, 9923.0, 9937.0, 9936.0, 9927.0, 9935.0, 9956.0, 9959.0, 9941.0, 9915.0, 9910.0, 9922.0, 9936.0, 9921.0, 9919.0, 9939.0, 9958.0, 9936.0, 9932.0, 9938.0, 9935.0, 9935.0, 9959.0, 9972.0, 9975.0, 9984.0, 9990.0, 9965.0, 9938.0, 9940.0, 9956.0, 9958.0, 9944.0, 9940.0, 9959.0, 9976.0, 9955.0, 9943.0, 9948.0, 9976.0, 10034.0, 9970.0, 9953.0, 9952.0, 9954.0, 9926.0, 9929.0, 9958.0, 9973.0, 9949.0, 9941.0, 9931.0, 9940.0, 9925.0, 9930.0, 9946.0, 9947.0, 9945.0, 9949.0, 9958.0, 9988.0, 9969.0, 9963.0, 9956.0, 9960.0, 9952.0, 9943.0, 9966.0, 9954.0, 9960.0, 9931.0, 9919.0, 9927.0, 9927.0, 9940.0, 9935.0, 9917.0, 9906.0, 9909.0, 9934.0, 9939.0, 9932.0, 9929.0, 9934.0, 9952.0, 9948.0, 9947.0, 9965.0, 9964.0, 9960.0, 9960.0, 9968.0, 9944.0, 9995.0, 9939.0, 9930.0, 9931.0, 9942.0, 9952.0, 9960.0, 9966.0, 10022.0, 9934.0, 9915.0, 9914.0, 9906.0],
      "WindowWidth": [21108.0, 21009.0, 21051.0, 20988.0, 21007.0, 20902.0, 20873.0, 20891.0, 20966.0, 20987.0, 20963.0, 20935.0, 20944.0, 20982.0, 21011.0, 21005.0, 21002.0, 20987.0, 20996.0, 20941.0, 20969.0, 21004.0, 21023.0, 21037.0, 21044.0, 21054.0, 20956.0, 20897.0, 20896.0, 20923.0, 20945.0, 20926.0, 20887.0, 20871.0, 20911.0, 20948.0, 20939.0, 20918.0, 20934.0, 20988.0, 20993.0, 20951.0, 20897.0, 20884.0, 20912.0, 20944.0, 20912.0, 20902.0, 20951.0, 21003.0, 20949.0, 20936.0, 20960.0, 20945.0, 20944.0, 20995.0, 21030.0, 21036.0, 21058.0, 21068.0, 21012.0, 20950.0, 20954.0, 20986.0, 20990.0, 20960.0, 20950.0, 20998.0, 21031.0, 20987.0, 20956.0, 20968.0, 21036.0, 21149.0, 21020.0, 20982.0, 20980.0, 20982.0, 20923.0, 20927.0, 20998.0, 21031.0, 20980.0, 20954.0, 20933.0, 20947.0, 20918.0, 20927.0, 20963.0, 20964.0, 20958.0, 20969.0, 20995.0, 21048.0, 21018.0, 21004.0, 20981.0, 20998.0, 20983.0, 20960.0, 21004.0, 20988.0, 20993.0, 20932.0, 20906.0, 20919.0, 20919.0, 20954.0, 20939.0, 20899.0, 20874.0, 20876.0, 20932.0, 20946.0, 20929.0, 20921.0, 20933.0, 20974.0, 20967.0, 20964.0, 21010.0, 21010.0, 20997.0, 20999.0, 21012.0, 20962.0, 21060.0, 20955.0, 20936.0, 20926.0, 20954.0, 20975.0, 20992.0, 21005.0, 21108.0, 20934.0, 20890.0, 20892.0, 20877.0]
    },
    "slices": {}
  }
}