{
  "AcquisitionMatrixPE": 104,
  "AcquisitionNumber": 1,
  "AcquisitionTime": "17:38:15.555000",
  "BandwidthPerPixelPhaseEncode": 17.17,
  "BaseResolution": 104,
  "BodyPartExamined": "BRAIN",
  "CoilString": "HC1-7;NC1_2",
  "ConsistencyInfo": "N4_VE11C_LATEST_20160120",
  "ConversionSoftware": "dcm2niix",
  "ConversionSoftwareVersion": "v1.0.20190720  (JP2:OpenJPEG) GCC7.3.0",
  "DerivedVendorReportedEchoSpacing": 0.000560011,
  "DeviceSerialNumber": "167006",
  "DwellTime": 2.1e-06,
  "EchoTime": 0.037,
  "EchoTrainLength": 104,
  "EffectiveEchoSpacing": 0.000560011,
  "FlipAngle": 52,
  "ImageComments": "Unaliased_MB4_PE3_LB",
  "ImageOrientationPatientDICOM": [0.99888, 0.0386114, 0.0273569, -0.0285991, 0.953173, -0.301069],
  "ImageType": [
    "ORIGINAL",
    "PRIMARY",
    "M",
    "MB",
    "ND",
    "MOSAIC"
],
  "ImagingFrequency": 123.259,
  "InPlanePhaseEncodingDirectionDICOM": "COL",
  "InstitutionAddress": "Chemin_Queen-Mary_4565_Montreal_District_CA_H3W_1W5",
  "InstitutionName": "IUGM",
  "InstitutionalDepartmentName": "Department",
  "MRAcquisitionType": "2D",
  "MagneticFieldStrength": 3,
  "Manufacturer": "Siemens",
  "ManufacturersModelName": "Prisma_fit",
  "Modality": "MR",
  "MultibandAccelerationFactor": 4,
  "PartialFourier": 1,
  "PatientPosition": "HFS",
  "PercentPhaseFOV": 100,
  "PhaseEncodingDirection": "j",
  "PhaseEncodingSteps": 104,
  "PhaseResolution": 1,
  "PixelBandwidth": 2290,
  "ProcedureStepDescription": "hcptrt_generic",
  "ProtocolName": "func_task-wm_run-1",
  "PulseSequenceDetails": "%CustomerSeq%_cmrr_mbep2d_bold",
  "ReceiveCoilActiveElements": "HC1-7;NC1,2",
  "ReceiveCoilName": "HeadNeck_64",
  "ReconMatrixPE": 104,
  "RepetitionTime": 1.49,
  "SAR": 0.0394054,
  "ScanOptions": "FS",
  "ScanningSequence": "EP",
  "SequenceName": "epfid2d1_104",
  "SequenceVariant": "SK_SS",
  "SeriesDescription": "func_task-wm_run-1",
  "SeriesNumber": 11,
  "ShimSetting": [634, -7197, -8828, 703, 108, 4, -22, -20],
  "SliceThickness": 2,
  "SliceTiming": [0, 0.785, 0.0975, 0.8825, 0.195, 0.98, 0.295, 1.0775, 0.3925, 1.175, 0.49, 1.275, 0.5875, 1.3725, 0.685, 0, 0.785, 0.0975, 0.8825, 0.195, 0.98, 0.295, 1.0775, 0.3925, 1.175, 0.49, 1.275, 0.5875, 1.3725, 0.685, 0, 0.785, 0.0975, 0.8825, 0.195, 0.98, 0.295, 1.0775, 0.3925, 1.175, 0.49, 1.275, 0.5875, 1.3725, 0.685, 0, 0.785, 0.0975, 0.8825, 0.195, 0.98, 0.295, 1.0775, 0.3925, 1.175, 0.49, 1.275, 0.5875, 1.3725, 0.685],
  "SoftwareVersions": "syngo_MR_E11",
  "SpacingBetweenSlices": 2,
  "StationName": "MRC35049",
  "TaskName": "wm",
  "TotalReadoutTime": 0.0576811,
  "TxRefAmp": 252.918,
  "WipMemBlock": "8b7f133d-9993-47f3-aa03-60bdb43de66b||Sequence: R016 ve11c/master r/e634e98; Dec 19 2017 11:00:25 by eja",
  "dcmmeta_affine": [
    [-1.997759461402893, -0.05719812959432602, 0.07540112733840942, 107.69708251953125],
    [-0.0772227868437767, 1.9063465595245361, -0.5998995900154114, -57.64419174194336],
    [0.05471377074718475, 0.602138876914978, 1.9064195156097412, -60.288448333740234],
    [0.0, 0.0, 0.0, 1.0]
],
  "dcmmeta_reorient_transform": [
    [0.0, -1.0, 0.0, 103.0],
    [1.0, 0.0, 0.0, 0.0],
    [0.0, 0.0, 1.0, 0.0],
    [0.0, 0.0, 0.0, 1.0]
],
  "dcmmeta_shape": [104, 104, 60, 202],
  "dcmmeta_slice_dim": 2,
  "dcmmeta_version": 0.6,
  "global": {
    "const": {
      "AcquisitionMatrix": [104, 0, 0, 104],
      "AngioFlag": "N",
      "BitsAllocated": 16,
      "BitsStored": 16,
      "BodyPartExamined": "BRAIN",
      "Columns": 832,
      "EchoNumbers": 1,
      "EchoTime": 37.0,
      "EchoTrainLength": 104,
      "FlipAngle": 52.0,
      "HighBit": 15,
      "ImageOrientationPatient": [0.9988797530754, 0.03861139426482, 0.02735688448922, -0.0285990649511, 0.95317327033447, -0.301069444155],
      "ImagePositionPatient": [-808.17001981501, -860.72873712581, 200.99460052696],
      "ImageType": [
        "ORIGINAL",
        "PRIMARY",
        "M",
        "MB",
        "ND",
        "MOSAIC"
],
      "ImagedNucleus": "1H",
      "ImagingFrequency": 123.25914,
      "InPlanePhaseEncodingDirection": "COL",
      "MRAcquisitionType": "2D",
      "MagneticFieldStrength": 3.0,
      "Manufacturer": "SIEMENS",
      "ManufacturerModelName": "Prisma_fit",
      "Modality": "MR",
      "NumberOfAverages": 1.0,
      "NumberOfPhaseEncodingSteps": 104,
      "PercentPhaseFieldOfView": 100.0,
      "PercentSampling": 100.0,
      "PerformedProcedureStepStartTime": "170859.440000",
      "PhotometricInterpretation": "MONOCHROME2",
      "PixelBandwidth": 2290.0,
      "PixelRepresentation": 0,
      "PixelSpacing": [2.0, 2.0],
      "ProtocolName": "func_task-wm_run-1",
      "RepetitionTime": 1490.0,
      "Rows": 832,
      "SAR": 0.03940541518559,
      "SamplesPerPixel": 1,
      "ScanOptions": "FS",
      "ScanningSequence": "EP",
      "SequenceName": "epfid2d1_104",
      "SequenceVariant": [
        "SK",
        "SS"
],
      "SeriesDescription": "func_task-wm_run-1",
      "SeriesNumber": 11,
      "SeriesTime": "173939.248000",
      "SliceLocation": -36.116931540092,
      "SliceThickness": 2.0,
      "SmallestImagePixelValue": 0,
      "SoftwareVersions": "syngo MR E11",
      "SpacingBetweenSlices": 2.0000000029654,
      "SpecificCharacterSet": "ISO_IR 100",
      "StudyID": "1",
      "StudyTime": "170859.337000",
      "TransmitCoilName": "Body",
      "VariableFlipAngleFlag": "N",
      "WindowCenterWidthExplanation": "Algo1",
      "dBdt": 0.0},
    "slices": {}
  },
  "time": {
    "samples": {
      "AcquisitionNumber": [1, 2, 3, 4, 5, 6, 7, 8, 9, 10, 11, 12, 13, 14, 15, 16, 17, 18, 19, 20, 21, 22, 23, 24, 25, 26, 27, 28, 29, 30, 31, 32, 33, 34, 35, 36, 37, 38, 39, 40, 41, 42, 43, 44, 45, 46, 47, 48, 49, 50, 51, 52, 53, 54, 55, 56, 57, 58, 59, 60, 61, 62, 63, 64, 65, 66, 67, 68, 69, 70, 71, 72, 73, 74, 75, 76, 77, 78, 79, 80, 81, 82, 83, 84, 85, 86, 87, 88, 89, 90, 91, 92, 93, 94, 95, 96, 97, 98, 99, 100, 101, 102, 103, 104, 105, 106, 107, 108, 109, 110, 111, 112, 113, 114, 115, 116, 117, 118, 119, 120, 121, 122, 123, 124, 125, 126, 127, 128, 129, 130, 131, 132, 133, 134, 135, 136, 137, 138, 139, 140, 141, 142, 143, 144, 145, 146, 147, 148, 149, 150, 151, 152, 153, 154, 155, 156, 157, 158, 159, 160, 161, 162, 163, 164, 165, 166, 167, 168, 169, 170, 171, 172, 173, 174, 175, 176, 177, 178, 179, 180, 181, 182, 183, 184, 185, 186, 187, 188, 189, 190, 191, 192, 193, 194, 195, 196, 197, 198, 199, 200, 201, 202],
      "AcquisitionTime": ["173815.555000", "173817.045000", "173818.535000", "173820.025000", "173821.515000", "173823.005000", "173824.495000", "173825.985000", "173827.475000", "173828.965000", "173830.455000", "173831.945000", "173833.435000", "173834.925000", "173836.415000", "173837.905000", "173839.395000", "173840.885000", "173842.375000", "173843.865000", "173845.355000", "173846.845000", "173848.335000", "173849.825000", "173851.315000", "173852.805000", "173854.295000", "173855.785000", "173857.275000", "173858.765000", "173900.255000", "173901.745000", "173903.235000", "173904.725000", "173906.215000", "173907.705000", "173909.195000", "173910.685000", "173912.175000", "173913.665000", "173915.155000", "173916.645000", "173918.135000", "173919.625000", "173921.115000", "173922.605000", "173924.095000", "173925.585000", "173927.075000", "173928.565000", "173930.055000", "173931.545000", "173933.035000", "173934.525000", "173936.015000", "173937.505000", "173938.995000", "173940.485000", "173941.975000", "173943.465000", "173944.955000", "173946.445000", "173947.935000", "173949.425000", "173950.915000", "173952.405000", "173953.895000", "173955.385000", "173956.875000", "173958.365000", "173959.855000", "174001.345000", "174002.835000", "174004.325000", "174005.815000", "174007.305000", "174008.795000", "174010.285000", "174011.775000", "174013.265000", "174014.755000", "174016.245000", "174017.735000", "174019.225000", "174020.715000", "174022.205000", "174023.695000", "174025.185000", "174026.675000", "174028.165000", "174029.655000", "174031.145000", "174032.635000", "174034.125000", "174035.615000", "174037.105000", "174038.595000", "174040.085000", "174041.575000", "174043.065000", "174044.555000", "174046.045000", "174047.535000", "174049.025000", "174050.515000", "174052.005000", "174053.495000", "174054.985000", "174056.475000", "174057.965000", "174059.455000", "174100.945000", "174102.435000", "174103.925000", "174105.415000", "174106.905000", "174108.395000", "174109.885000", "174111.375000", "174112.865000", "174114.355000", "174115.845000", "174117.335000", "174118.825000", "174120.315000", "174121.805000", "174123.295000", "174124.785000", "174126.275000", "174127.765000", "174129.255000", "174130.745000", "174132.235000", "174133.725000", "174135.215000", "174136.705000", "174138.195000", "174139.685000", "174141.175000", "174142.665000", "174144.155000", "174145.645000", "174147.135000", "174148.625000", "174150.115000", "174151.605000", "174153.095000", "174154.585000", "174156.075000", "174157.565000", "174159.055000", "174200.545000", "174202.035000", "174203.525000", "174205.015000", "174206.505000", "174207.995000", "174209.485000", "174210.975000", "174212.465000", "174213.955000", "174215.445000", "174216.935000", "174218.425000", "174219.915000", "174221.405000", "174222.895000", "174224.385000", "174225.875000", "174227.365000", "174228.855000", "174230.345000", "174231.835000", "174233.325000", "174234.815000", "174236.305000", "174237.795000", "174239.285000", "174240.775000", "174242.265000", "174243.755000", "174245.245000", "174246.735000", "174248.225000", "174249.715000", "174251.205000", "174252.695000", "174254.185000", "174255.675000", "174257.165000", "174258.655000", "174300.145000", "174301.635000", "174303.125000", "174304.615000", "174306.105000", "174307.595000", "174309.085000", "174310.575000", "174312.065000", "174313.555000", "174315.045000"],
      "ContentTime": ["173939.251000", "173939.254000", "173939.257000", "173939.260000", "173939.263000", "173939.266000", "173939.269000", "173939.272000", "173939.275000", "173939.278000", "173939.281000", "173939.284000", "173939.287000", "173939.290000", "173939.292000", "173939.295000", "173939.298000", "173939.301000", "173939.304000", "173939.307000", "173939.310000", "173939.313000", "173939.317000", "173939.320000", "173939.323000", "173939.326000", "173939.329000", "173939.332000", "173959.199000", "173959.202000", "173959.205000", "173959.208000", "173959.211000", "173959.214000", "173959.216000", "173959.228000", "173959.231000", "173959.234000", "173959.237000", "173959.240000", "173959.242000", "173959.245000", "173959.248000", "173959.251000", "173959.254000", "173959.257000", "173959.260000", "173959.263000", "174019.199000", "174019.202000", "174019.205000", "174019.208000", "174019.211000", "174019.214000", "174019.217000", "174019.219000", "174019.222000", "174019.225000", "174019.228000", "174019.231000", "174019.234000", "174019.237000", "174019.239000", "174019.242000", "174019.245000", "174019.248000", "174019.251000", "174019.254000", "174039.199000", "174039.202000", "174039.205000", "174039.208000", "174039.211000", "174039.214000", "174039.217000", "174039.219000", "174039.222000", "174039.225000", "174039.228000", "174039.231000", "174039.234000", "174039.237000", "174039.240000", "174039.243000", "174039.246000", "174039.249000", "174039.252000", "174039.254000", "174039.257000", "174059.199000", "174059.202000", "174059.205000", "174059.208000", "174059.211000", "174059.214000", "174059.217000", "174059.219000", "174059.222000", "174059.225000", "174059.228000", "174059.231000", "174059.234000", "174059.237000", "174059.247000", "174059.250000", "174059.253000", "174059.256000", "174059.259000", "174059.262000", "174139.198000", "174139.201000", "174139.204000", "174139.207000", "174139.210000", "174139.213000", "174139.216000", "174139.218000", "174139.221000", "174139.224000", "174139.227000", "174139.230000", "174139.233000", "174139.236000", "174139.239000", "174139.242000", "174139.245000", "174139.248000", "174139.250000", "174139.253000", "174139.256000", "174139.259000", "174139.262000", "174139.265000", "174139.268000", "174139.271000", "174139.274000", "174219.199000", "174219.202000", "174219.205000", "174219.208000", "174219.211000", "174219.214000", "174219.217000", "174219.220000", "174219.222000", "174219.225000", "174219.228000", "174219.231000", "174219.234000", "174219.237000", "174219.240000", "174219.243000", "174219.246000", "174219.249000", "174219.252000", "174219.254000", "174219.257000", "174219.260000", "174219.263000", "174219.266000", "174219.269000", "174219.272000", "174219.275000", "174259.259000", "174259.324000", "174259.327000", "174259.345000", "174259.348000", "174259.351000", "174259.353000", "174259.356000", "174259.359000", "174259.362000", "174259.365000", "174259.368000", "174259.371000", "174259.374000", "174259.377000", "174259.380000", "174259.382000", "174259.385000", "174259.388000", "174259.391000", "174259.394000", "174259.397000", "174259.400000", "174259.403000", "174259.406000", "174259.409000", "174259.412000", "174317.034000", "174317.037000", "174317.040000", "174317.043000", "174317.046000", "174317.049000", "174317.052000", "174317.055000", "174317.058000", "174317.061000", "174317.077000", "174317.080000"],
      "InstanceCreationTime": ["173939.251000", "173939.254000", "173939.257000", "173939.260000", "173939.263000", "173939.266000", "173939.269000", "173939.272000", "173939.275000", "173939.278000", "173939.281000", "173939.284000", "173939.287000", "173939.290000", "173939.292000", "173939.295000", "173939.298000", "173939.301000", "173939.304000", "173939.307000", "173939.310000", "173939.313000", "173939.317000", "173939.320000", "173939.323000", "173939.326000", "173939.329000", "173939.332000", "173959.199000", "173959.202000", "173959.205000", "173959.208000", "173959.211000", "173959.214000", "173959.216000", "173959.228000", "173959.231000", "173959.234000", "173959.237000", "173959.240000", "173959.242000", "173959.245000", "173959.248000", "173959.251000", "173959.254000", "173959.257000", "173959.260000", "173959.263000", "174019.199000", "174019.202000", "174019.205000", "174019.208000", "174019.211000", "174019.214000", "174019.217000", "174019.219000", "174019.222000", "174019.225000", "174019.228000", "174019.231000", "174019.234000", "174019.237000", "174019.239000", "174019.242000", "174019.245000", "174019.248000", "174019.251000", "174019.254000", "174039.199000", "174039.202000", "174039.205000", "174039.208000", "174039.211000", "174039.214000", "174039.217000", "174039.219000", "174039.222000", "174039.225000", "174039.228000", "174039.231000", "174039.234000", "174039.237000", "174039.240000", "174039.243000", "174039.246000", "174039.249000", "174039.252000", "174039.254000", "174039.257000", "174059.199000", "174059.202000", "174059.205000", "174059.208000", "174059.211000", "174059.214000", "174059.217000", "174059.219000", "174059.222000", "174059.225000", "174059.228000", "174059.231000", "174059.234000", "174059.237000", "174059.247000", "174059.250000", "174059.253000", "174059.256000", "174059.259000", "174059.262000", "174139.198000", "174139.201000", "174139.204000", "174139.207000", "174139.210000", "174139.213000", "174139.216000", "174139.218000", "174139.221000", "174139.224000", "174139.227000", "174139.230000", "174139.233000", "174139.236000", "174139.239000", "174139.242000", "174139.245000", "174139.248000", "174139.250000", "174139.253000", "174139.256000", "174139.259000", "174139.262000", "174139.265000", "174139.268000", "174139.271000", "174139.274000", "174219.199000", "174219.202000", "174219.205000", "174219.208000", "174219.211000", "174219.214000", "174219.217000", "174219.220000", "174219.222000", "174219.225000", "174219.228000", "174219.231000", "174219.234000", "174219.237000", "174219.240000", "174219.243000", "174219.246000", "174219.249000", "174219.252000", "174219.254000", "174219.257000", "174219.260000", "174219.263000", "174219.266000", "174219.269000", "174219.272000", "174219.275000", "174259.259000", "174259.324000", "174259.327000", "174259.345000", "174259.348000", "174259.351000", "174259.353000", "174259.356000", "174259.359000", "174259.362000", "174259.365000", "174259.368000", "174259.371000", "174259.374000", "174259.377000", "174259.380000", "174259.382000", "174259.385000", "174259.388000", "174259.391000", "174259.394000", "174259.397000", "174259.400000", "174259.403000", "174259.406000", "174259.409000", "174259.412000", "174317.034000", "174317.037000", "174317.040000", "174317.043000", "174317.046000", "174317.049000", "174317.052000", "174317.055000", "174317.058000", "174317.061000", "174317.077000", "174317.080000"],
      "InstanceNumber": [1, 2, 3, 4, 5, 6, 7, 8, 9, 10, 11, 12, 13, 14, 15, 16, 17, 18, 19, 20, 21, 22, 23, 24, 25, 26, 27, 28, 29, 30, 31, 32, 33, 34, 35, 36, 37, 38, 39, 40, 41, 42, 43, 44, 45, 46, 47, 48, 49, 50, 51, 52, 53, 54, 55, 56, 57, 58, 59, 60, 61, 62, 63, 64, 65, 66, 67, 68, 69, 70, 71, 72, 73, 74, 75, 76, 77, 78, 79, 80, 81, 82, 83, 84, 85, 86, 87, 88, 89, 90, 91, 92, 93, 94, 95, 96, 97, 98, 99, 100, 101, 102, 103, 104, 105, 106, 107, 108, 109, 110, 111, 112, 113, 114, 115, 116, 117, 118, 119, 120, 121, 122, 123, 124, 125, 126, 127, 128, 129, 130, 131, 132, 133, 134, 135, 136, 137, 138, 139, 140, 141, 142, 143, 144, 145, 146, 147, 148, 149, 150, 151, 152, 153, 154, 155, 156, 157, 158, 159, 160, 161, 162, 163, 164, 165, 166, 167, 168, 169, 170, 171, 172, 173, 174, 175, 176, 177, 178, 179, 180, 181, 182, 183, 184, 185, 186, 187, 188, 189, 190, 191, 192, 193, 194, 195, 196, 197, 198, 199, 200, 201, 202],
      "LargestImagePixelValue": [40186, 39731, 38678, 45715, 38548, 38249, 38444, 38265, 38117, 38120, 38206, 39210, 38509, 38283, 38359, 38248, 38118, 38278, 38360, 38274, 38039, 37985, 38339, 37922, 38202, 38785, 38029, 38336, 38208, 38363, 41851, 38337, 38189, 38485, 38658, 38135, 38808, 38103, 38739, 38489, 38519, 38545, 38314, 38162, 40343, 38420, 38801, 38465, 38365, 38088, 38410, 38243, 38430, 38310, 38582, 38121, 38438, 40966, 38455, 38375, 38393, 38265, 38569, 38298, 38357, 38568, 38018, 40129, 38241, 38633, 38874, 38837, 43526, 38455, 38562, 38325, 38705, 37946, 38161, 38249, 38259, 38398, 38350, 38082, 38359, 38640, 38687, 38224, 38106, 38359, 38637, 38278, 38486, 38275, 39840, 38552, 38865, 38437, 38577, 38485, 38205, 38541, 38579, 38329, 38358, 38244, 38095, 38789, 38363, 38573, 38912, 45237, 38457, 38429, 38569, 38683, 38632, 38217, 38890, 38210, 38417, 38950, 38632, 39974, 38363, 38924, 38077, 38416, 41646, 38231, 38627, 38751, 38387, 38854, 38124, 38591, 38358, 38532, 38288, 38967, 38638, 38422, 38250, 38658, 43119, 40108, 38286, 38343, 37976, 37976, 38678, 38543, 38093, 38250, 37849, 38355, 38337, 38083, 37959, 38504, 38066, 38400, 38340, 38219, 38446, 38493, 37885, 38514, 38084, 37981, 38220, 38149, 38021, 37814, 38313, 38084, 38098, 38515, 37981, 38696, 38382, 37959, 38611, 38066, 38504, 38730, 38659, 38222, 38543, 38085, 38363, 38585, 38261, 38686, 45341, 38229, 38410, 45429, 38543, 38227, 38434, 38756],
      "WindowCenter": [10047.0, 9986.0, 9965.0, 10050.0, 9972.0, 9952.0, 9939.0, 9937.0, 9958.0, 9970.0, 9962.0, 9971.0, 9972.0, 9979.0, 9977.0, 9967.0, 9975.0, 9969.0, 9958.0, 9947.0, 9957.0, 9981.0, 9981.0, 9963.0, 9951.0, 9960.0, 9960.0, 9957.0, 9949.0, 9954.0, 10018.0, 9985.0, 9970.0, 9964.0, 9973.0, 9968.0, 9964.0, 9950.0, 9980.0, 9977.0, 9968.0, 9969.0, 9967.0, 9951.0, 9993.0, 9976.0, 9975.0, 9961.0, 9968.0, 9981.0, 9965.0, 9950.0, 9942.0, 9959.0, 9976.0, 9963.0, 9949.0, 9964.0, 9929.0, 9946.0, 9957.0, 9950.0, 9948.0, 9957.0, 9952.0, 9941.0, 9941.0, 9979.0, 9970.0, 9977.0, 9971.0, 9952.0, 9997.0, 9961.0, 9978.0, 9979.0, 9977.0, 9971.0, 9962.0, 9951.0, 9966.0, 9978.0, 9978.0, 9981.0, 9989.0, 9979.0, 9984.0, 9979.0, 9972.0, 9988.0, 9980.0, 9977.0, 9979.0, 9963.0, 9982.0, 9963.0, 9962.0, 9964.0, 9960.0, 9951.0, 9952.0, 9968.0, 9968.0, 9960.0, 9976.0, 9969.0, 9962.0, 9987.0, 9971.0, 9964.0, 9962.0, 10041.0, 9969.0, 9961.0, 9968.0, 9966.0, 9966.0, 9971.0, 9978.0, 9963.0, 9963.0, 9967.0, 9958.0, 9987.0, 9960.0, 9973.0, 9973.0, 9963.0, 9990.0, 9963.0, 9976.0, 9970.0, 9981.0, 9998.0, 9965.0, 9950.0, 9924.0, 9938.0, 9949.0, 9956.0, 9960.0, 9962.0, 9958.0, 9949.0, 10006.0, 9979.0, 9952.0, 9934.0, 9934.0, 9955.0, 9971.0, 9969.0, 9962.0, 9959.0, 9938.0, 9960.0, 9970.0, 9970.0, 9973.0, 9971.0, 9962.0, 9972.0, 9972.0, 9963.0, 9972.0, 9962.0, 9961.0, 9979.0, 9971.0, 9973.0, 9974.0, 9955.0, 9943.0, 9938.0, 9949.0, 9951.0, 9962.0, 9960.0, 9954.0, 9967.0, 9952.0, 9954.0, 9969.0, 9963.0, 9978.0, 9969.0, 9957.0, 9957.0, 9961.0, 9965.0, 9963.0, 9954.0, 9945.0, 9936.0, 9992.0, 9918.0, 9962.0, 10056.0, 9980.0, 9961.0, 9955.0, 9945.0],
      "WindowWidth": [21229.0, 21068.0, 21013.0, 21193.0, 21029.0, 20979.0, 20946.0, 20941.0, 20993.0, 21018.0, 21003.0, 21017.0, 21021.0, 21039.0, 21032.0, 21007.0, 21029.0, 21016.0, 20988.0, 20961.0, 20986.0, 21049.0, 21046.0, 21006.0, 20974.0, 21012.0, 21000.0, 20989.0, 20970.0, 20977.0, 21117.0, 21049.0, 21014.0, 21000.0, 21025.0, 21016.0, 21003.0, 20975.0, 21038.0, 21033.0, 21012.0, 21015.0, 21009.0, 20974.0, 21079.0, 21031.0, 21025.0, 20996.0, 21014.0, 21048.0, 21010.0, 20971.0, 20955.0, 20997.0, 21034.0, 21002.0, 20964.0, 20996.0, 20927.0, 20963.0, 20987.0, 20972.0, 20967.0, 20987.0, 20979.0, 20952.0, 20956.0, 21040.0, 21018.0, 21034.0, 21025.0, 20976.0, 21070.0, 21005.0, 21040.0, 21042.0, 21030.0, 21020.0, 20999.0, 20971.0, 21006.0, 21036.0, 21035.0, 21043.0, 21063.0, 21035.0, 21045.0, 21036.0, 21020.0, 21062.0, 21041.0, 21031.0, 21038.0, 21003.0, 21049.0, 21008.0, 21006.0, 21012.0, 20996.0, 20973.0, 20977.0, 21013.0, 21010.0, 20993.0, 21030.0, 21011.0, 21001.0, 21059.0, 21018.0, 20996.0, 20994.0, 21160.0, 21017.0, 20998.0, 21013.0, 21008.0, 21010.0, 21025.0, 21039.0, 21006.0, 21007.0, 21013.0, 20990.0, 21059.0, 20996.0, 21025.0, 21032.0, 21003.0, 21055.0, 21008.0, 21028.0, 21016.0, 21044.0, 21082.0, 21005.0, 20970.0, 20910.0, 20942.0, 20969.0, 20981.0, 20995.0, 21000.0, 20988.0, 20967.0, 21084.0, 21038.0, 20979.0, 20942.0, 20940.0, 20987.0, 21020.0, 21011.0, 20997.0, 20986.0, 20945.0, 20994.0, 21016.0, 21017.0, 21028.0, 21018.0, 21003.0, 21023.0, 21024.0, 21004.0, 21024.0, 20997.0, 20997.0, 21040.0, 21017.0, 21025.0, 21029.0, 20982.0, 20953.0, 20947.0, 20966.0, 20971.0, 20997.0, 20991.0, 20982.0, 21005.0, 20972.0, 20981.0, 21015.0, 21001.0, 21034.0, 21010.0, 20980.0, 20997.0, 20995.0, 21006.0, 21000.0, 20979.0, 20962.0, 20943.0, 21057.0, 20906.0, 21007.0, 21203.0, 21057.0, 21008.0, 20991.0, 20964.0]
    },
    "slices": {}
  }
}