{
  "AcquisitionMatrixPE": 104,
  "AcquisitionNumber": 1,
  "AcquisitionTime": "17:17:49.880000",
  "BandwidthPerPixelPhaseEncode": 17.17,
  "BaseResolution": 104,
  "BodyPartExamined": "BRAIN",
  "CoilString": "HC1-7;NC1_2",
  "ConsistencyInfo": "N4_VE11C_LATEST_20160120",
  "ConversionSoftware": "dcm2niix",
  "ConversionSoftwareVersion": "v1.0.20190720  (JP2:OpenJPEG) GCC7.3.0",
  "DerivedVendorReportedEchoSpacing": 0.000560011,
  "DeviceSerialNumber": "167006",
  "DwellTime": 2.1e-06,
  "EchoTime": 0.037,
  "EchoTrainLength": 104,
  "EffectiveEchoSpacing": 0.000560011,
  "FlipAngle": 52,
  "ImageComments": "Unaliased_MB4_PE3_LB",
  "ImageOrientationPatientDICOM": [0.99888, 0.0386114, 0.0273569, -0.0285991, 0.953173, -0.301069],
  "ImageType": [
    "ORIGINAL",
    "PRIMARY",
    "M",
    "MB",
    "ND",
    "MOSAIC"
],
  "ImagingFrequency": 123.259,
  "InPlanePhaseEncodingDirectionDICOM": "COL",
  "InstitutionAddress": "Chemin_Queen-Mary_4565_Montreal_District_CA_H3W_1W5",
  "InstitutionName": "IUGM",
  "InstitutionalDepartmentName": "Department",
  "MRAcquisitionType": "2D",
  "MagneticFieldStrength": 3,
  "Manufacturer": "Siemens",
  "ManufacturersModelName": "Prisma_fit",
  "Modality": "MR",
  "MultibandAccelerationFactor": 4,
  "PartialFourier": 1,
  "PatientPosition": "HFS",
  "PercentPhaseFOV": 100,
  "PhaseEncodingDirection": "j",
  "PhaseEncodingSteps": 104,
  "PhaseResolution": 1,
  "PixelBandwidth": 2290,
  "ProcedureStepDescription": "hcptrt_generic",
  "ProtocolName": "func_task-restingstate_run-1",
  "PulseSequenceDetails": "%CustomerSeq%_cmrr_mbep2d_bold",
  "ReceiveCoilActiveElements": "HC1-7;NC1,2",
  "ReceiveCoilName": "HeadNeck_64",
  "ReconMatrixPE": 104,
  "RepetitionTime": 1.49,
  "SAR": 0.0396584,
  "ScanOptions": "FS",
  "ScanningSequence": "EP",
  "SequenceName": "epfid2d1_104",
  "SequenceVariant": "SK_SS",
  "SeriesDescription": "func_task-restingstate_run-1",
  "SeriesNumber": 7,
  "ShimSetting": [634, -7197, -8828, 703, 108, 4, -22, -20],
  "SliceThickness": 2,
  "SliceTiming": [0, 0.7825, 0.0975, 0.88, 0.195, 0.98, 0.2925, 1.0775, 0.39, 1.175, 0.49, 1.2725, 0.5875, 1.37, 0.685, 0, 0.7825, 0.0975, 0.88, 0.195, 0.98, 0.2925, 1.0775, 0.39, 1.175, 0.49, 1.2725, 0.5875, 1.37, 0.685, 0, 0.7825, 0.0975, 0.88, 0.195, 0.98, 0.2925, 1.0775, 0.39, 1.175, 0.49, 1.2725, 0.5875, 1.37, 0.685, 0, 0.7825, 0.0975, 0.88, 0.195, 0.98, 0.2925, 1.0775, 0.39, 1.175, 0.49, 1.2725, 0.5875, 1.37, 0.685],
  "SoftwareVersions": "syngo_MR_E11",
  "SpacingBetweenSlices": 2,
  "StationName": "MRC35049",
  "TaskName": "restingstate",
  "TotalReadoutTime": 0.0576811,
  "TxRefAmp": 252.918,
  "WipMemBlock": "2a4b14cd-c5d2-4b76-aea4-37c0299b86dd||Sequence: R016 ve11c/master r/e634e98; Dec 19 2017 11:00:25 by eja",
  "dcmmeta_affine": [
    [-1.997759461402893, -0.05719812959432602, 0.07540112733840942, 107.69708251953125],
    [-0.0772227868437767, 1.9063465595245361, -0.5998995900154114, -57.64419174194336],
    [0.05471377074718475, 0.602138876914978, 1.9064195156097412, -60.288448333740234],
    [0.0, 0.0, 0.0, 1.0]
],
  "dcmmeta_reorient_transform": [
    [0.0, -1.0, 0.0, 103.0],
    [1.0, 0.0, 0.0, 0.0],
    [0.0, 0.0, 1.0, 0.0],
    [0.0, 0.0, 0.0, 1.0]
],
  "dcmmeta_shape": [104, 104, 60, 600],
  "dcmmeta_slice_dim": 2,
  "dcmmeta_version": 0.6,
  "global": {
    "const": {
      "AcquisitionMatrix": [104, 0, 0, 104],
      "AngioFlag": "N",
      "BitsAllocated": 16,
      "BitsStored": 16,
      "BodyPartExamined": "BRAIN",
      "Columns": 832,
      "EchoNumbers": 1,
      "EchoTime": 37.0,
      "EchoTrainLength": 104,
      "FlipAngle": 52.0,
      "HighBit": 15,
      "ImageOrientationPatient": [0.9988797530754, 0.03861139426482, 0.02735688448922, -0.0285990649511, 0.95317327033447, -0.301069444155],
      "ImagePositionPatient": [-808.17001981501, -860.72873712581, 200.99460052696],
      "ImageType": [
        "ORIGINAL",
        "PRIMARY",
        "M",
        "MB",
        "ND",
        "MOSAIC"
],
      "ImagedNucleus": "1H",
      "ImagingFrequency": 123.259137,
      "InPlanePhaseEncodingDirection": "COL",
      "MRAcquisitionType": "2D",
      "MagneticFieldStrength": 3.0,
      "Manufacturer": "SIEMENS",
      "ManufacturerModelName": "Prisma_fit",
      "Modality": "MR",
      "NumberOfAverages": 1.0,
      "NumberOfPhaseEncodingSteps": 104,
      "PercentPhaseFieldOfView": 100.0,
      "PercentSampling": 100.0,
      "PerformedProcedureStepStartTime": "170859.440000",
      "PhotometricInterpretation": "MONOCHROME2",
      "PixelBandwidth": 2290.0,
      "PixelRepresentation": 0,
      "PixelSpacing": [2.0, 2.0],
      "ProtocolName": "func_task-restingstate_run-1",
      "RepetitionTime": 1490.0,
      "Rows": 832,
      "SAR": 0.03965835965689,
      "SamplesPerPixel": 1,
      "ScanOptions": "FS",
      "ScanningSequence": "EP",
      "SequenceName": "epfid2d1_104",
      "SequenceVariant": [
        "SK",
        "SS"
],
      "SeriesDescription": "func_task-restingstate_run-1",
      "SeriesNumber": 7,
      "SeriesTime": "171913.842000",
      "SliceLocation": -36.116931540092,
      "SliceThickness": 2.0,
      "SmallestImagePixelValue": 0,
      "SoftwareVersions": "syngo MR E11",
      "SpacingBetweenSlices": 2.0000000029654,
      "SpecificCharacterSet": "ISO_IR 100",
      "StudyID": "1",
      "StudyTime": "170859.337000",
      "TransmitCoilName": "Body",
      "VariableFlipAngleFlag": "N",
      "WindowCenterWidthExplanation": "Algo1",
      "dBdt": 0.0},
    "slices": {}
  },
  "time": {
    "samples": {
      "AcquisitionNumber": [1, 2, 3, 4, 5, 6, 7, 8, 9, 10, 11, 12, 13, 14, 15, 16, 17, 18, 19, 20, 21, 22, 23, 24, 25, 26, 27, 28, 29, 30, 31, 32, 33, 34, 35, 36, 37, 38, 39, 40, 41, 42, 43, 44, 45, 46, 47, 48, 49, 50, 51, 52, 53, 54, 55, 56, 57, 58, 59, 60, 61, 62, 63, 64, 65, 66, 67, 68, 69, 70, 71, 72, 73, 74, 75, 76, 77, 78, 79, 80, 81, 82, 83, 84, 85, 86, 87, 88, 89, 90, 91, 92, 93, 94, 95, 96, 97, 98, 99, 100, 101, 102, 103, 104, 105, 106, 107, 108, 109, 110, 111, 112, 113, 114, 115, 116, 117, 118, 119, 120, 121, 122, 123, 124, 125, 126, 127, 128, 129, 130, 131, 132, 133, 134, 135, 136, 137, 138, 139, 140, 141, 142, 143, 144, 145, 146, 147, 148, 149, 150, 151, 152, 153, 154, 155, 156, 157, 158, 159, 160, 161, 162, 163, 164, 165, 166, 167, 168, 169, 170, 171, 172, 173, 174, 175, 176, 177, 178, 179, 180, 181, 182, 183, 184, 185, 186, 187, 188, 189, 190, 191, 192, 193, 194, 195, 196, 197, 198, 199, 200, 201, 202, 203, 204, 205, 206, 207, 208, 209, 210, 211, 212, 213, 214, 215, 216, 217, 218, 219, 220, 221, 222, 223, 224, 225, 226, 227, 228, 229, 230, 231, 232, 233, 234, 235, 236, 237, 238, 239, 240, 241, 242, 243, 244, 245, 246, 247, 248, 249, 250, 251, 252, 253, 254, 255, 256, 257, 258, 259, 260, 261, 262, 263, 264, 265, 266, 267, 268, 269, 270, 271, 272, 273, 274, 275, 276, 277, 278, 279, 280, 281, 282, 283, 284, 285, 286, 287, 288, 289, 290, 291, 292, 293, 294, 295, 296, 297, 298, 299, 300, 301, 302, 303, 304, 305, 306, 307, 308, 309, 310, 311, 312, 313, 314, 315, 316, 317, 318, 319, 320, 321, 322, 323, 324, 325, 326, 327, 328, 329, 330, 331, 332, 333, 334, 335, 336, 337, 338, 339, 340, 341, 342, 343, 344, 345, 346, 347, 348, 349, 350, 351, 352, 353, 354, 355, 356, 357, 358, 359, 360, 361, 362, 363, 364, 365, 366, 367, 368, 369, 370, 371, 372, 373, 374, 375, 376, 377, 378, 379, 380, 381, 382, 383, 384, 385, 386, 387, 388, 389, 390, 391, 392, 393, 394, 395, 396, 397, 398, 399, 400, 401, 402, 403, 404, 405, 406, 407, 408, 409, 410, 411, 412, 413, 414, 415, 416, 417, 418, 419, 420, 421, 422, 423, 424, 425, 426, 427, 428, 429, 430, 431, 432, 433, 434, 435, 436, 437, 438, 439, 440, 441, 442, 443, 444, 445, 446, 447, 448, 449, 450, 451, 452, 453, 454, 455, 456, 457, 458, 459, 460, 461, 462, 463, 464, 465, 466, 467, 468, 469, 470, 471, 472, 473, 474, 475, 476, 477, 478, 479, 480, 481, 482, 483, 484, 485, 486, 487, 488, 489, 490, 491, 492, 493, 494, 495, 496, 497, 498, 499, 500, 501, 502, 503, 504, 505, 506, 507, 508, 509, 510, 511, 512, 513, 514, 515, 516, 517, 518, 519, 520, 521, 522, 523, 524, 525, 526, 527, 528, 529, 530, 531, 532, 533, 534, 535, 536, 537, 538, 539, 540, 541, 542, 543, 544, 545, 546, 547, 548, 549, 550, 551, 552, 553, 554, 555, 556, 557, 558, 559, 560, 561, 562, 563, 564, 565, 566, 567, 568, 569, 570, 571, 572, 573, 574, 575, 576, 577, 578, 579, 580, 581, 582, 583, 584, 585, 586, 587, 588, 589, 590, 591, 592, 593, 594, 595, 596, 597, 598, 599, 600],
      "AcquisitionTime": ["171749.880000", "171751.370000", "171752.860000", "171754.350000", "171755.840000", "171757.330000", "171758.820000", "171800.310000", "171801.800000", "171803.290000", "171804.780000", "171806.270000", "171807.760000", "171809.250000", "171810.740000", "171812.230000", "171813.720000", "171815.210000", "171816.700000", "171818.190000", "171819.680000", "171821.170000", "171822.660000", "171824.150000", "171825.640000", "171827.130000", "171828.620000", "171830.110000", "171831.600000", "171833.090000", "171834.580000", "171836.070000", "171837.560000", "171839.050000", "171840.540000", "171842.030000", "171843.520000", "171845.010000", "171846.500000", "171847.990000", "171849.480000", "171850.970000", "171852.460000", "171853.950000", "171855.440000", "171856.930000", "171858.420000", "171859.910000", "171901.400000", "171902.890000", "171904.380000", "171905.870000", "171907.360000", "171908.850000", "171910.340000", "171911.830000", "171913.320000", "171914.810000", "171916.300000", "171917.790000", "171919.280000", "171920.770000", "171922.260000", "171923.750000", "171925.240000", "171926.730000", "171928.220000", "171929.710000", "171931.200000", "171932.690000", "171934.180000", "171935.670000", "171937.160000", "171938.650000", "171940.140000", "171941.630000", "171943.120000", "171944.610000", "171946.100000", "171947.590000", "171949.080000", "171950.570000", "171952.060000", "171953.550000", "171955.040000", "171956.530000", "171958.020000", "171959.510000", "172001.000000", "172002.490000", "172003.980000", "172005.470000", "172006.960000", "172008.450000", "172009.940000", "172011.430000", "172012.920000", "172014.410000", "172015.900000", "172017.390000", "172018.880000", "172020.370000", "172021.860000", "172023.350000", "172024.840000", "172026.330000", "172027.820000", "172029.310000", "172030.800000", "172032.290000", "172033.780000", "172035.270000", "172036.760000", "172038.250000", "172039.740000", "172041.230000", "172042.720000", "172044.210000", "172045.700000", "172047.190000", "172048.680000", "172050.170000", "172051.660000", "172053.150000", "172054.640000", "172056.130000", "172057.620000", "172059.110000", "172100.600000", "172102.090000", "172103.580000", "172105.070000", "172106.560000", "172108.050000", "172109.540000", "172111.030000", "172112.520000", "172114.010000", "172115.500000", "172116.990000", "172118.480000", "172119.970000", "172121.460000", "172122.950000", "172124.440000", "172125.930000", "172127.420000", "172128.910000", "172130.400000", "172131.890000", "172133.380000", "172134.870000", "172136.360000", "172137.850000", "172139.340000", "172140.830000", "172142.320000", "172143.810000", "172145.300000", "172146.790000", "172148.280000", "172149.770000", "172151.260000", "172152.750000", "172154.240000", "172155.730000", "172157.220000", "172158.710000", "172200.200000", "172201.690000", "172203.180000", "172204.670000", "172206.160000", "172207.650000", "172209.140000", "172210.630000", "172212.120000", "172213.610000", "172215.100000", "172216.590000", "172218.080000", "172219.570000", "172221.060000", "172222.550000", "172224.040000", "172225.530000", "172227.020000", "172228.510000", "172230.000000", "172231.490000", "172232.980000", "172234.470000", "172235.960000", "172237.450000", "172238.940000", "172240.430000", "172241.920000", "172243.410000", "172244.900000", "172246.390000", "172247.880000", "172249.370000", "172250.860000", "172252.350000", "172253.840000", "172255.330000", "172256.820000", "172258.310000", "172259.800000", "172301.290000", "172302.780000", "172304.270000", "172305.760000", "172307.250000", "172308.740000", "172310.230000", "172311.720000", "172313.210000", "172314.700000", "172316.190000", "172317.680000", "172319.170000", "172320.660000", "172322.150000", "172323.640000", "172325.130000", "172326.620000", "172328.110000", "172329.600000", "172331.090000", "172332.580000", "172334.070000", "172335.560000", "172337.050000", "172338.540000", "172340.030000", "172341.520000", "172343.010000", "172344.500000", "172345.990000", "172347.480000", "172348.970000", "172350.460000", "172351.950000", "172353.440000", "172354.930000", "172356.420000", "172357.910000", "172359.400000", "172400.890000", "172402.380000", "172403.870000", "172405.360000", "172406.850000", "172408.340000", "172409.830000", "172411.320000", "172412.810000", "172414.300000", "172415.790000", "172417.280000", "172418.770000", "172420.260000", "172421.750000", "172423.240000", "172424.730000", "172426.220000", "172427.710000", "172429.200000", "172430.690000", "172432.180000", "172433.670000", "172435.160000", "172436.650000", "172438.140000", "172439.630000", "172441.120000", "172442.610000", "172444.100000", "172445.590000", "172447.080000", "172448.570000", "172450.060000", "172451.550000", "172453.040000", "172454.530000", "172456.020000", "172457.510000", "172459.000000", "172500.490000", "172501.980000", "172503.470000", "172504.960000", "172506.450000", "172507.940000", "172509.430000", "172510.920000", "172512.410000", "172513.900000", "172515.390000", "172516.880000", "172518.370000", "172519.860000", "172521.350000", "172522.840000", "172524.330000", "172525.820000", "172527.310000", "172528.800000", "172530.290000", "172531.780000", "172533.270000", "172534.760000", "172536.250000", "172537.740000", "172539.230000", "172540.720000", "172542.210000", "172543.700000", "172545.190000", "172546.680000", "172548.170000", "172549.660000", "172551.150000", "172552.640000", "172554.130000", "172555.620000", "172557.110000", "172558.600000", "172600.090000", "172601.580000", "172603.070000", "172604.560000", "172606.050000", "172607.540000", "172609.030000", "172610.520000", "172612.010000", "172613.500000", "172614.990000", "172616.480000", "172617.970000", "172619.460000", "172620.950000", "172622.440000", "172623.930000", "172625.420000", "172626.910000", "172628.400000", "172629.890000", "172631.380000", "172632.870000", "172634.360000", "172635.850000", "172637.340000", "172638.830000", "172640.320000", "172641.810000", "172643.300000", "172644.790000", "172646.280000", "172647.770000", "172649.260000", "172650.750000", "172652.240000", "172653.730000", "172655.220000", "172656.710000", "172658.200000", "172659.690000", "172701.180000", "172702.670000", "172704.160000", "172705.650000", "172707.140000", "172708.630000", "172710.120000", "172711.610000", "172713.100000", "172714.590000", "172716.080000", "172717.570000", "172719.060000", "172720.550000", "172722.040000", "172723.530000", "172725.020000", "172726.510000", "172728.000000", "172729.490000", "172730.980000", "172732.470000", "172733.960000", "172735.450000", "172736.940000", "172738.430000", "172739.920000", "172741.410000", "172742.900000", "172744.390000", "172745.880000", "172747.370000", "172748.860000", "172750.350000", "172751.840000", "172753.330000", "172754.820000", "172756.310000", "172757.800000", "172759.290000", "172800.780000", "172802.270000", "172803.760000", "172805.250000", "172806.740000", "172808.230000", "172809.720000", "172811.210000", "172812.700000", "172814.190000", "172815.680000", "172817.170000", "172818.660000", "172820.150000", "172821.640000", "172823.130000", "172824.620000", "172826.110000", "172827.600000", "172829.090000", "172830.580000", "172832.070000", "172833.560000", "172835.050000", "172836.540000", "172838.030000", "172839.520000", "172841.010000", "172842.500000", "172843.990000", "172845.480000", "172846.970000", "172848.460000", "172849.950000", "172851.440000", "172852.930000", "172854.420000", "172855.910000", "172857.400000", "172858.890000", "172900.380000", "172901.870000", "172903.360000", "172904.850000", "172906.340000", "172907.830000", "172909.320000", "172910.810000", "172912.300000", "172913.790000", "172915.280000", "172916.770000", "172918.260000", "172919.750000", "172921.240000", "172922.730000", "172924.220000", "172925.710000", "172927.200000", "172928.690000", "172930.180000", "172931.670000", "172933.160000", "172934.650000", "172936.140000", "172937.630000", "172939.120000", "172940.610000", "172942.100000", "172943.590000", "172945.080000", "172946.570000", "172948.060000", "172949.550000", "172951.040000", "172952.530000", "172954.020000", "172955.510000", "172957.000000", "172958.490000", "172959.980000", "173001.470000", "173002.960000", "173004.450000", "173005.940000", "173007.430000", "173008.920000", "173010.410000", "173011.900000", "173013.390000", "173014.880000", "173016.370000", "173017.860000", "173019.350000", "173020.840000", "173022.330000", "173023.820000", "173025.310000", "173026.800000", "173028.290000", "173029.780000", "173031.270000", "173032.760000", "173034.250000", "173035.740000", "173037.230000", "173038.720000", "173040.210000", "173041.700000", "173043.190000", "173044.680000", "173046.170000", "173047.660000", "173049.150000", "173050.640000", "173052.130000", "173053.620000", "173055.110000", "173056.600000", "173058.090000", "173059.580000", "173101.070000", "173102.560000", "173104.050000", "173105.540000", "173107.030000", "173108.520000", "173110.010000", "173111.500000", "173112.990000", "173114.480000", "173115.970000", "173117.460000", "173118.950000", "173120.440000", "173121.930000", "173123.420000", "173124.910000", "173126.400000", "173127.890000", "173129.380000", "173130.870000", "173132.360000", "173133.850000", "173135.340000", "173136.830000", "173138.320000", "173139.810000", "173141.300000", "173142.790000", "173144.280000", "173145.770000", "173147.260000", "173148.750000", "173150.240000", "173151.730000", "173153.220000", "173154.710000", "173156.200000", "173157.690000", "173159.180000", "173200.670000", "173202.160000", "173203.650000", "173205.140000", "173206.630000", "173208.120000", "173209.610000", "173211.100000", "173212.590000", "173214.080000", "173215.570000", "173217.060000", "173218.550000", "173220.040000", "173221.530000", "173223.020000", "173224.510000", "173226.000000", "173227.490000", "173228.980000", "173230.470000", "173231.960000", "173233.450000", "173234.940000", "173236.430000", "173237.920000", "173239.410000", "173240.900000", "173242.390000"],
      "ContentTime": ["171913.845000", "171913.851000", "171913.854000", "171913.857000", "171913.860000", "171913.863000", "171913.866000", "171913.869000", "171913.872000", "171913.875000", "171913.877000", "171913.881000", "171913.884000", "171913.887000", "171913.897000", "171913.900000", "171913.903000", "171913.906000", "171913.909000", "171913.912000", "171913.914000", "171913.917000", "171913.920000", "171913.923000", "171913.926000", "171913.929000", "171913.932000", "171913.935000", "171913.938000", "171933.802000", "171933.805000", "171933.816000", "171933.819000", "171933.822000", "171933.825000", "171933.828000", "171933.831000", "171933.834000", "171933.837000", "171933.840000", "171933.843000", "171933.846000", "171933.849000", "171933.852000", "171933.854000", "171933.857000", "171933.860000", "171933.863000", "171933.866000", "171953.802000", "171953.805000", "171953.825000", "171953.828000", "171953.831000", "171953.834000", "171953.837000", "171953.840000", "171953.842000", "171953.845000", "171953.848000", "171953.851000", "171953.854000", "171953.857000", "171953.860000", "171953.863000", "171953.866000", "171953.869000", "171953.872000", "171953.875000", "172013.802000", "172013.805000", "172013.808000", "172013.811000", "172013.814000", "172013.817000", "172013.820000", "172013.822000", "172013.825000", "172013.828000", "172013.831000", "172013.834000", "172013.837000", "172013.840000", "172013.843000", "172013.846000", "172013.849000", "172013.852000", "172013.855000", "172013.857000", "172013.860000", "172053.801000", "172053.804000", "172053.807000", "172053.810000", "172053.814000", "172053.817000", "172053.820000", "172053.823000", "172053.826000", "172053.829000", "172053.832000", "172053.834000", "172053.837000", "172053.840000", "172053.843000", "172053.846000", "172053.849000", "172053.852000", "172053.855000", "172053.858000", "172053.861000", "172053.864000", "172053.867000", "172053.870000", "172053.873000", "172053.876000", "172053.879000", "172053.882000", "172053.885000", "172053.888000", "172053.891000", "172053.894000", "172133.801000", "172133.804000", "172133.807000", "172133.810000", "172133.813000", "172133.816000", "172133.819000", "172133.822000", "172133.825000", "172133.828000", "172133.831000", "172133.833000", "172133.847000", "172133.850000", "172133.853000", "172133.856000", "172133.859000", "172133.862000", "172133.865000", "172133.868000", "172133.871000", "172133.874000", "172133.877000", "172133.880000", "172133.883000", "172133.885000", "172133.888000", "172213.802000", "172213.805000", "172213.808000", "172213.811000", "172213.814000", "172213.817000", "172213.820000", "172213.823000", "172213.826000", "172213.829000", "172213.832000", "172213.835000", "172213.838000", "172213.841000", "172213.844000", "172213.847000", "172213.850000", "172213.853000", "172213.856000", "172213.859000", "172213.862000", "172213.864000", "172213.867000", "172213.870000", "172213.873000", "172213.876000", "172213.879000", "172253.801000", "172253.804000", "172253.807000", "172253.810000", "172253.813000", "172253.816000", "172253.819000", "172253.822000", "172253.825000", "172253.828000", "172253.831000", "172253.834000", "172253.837000", "172253.840000", "172253.843000", "172253.845000", "172253.857000", "172253.860000", "172253.863000", "172253.866000", "172253.869000", "172253.872000", "172253.875000", "172253.878000", "172253.881000", "172253.889000", "172253.892000", "172333.801000", "172333.804000", "172333.807000", "172333.811000", "172333.814000", "172333.817000", "172333.820000", "172333.823000", "172333.826000", "172333.829000", "172333.832000", "172333.835000", "172333.838000", "172333.841000", "172333.844000", "172333.847000", "172333.850000", "172333.853000", "172333.856000", "172333.859000", "172333.862000", "172333.865000", "172333.868000", "172333.870000", "172333.874000", "172333.877000", "172333.881000", "172413.802000", "172413.805000", "172413.808000", "172413.811000", "172413.814000", "172413.817000", "172413.820000", "172413.823000", "172413.826000", "172413.829000", "172413.832000", "172413.835000", "172413.838000", "172413.841000", "172413.844000", "172413.847000", "172413.850000", "172413.853000", "172413.856000", "172413.859000", "172413.862000", "172413.865000", "172413.868000", "172413.871000", "172413.882000", "172413.885000", "172413.888000", "172453.802000", "172453.805000", "172453.808000", "172453.811000", "172453.814000", "172453.817000", "172453.820000", "172453.823000", "172453.826000", "172453.829000", "172453.832000", "172453.835000", "172453.838000", "172453.847000", "172453.850000", "172453.853000", "172453.856000", "172453.859000", "172453.862000", "172453.865000", "172453.868000", "172453.871000", "172453.874000", "172453.877000", "172453.880000", "172453.883000", "172533.801000", "172533.804000", "172533.807000", "172533.810000", "172533.813000", "172533.816000", "172533.819000", "172533.822000", "172533.825000", "172533.828000", "172533.831000", "172533.834000", "172533.837000", "172533.840000", "172533.843000", "172533.845000", "172533.848000", "172533.852000", "172533.854000", "172533.857000", "172533.860000", "172533.863000", "172533.866000", "172533.869000", "172533.872000", "172533.875000", "172533.878000", "172613.801000", "172613.804000", "172613.807000", "172613.810000", "172613.813000", "172613.816000", "172613.819000", "172613.822000", "172613.825000", "172613.828000", "172613.831000", "172613.834000", "172613.843000", "172613.846000", "172613.849000", "172613.852000", "172613.855000", "172613.857000", "172613.860000", "172613.863000", "172613.866000", "172613.869000", "172613.872000", "172613.875000", "172613.878000", "172613.881000", "172613.884000", "172653.802000", "172653.805000", "172653.808000", "172653.811000", "172653.814000", "172653.817000", "172653.820000", "172653.823000", "172653.826000", "172653.829000", "172653.832000", "172653.835000", "172653.838000", "172653.841000", "172653.844000", "172653.847000", "172653.850000", "172653.853000", "172653.856000", "172653.858000", "172653.861000", "172653.864000", "172653.867000", "172653.870000", "172653.873000", "172653.877000", "172653.880000", "172733.801000", "172733.804000", "172733.807000", "172733.810000", "172733.813000", "172733.816000", "172733.819000", "172733.822000", "172733.825000", "172733.828000", "172733.831000", "172733.834000", "172733.837000", "172733.840000", "172733.860000", "172733.863000", "172733.866000", "172733.869000", "172733.872000", "172733.875000", "172733.878000", "172733.881000", "172733.884000", "172733.886000", "172733.889000", "172733.892000", "172733.895000", "172813.801000", "172813.804000", "172813.807000", "172813.810000", "172813.813000", "172813.816000", "172813.819000", "172813.822000", "172813.825000", "172813.828000", "172813.831000", "172813.834000", "172813.837000", "172813.839000", "172813.843000", "172813.845000", "172813.848000", "172813.851000", "172813.854000", "172813.857000", "172813.860000", "172813.863000", "172813.866000", "172813.869000", "172813.872000", "172813.875000", "172813.878000", "172853.802000", "172853.805000", "172853.808000", "172853.811000", "172853.814000", "172853.817000", "172853.820000", "172853.823000", "172853.826000", "172853.829000", "172853.832000", "172853.835000", "172853.838000", "172853.841000", "172853.844000", "172853.846000", "172853.849000", "172853.852000", "172853.855000", "172853.858000", "172853.861000", "172853.864000", "172853.867000", "172853.870000", "172853.873000", "172853.876000", "172853.879000", "172933.802000", "172933.805000", "172933.808000", "172933.811000", "172933.815000", "172933.818000", "172933.821000", "172933.824000", "172933.827000", "172933.830000", "172933.833000", "172933.836000", "172933.839000", "172933.842000", "172933.845000", "172933.848000", "172933.850000", "172933.853000", "172933.856000", "172933.859000", "172933.862000", "172933.865000", "172933.868000", "172933.871000", "172933.874000", "172933.877000", "173013.801000", "173013.804000", "173013.807000", "173013.810000", "173013.813000", "173013.816000", "173013.819000", "173013.822000", "173013.825000", "173013.828000", "173013.831000", "173013.834000", "173013.837000", "173013.840000", "173013.843000", "173013.846000", "173013.849000", "173013.852000", "173013.855000", "173013.857000", "173013.860000", "173013.863000", "173013.866000", "173013.869000", "173013.872000", "173013.875000", "173013.878000", "173053.801000", "173053.804000", "173053.807000", "173053.810000", "173053.813000", "173053.816000", "173053.819000", "173053.822000", "173053.825000", "173053.828000", "173053.831000", "173053.834000", "173053.837000", "173053.840000", "173053.843000", "173053.846000", "173053.849000", "173053.852000", "173053.855000", "173053.858000", "173053.861000", "173053.864000", "173053.867000", "173053.870000", "173053.873000", "173053.876000", "173053.879000", "173133.802000", "173133.805000", "173133.808000", "173133.811000", "173133.814000", "173133.817000", "173133.820000", "173133.823000", "173133.826000", "173133.829000", "173133.832000", "173133.835000", "173133.838000", "173133.841000", "173133.844000", "173133.847000", "173133.850000", "173133.853000", "173133.855000", "173133.858000", "173133.861000", "173133.864000", "173133.867000", "173133.870000", "173133.884000", "173133.888000", "173133.891000", "173213.801000", "173213.804000", "173213.807000", "173213.810000", "173213.813000", "173213.816000", "173213.819000", "173213.822000", "173213.825000", "173213.828000", "173213.831000", "173213.834000", "173213.837000", "173213.840000", "173213.843000", "173213.846000", "173213.849000", "173213.851000", "173213.854000", "173213.857000", "173213.860000", "173213.863000", "173213.866000", "173213.869000", "173213.872000", "173213.875000", "173213.878000", "173244.712000", "173244.717000", "173244.720000", "173244.724000", "173244.727000", "173244.730000", "173244.733000", "173244.736000", "173244.739000", "173244.742000", "173244.746000", "173244.749000", "173244.754000", "173244.758000", "173244.761000", "173244.765000", "173244.768000", "173244.771000", "173244.775000", "173244.778000", "173244.781000"],
