{
  "AcquisitionMatrixPE": 104,
  "AcquisitionNumber": 1,
  "AcquisitionTime": "18:00:46.382500",
  "BandwidthPerPixelPhaseEncode": 17.17,
  "BaseResolution": 104,
  "BodyPartExamined": "BRAIN",
  "CoilString": "HC1-7;NC1_2",
  "ConsistencyInfo": "N4_VE11C_LATEST_20160120",
  "ConversionSoftware": "dcm2niix",
  "ConversionSoftwareVersion": "v1.0.20190720  (JP2:OpenJPEG) GCC7.3.0",
  "DerivedVendorReportedEchoSpacing": 0.000560011,
  "DeviceSerialNumber": "167006",
  "DwellTime": 2.1e-06,
  "EchoTime": 0.037,
  "EchoTrainLength": 104,
  "EffectiveEchoSpacing": 0.000560011,
  "FlipAngle": 52,
  "ImageComments": "Unaliased_MB4_PE3_LB",
  "ImageOrientationPatientDICOM": [0.99888, 0.0386114, 0.0273569, -0.0285991, 0.953173, -0.301069],
  "ImageType": [
    "ORIGINAL",
    "PRIMARY",
    "M",
    "MB",
    "ND",
    "MOSAIC"
],
  "ImagingFrequency": 123.259,
  "InPlanePhaseEncodingDirectionDICOM": "COL",
  "InstitutionAddress": "Chemin_Queen-Mary_4565_Montreal_District_CA_H3W_1W5",
  "InstitutionName": "IUGM",
  "InstitutionalDepartmentName": "Department",
  "MRAcquisitionType": "2D",
  "MagneticFieldStrength": 3,
  "Manufacturer": "Siemens",
  "ManufacturersModelName": "Prisma_fit",
  "Modality": "MR",
  "MultibandAccelerationFactor": 4,
  "PartialFourier": 1,
  "PatientPosition": "HFS",
  "PercentPhaseFOV": 100,
  "PhaseEncodingDirection": "j",
  "PhaseEncodingSteps": 104,
  "PhaseResolution": 1,
  "PixelBandwidth": 2290,
  "ProcedureStepDescription": "hcptrt_generic",
  "ProtocolName": "func_task-language_run-1",
  "PulseSequenceDetails": "%CustomerSeq%_cmrr_mbep2d_bold",
  "ReceiveCoilActiveElements": "HC1-7;NC1,2",
  "ReceiveCoilName": "HeadNeck_64",
  "ReconMatrixPE": 104,
  "RepetitionTime": 1.49,
  "SAR": 0.0393055,
  "ScanOptions": "FS",
  "ScanningSequence": "EP",
  "SequenceName": "epfid2d1_104",
  "SequenceVariant": "SK_SS",
  "SeriesDescription": "func_task-language_run-1",
  "SeriesNumber": 21,
  "ShimSetting": [634, -7197, -8828, 703, 108, 4, -22, -20],
  "SliceThickness": 2,
  "SliceTiming": [0, 0.785, 0.1, 0.8825, 0.1975, 0.98, 0.295, 1.08, 0.3925, 1.1775, 0.49, 1.275, 0.59, 1.3725, 0.6875, 0, 0.785, 0.1, 0.8825, 0.1975, 0.98, 0.295, 1.08, 0.3925, 1.1775, 0.49, 1.275, 0.59, 1.3725, 0.6875, 0, 0.785, 0.1, 0.8825, 0.1975, 0.98, 0.295, 1.08, 0.3925, 1.1775, 0.49, 1.275, 0.59, 1.3725, 0.6875, 0, 0.785, 0.1, 0.8825, 0.1975, 0.98, 0.295, 1.08, 0.3925, 1.1775, 0.49, 1.275, 0.59, 1.3725, 0.6875],
  "SoftwareVersions": "syngo_MR_E11",
  "SpacingBetweenSlices": 2,
  "StationName": "MRC35049",
  "TaskName": "language",
  "TotalReadoutTime": 0.0576811,
  "TxRefAmp": 252.918,
  "WipMemBlock": "c1bae04f-41a4-4744-ba25-cfe4e5f7ebe9||Sequence: R016 ve11c/master r/e634e98; Dec 19 2017 11:00:25 by eja",
  "dcmmeta_affine": [
    [-1.997759461402893, -0.05719812959432602, 0.07540112733840942, 107.69708251953125],
    [-0.0772227868437767, 1.9063465595245361, -0.5998995900154114, -57.64419174194336],
    [0.05471377074718475, 0.602138876914978, 1.9064195156097412, -60.288448333740234],
    [0.0, 0.0, 0.0, 1.0]
],
  "dcmmeta_reorient_transform": [
    [0.0, -1.0, 0.0, 103.0],
    [1.0, 0.0, 0.0, 0.0],
    [0.0, 0.0, 1.0, 0.0],
    [0.0, 0.0, 0.0, 1.0]
],
  "dcmmeta_shape": [104, 104, 60, 159],
  "dcmmeta_slice_dim": 2,
  "dcmmeta_version": 0.6,
  "global": {
    "const": {
      "AcquisitionMatrix": [104, 0, 0, 104],
      "AngioFlag": "N",
      "BitsAllocated": 16,
      "BitsStored": 16,
      "BodyPartExamined": "BRAIN",
      "Columns": 832,
      "EchoNumbers": 1,
      "EchoTime": 37.0,
      "EchoTrainLength": 104,
      "FlipAngle": 52.0,
      "HighBit": 15,
      "ImageOrientationPatient": [0.9988797530754, 0.03861139426482, 0.02735688448922, -0.0285990649511, 0.95317327033447, -0.301069444155],
      "ImagePositionPatient": [-808.17001981501, -860.72873712581, 200.99460052696],
      "ImageType": [
        "ORIGINAL",
        "PRIMARY",
        "M",
        "MB",
        "ND",
        "MOSAIC"
],
      "ImagedNucleus": "1H",
      "ImagingFrequency": 123.259146,
      "InPlanePhaseEncodingDirection": "COL",
      "MRAcquisitionType": "2D",
      "MagneticFieldStrength": 3.0,
      "Manufacturer": "SIEMENS",
      "ManufacturerModelName": "Prisma_fit",
      "Modality": "MR",
      "NumberOfAverages": 1.0,
      "NumberOfPhaseEncodingSteps": 104,
      "PercentPhaseFieldOfView": 100.0,
      "PercentSampling": 100.0,
      "PerformedProcedureStepStartTime": "170859.440000",
      "PhotometricInterpretation": "MONOCHROME2",
      "PixelBandwidth": 2290.0,
      "PixelRepresentation": 0,
      "PixelSpacing": [2.0, 2.0],
      "ProtocolName": "func_task-language_run-1",
      "RepetitionTime": 1490.0,
      "Rows": 832,
      "SAR": 0.03930548695843,
      "SamplesPerPixel": 1,
      "ScanOptions": "FS",
      "ScanningSequence": "EP",
      "SequenceName": "epfid2d1_104",
      "SequenceVariant": [
        "SK",
        "SS"
],
      "SeriesDescription": "func_task-language_run-1",
      "SeriesNumber": 21,
      "SeriesTime": "180201.530000",
      "SliceLocation": -36.116931540092,
      "SliceThickness": 2.0,
      "SmallestImagePixelValue": 0,
      "SoftwareVersions": "syngo MR E11",
      "SpacingBetweenSlices": 2.0000000029654,
      "SpecificCharacterSet": "ISO_IR 100",
      "StudyID": "1",
      "StudyTime": "170859.337000",
      "TransmitCoilName": "Body",
      "VariableFlipAngleFlag": "N",
      "dBdt": 0.0},
    "slices": {}
  },
  "time": {
    "samples": {
      "AcquisitionNumber": [1, 2, 3, 4, 5, 6, 7, 8, 9, 10, 11, 12, 13, 14, 15, 16, 17, 18, 19, 20, 21, 22, 23, 24, 25, 26, 27, 28, 29, 30, 31, 32, 33, 34, 35, 36, 37, 38, 39, 40, 41, 42, 43, 44, 45, 46, 47, 48, 49, 50, 51, 52, 53, 54, 55, 56, 57, 58, 59, 60, 61, 62, 63, 64, 65, 66, 67, 68, 69, 70, 71, 72, 73, 74, 75, 76, 77, 78, 79, 80, 81, 82, 83, 84, 85, 86, 87, 88, 89, 90, 91, 92, 93, 94, 95, 96, 97, 98, 99, 100, 101, 102, 103, 104, 105, 106, 107, 108, 109, 110, 111, 112, 113, 114, 115, 116, 117, 118, 119, 120, 121, 122, 123, 124, 125, 126, 127, 128, 129, 130, 131, 132, 133, 134, 135, 136, 137, 138, 139, 140, 141, 142, 143, 144, 145, 146, 147, 148, 149, 150, 151, 152, 153, 154, 155, 156, 157, 158, 159],
      "AcquisitionTime": ["180046.382500", "180047.872500", "180049.362500", "180050.852500", "180052.342500", "180053.832500", "180055.322500", "180056.812500", "180058.302500", "180059.792500", "180101.282500", "180102.772500", "180104.262500", "180105.752500", "180107.242500", "180108.732500", "180110.222500", "180111.712500", "180113.202500", "180114.692500", "180116.182500", "180117.672500", "180119.162500", "180120.652500", "180122.142500", "180123.632500", "180125.122500", "180126.612500", "180128.102500", "180129.592500", "180131.082500", "180132.572500", "180134.062500", "180135.552500", "180137.042500", "180138.532500", "180140.022500", "180141.512500", "180143.002500", "180144.492500", "180145.982500", "180147.472500", "180148.962500", "180150.452500", "180151.942500", "180153.432500", "180154.922500", "180156.412500", "180157.902500", "180159.392500", "180200.882500", "180202.372500", "180203.862500", "180205.352500", "180206.842500", "180208.332500", "180209.822500", "180211.312500", "180212.802500", "180214.292500", "180215.782500", "180217.272500", "180218.762500", "180220.252500", "180221.742500", "180223.232500", "180224.722500", "180226.212500", "180227.702500", "180229.192500", "180230.682500", "180232.172500", "180233.662500", "180235.152500", "180236.642500", "180238.132500", "180239.622500", "180241.112500", "180242.602500", "180244.092500", "180245.582500", "180247.072500", "180248.562500", "180250.052500", "180251.542500", "180253.032500", "180254.522500", "180256.012500", "180257.502500", "180258.992500", "180300.482500", "180301.972500", "180303.462500", "180304.952500", "180306.442500", "180307.932500", "180309.422500", "180310.912500", "180312.402500", "180313.892500", "180315.382500", "180316.872500", "180318.362500", "180319.852500", "180321.342500", "180322.832500", "180324.322500", "180325.812500", "180327.302500", "180328.792500", "180330.282500", "180331.772500", "180333.262500", "180334.752500", "180336.242500", "180337.732500", "180339.222500", "180340.712500", "180342.202500", "180343.692500", "180345.182500", "180346.672500", "180348.162500", "180349.652500", "180351.142500", "180352.632500", "180354.122500", "180355.612500", "180357.102500", "180358.592500", "180400.082500", "180401.572500", "180403.062500", "180404.552500", "180406.042500", "180407.532500", "180409.022500", "180410.512500", "180412.002500", "180413.492500", "180414.982500", "180416.472500", "180417.962500", "180419.452500", "180420.942500", "180422.432500", "180423.922500", "180425.412500", "180426.902500", "180428.392500", "180429.882500", "180431.372500", "180432.862500", "180434.352500", "180435.842500", "180437.332500", "180438.822500", "180440.312500", "180441.802500"],
      "ContentTime": ["180201.532000", "180201.536000", "180201.539000", "180201.542000", "180201.545000", "180201.547000", "180201.550000", "180201.553000", "180201.561000", "180201.564000", "180201.567000", "180201.570000", "180201.573000", "180201.576000", "180201.579000", "180201.581000", "180201.584000", "180201.587000", "180201.590000", "180201.593000", "180201.596000", "180221.498000", "180221.501000", "180221.504000", "180221.507000", "180221.510000", "180221.513000", "180221.516000", "180221.518000", "180221.521000", "180221.524000", "180221.527000", "180221.530000", "180221.533000", "180221.536000", "180221.539000", "180221.542000", "180221.545000", "180221.548000", "180221.551000", "180221.554000", "180241.499000", "180241.502000", "180241.505000", "180241.508000", "180241.511000", "180241.513000", "180241.516000", "180241.519000", "180241.522000", "180241.525000", "180241.535000", "180241.538000", "180241.541000", "180241.544000", "180241.547000", "180241.550000", "180241.552000", "180241.555000", "180241.558000", "180241.561000", "180301.499000", "180301.502000", "180301.505000", "180301.508000", "180301.511000", "180301.514000", "180301.517000", "180301.520000", "180301.523000", "180301.526000", "180301.528000", "180301.531000", "180301.534000", "180301.537000", "180301.540000", "180301.543000", "180301.546000", "180301.549000", "180301.552000", "180301.555000", "180321.499000", "180321.502000", "180321.505000", "180321.508000", "180321.511000", "180321.514000", "180321.517000", "180321.519000", "180321.522000", "180321.525000", "180321.528000", "180321.531000", "180321.534000", "180321.537000", "180321.540000", "180321.543000", "180321.546000", "180321.549000", "180321.552000", "180321.555000", "180321.557000", "180401.498000", "180401.501000", "180401.504000", "180401.507000", "180401.510000", "180401.513000", "180401.516000", "180401.519000", "180401.522000", "180401.525000", "180401.528000", "180401.530000", "180401.533000", "180401.536000", "180401.539000", "180401.542000", "180401.545000", "180401.548000", "180401.551000", "180401.554000", "180401.557000", "180401.560000", "180401.563000", "180401.566000", "180401.569000", "180401.572000", "180401.574000", "180401.577000", "180441.498000", "180441.501000", "180441.504000", "180441.507000", "180441.510000", "180441.513000", "180441.516000", "180441.519000", "180441.522000", "180441.525000", "180441.528000", "180441.530000", "180441.533000", "180441.536000", "180441.539000", "180441.542000", "180441.545000", "180441.548000", "180441.551000", "180441.554000", "180441.557000", "180441.560000", "180441.563000", "180441.566000", "180441.569000", "180441.572000", "180441.575000", "180444.445000", "180444.449000"],
      "InstanceCreationTime": ["180201.532000", "180201.536000", "180201.539000", "180201.542000", "180201.545000", "180201.547000", "180201.550000", "180201.553000", "180201.561000", "180201.564000", "180201.567000", "180201.570000", "180201.573000", "180201.576000", "180201.579000", "180201.581000", "180201.584000", "180201.587000", "180201.590000", "180201.593000", "180201.596000", "180221.498000", "180221.501000", "180221.504000", "180221.507000", "180221.510000", "180221.513000", "180221.516000", "180221.518000", "180221.521000", "180221.524000", "180221.527000", "180221.530000", "180221.533000", "180221.536000", "180221.539000", "180221.542000", "180221.545000", "180221.548000", "180221.551000", "180221.554000", "180241.499000", "180241.502000", "180241.505000", "180241.508000", "180241.511000", "180241.513000", "180241.516000", "180241.519000", "180241.522000", "180241.525000", "180241.535000", "180241.538000", "180241.541000", "180241.544000", "180241.547000", "180241.550000", "180241.552000", "180241.555000", "180241.558000", "180241.561000", "180301.499000", "180301.502000", "180301.505000", "180301.508000", "180301.511000", "180301.514000", "180301.517000", "180301.520000", "180301.523000", "180301.526000", "180301.528000", "180301.531000", "180301.534000", "180301.537000", "180301.540000", "180301.543000", "180301.546000", "180301.549000", "180301.552000", "180301.555000", "180321.499000", "180321.502000", "180321.505000", "180321.508000", "180321.511000", "180321.514000", "180321.517000", "180321.519000", "180321.522000", "180321.525000", "180321.528000", "180321.531000", "180321.534000", "180321.537000", "180321.540000", "180321.543000", "180321.546000", "180321.549000", "180321.552000", "180321.555000", "180321.557000", "180401.498000", "180401.501000", "180401.504000", "180401.507000", "180401.510000", "180401.513000", "180401.516000", "180401.519000", "180401.522000", "180401.525000", "180401.528000", "180401.530000", "180401.533000", "180401.536000", "180401.539000", "180401.542000", "180401.545000", "180401.548000", "180401.551000", "180401.554000", "180401.557000", "180401.560000", "180401.563000", "180401.566000", "180401.569000", "180401.572000", "180401.574000", "180401.577000", "180441.498000", "180441.501000", "180441.504000", "180441.507000", "180441.510000", "180441.513000", "180441.516000", "180441.519000", "180441.522000", "180441.525000", "180441.528000", "180441.530000", "180441.533000", "180441.536000", "180441.539000", "180441.542000", "180441.545000", "180441.548000", "180441.551000", "180441.554000", "180441.557000", "180441.560000", "180441.563000", "180441.566000", "180441.569000", "180441.572000", "180441.575000", "180444.445000", "180444.449000"],
      "InstanceNumber": [1, 2, 3, 4, 5, 6, 7, 8, 9, 10, 11, 12, 13, 14, 15, 16, 17, 18, 19, 20, 21, 22, 23, 24, 25, 26, 27, 28, 29, 30, 31, 32, 33, 34, 35, 36, 37, 38, 39, 40, 41, 42, 43, 44, 45, 46, 47, 48, 49, 50, 51, 52, 53, 54, 55, 56, 57, 58, 59, 60, 61, 62, 63, 64, 65, 66, 67, 68, 69, 70, 71, 72, 73, 74, 75, 76, 77, 78, 79, 80, 81, 82, 83, 84, 85, 86, 87, 88, 89, 90, 91, 92, 93, 94, 95, 96, 97, 98, 99, 100, 101, 102, 103, 104, 105, 106, 107, 108, 109, 110, 111, 112, 113, 114, 115, 116, 117, 118, 119, 120, 121, 122, 123, 124, 125, 126, 127, 128, 129, 130, 131, 132, 133, 134, 135, 136, 137, 138, 139, 140, 141, 142, 143, 144, 145, 146, 147, 148, 149, 150, 151, 152, 153, 154, 155, 156, 157, 158, 159],
      "LargestImagePixelValue": [43475, 42681, 41755, 41287, 40961, 40000, 41352, 41620, 41285, 40550, 41281, 42174, 41474, 41487, 41197, 41459, 42238, 42103, 41276, 41075, 40587, 40874, 41756, 42136, 42471, 42175, 42281, 41478, 42093, 41993, 41409, 41473, 41636, 41964, 42153, 41475, 42012, 42121, 42145, 41853, 41990, 41823, 42145, 41912, 41468, 41784, 41764, 42639, 41861, 41508, 41730, 41421, 51887, 40611, 41920, 42385, 41412, 40448, 40454, 41075, 42419, 42451, 41803, 41573, 41154, 42050, 42720, 42254, 42181, 42066, 42785, 42394, 42394, 41848, 42643, 41995, 42295, 42779, 42736, 42893, 43017, 43089, 42739, 42357, 43028, 43543, 43185, 42351, 42582, 43029, 42861, 42858, 42474, 43032, 42311, 42470, 42932, 43752, 43097, 42703, 41661, 42133, 42911, 43520, 43529, 43308, 42717, 41867, 42567, 43086, 42557, 42737, 42097, 42942, 42612, 42265, 42968, 42134, 41744, 43237, 42547, 42289, 42467, 42894, 43051, 42785, 43086, 43209, 42717, 42784, 42094, 42289, 42161, 42426, 41843, 42661, 42896, 42880, 42365, 42629, 42557, 42163, 42805, 42669, 42332, 42492, 42017, 42952, 43064, 42401, 43187, 42989, 42299, 42585, 42448, 42910, 42317, 42076, 42754],
      "WindowCenter": [10040.0, 10002.0, 10020.0, 10020.0, 10007.0, 4750.0, 9977.0, 9992.0, 10004.0, 9994.0, 9995.0, 10009.0, 10013.0, 10012.0, 9997.0, 9997.0, 10019.0, 10039.0, 10025.0, 10001.0, 10007.0, 10008.0, 10013.0, 10028.0, 10030.0, 10021.0, 10011.0, 10002.0, 10018.0, 10024.0, 10012.0, 9999.0, 9995.0, 9991.0, 10016.0, 10024.0, 10021.0, 10020.0, 10027.0, 10014.0, 10003.0, 10004.0, 10027.0, 10030.0, 10008.0, 10004.0, 9992.0, 10016.0, 10024.0, 10015.0, 9995.0, 10002.0, 10099.0, 9999.0, 10003.0, 10012.0, 10009.0, 9987.0, 9985.0, 10003.0, 10028.0, 10029.0, 10006.0, 9988.0, 9977.0, 9990.0, 10025.0, 10022.0, 10006.0, 9993.0, 9995.0, 10001.0, 10001.0, 9991.0, 9997.0, 10008.0, 10008.0, 10016.0, 10035.0, 10024.0, 10025.0, 10025.0, 10018.0, 10003.0, 10022.0, 10050.0, 10055.0, 10031.0, 10011.0, 10015.0, 10025.0, 10029.0, 10021.0, 10036.0, 10060.0, 10049.0, 10030.0, 10032.0, 10031.0, 10012.0, 10003.0, 10018.0, 10059.0, 10063.0, 10043.0, 10016.0, 10002.0, 9984.0, 10006.0, 10035.0, 10029.0, 10018.0, 10000.0, 9997.0, 10005.0, 10008.0, 10016.0, 10027.0, 10015.0, 10028.0, 10028.0, 10014.0, 10012.0, 10033.0, 10055.0, 10049.0, 10045.0, 10043.0, 10031.0, 10027.0, 10018.0, 10017.0, 10036.0, 10040.0, 10024.0, 10021.0, 10026.0, 10029.0, 10015.0, 10019.0, 10036.0, 10039.0, 10045.0, 10040.0, 10024.0, 10025.0, 10021.0, 10024.0, 10041.0, 10030.0, 10028.0, 10038.0, 10020.0, 10020.0, 10037.0, 10044.0, 10048.0, 10033.0, 10031.0],
      "WindowCenterWidthExplanation": [
        "Algo1",
        "Algo1",
        "Algo1",
        "Algo1",
        "Algo1",
        "WINDOW1",
        "Algo1",
        "Algo1",
        "Algo1",
        "Algo1",
        "Algo1",
        "Algo1",
        "Algo1",
        "Algo1",
        "Algo1",
        "Algo1",
        "Algo1",
        "Algo1",
        "Algo1",
        "Algo1",
        "Algo1",
        "Algo1",
        "Algo1",
        "Algo1",
        "Algo1",
        "Algo1",
        "Algo1",
        "Algo1",
        "Algo1",
        "Algo1",
        "Algo1",
        "Algo1",
        "Algo1",
        "Algo1",
        "Algo1",
        "Algo1",
        "Algo1",
        "Algo1",
        "Algo1",
        "Algo1",
        "Algo1",
        "Algo1",
        "Algo1",
        "Algo1",
        "Algo1",
        "Algo1",
        "Algo1",
        "Algo1",
        "Algo1",
        "Algo1",
        "Algo1",
        "Algo1",
        "Algo1",
        "Algo1",
        "Algo1",
        "Algo1",
        "Algo1",
        "Algo1",
        "Algo1",
        "Algo1",
        "Algo1",
        "Algo1",
        "Algo1",
        "Algo1",
        "Algo1",
        "Algo1",
        "Algo1",
        "Algo1",
        "Algo1",
        "Algo1",
        "Algo1",
        "Algo1",
        "Algo1",
        "Algo1",
        "Algo1",
        "Algo1",
        "Algo1",
        "Algo1",
        "Algo1",
        "Algo1",
        "Algo1",
        "Algo1",
        "Algo1",
        "Algo1",
        "Algo1",
        "Algo1",
        "Algo1",
        "Algo1",
        "Algo1",
        "Algo1",
        "Algo1",
        "Algo1",
        "Algo1",
        "Algo1",
        "Algo1",
        "Algo1",
        "Algo1",
        "Algo1",
        "Algo1",
        "Algo1",
        "Algo1",
        "Algo1",
        "Algo1",
        "Algo1",
        "Algo1",
        "Algo1",
        "Algo1",
        "Algo1",
        "Algo1",
        "Algo1",
        "Algo1",
        "Algo1",
        "Algo1",
        "Algo1",
        "Algo1",
        "Algo1",
        "Algo1",
        "Algo1",
        "Algo1",
        "Algo1",
        "Algo1",
        "Algo1",
        "Algo1",
        "Algo1",
        "Algo1",
        "Algo1",
        "Algo1",
        "Algo1",
        "Algo1",
        "Algo1",
        "Algo1",
        "Algo1",
        "Algo1",
        "Algo1",
        "Algo1",
        "Algo1",
        "Algo1",
        "Algo1",
        "Algo1",
        "Algo1",
        "Algo1",
        "Algo1",
        "Algo1",
        "Algo1",
        "Algo1",
        "Algo1",
        "Algo1",
        "Algo1",
        "Algo1",
        "Algo1",
        "Algo1",
        "Algo1",
        "Algo1",
        "Algo1",
        "Algo1",
        "Algo1",
        "Algo1",
        "Algo1",
        "Algo1"
],
      "WindowWidth": [21185.0, 21087.0, 21122.0, 21121.0, 21086.0, 20026.0, 21014.0, 21050.0, 21077.0, 21064.0, 21055.0, 21086.0, 21097.0, 21093.0, 21062.0, 21061.0, 21108.0, 21157.0, 21127.0, 21073.0, 21085.0, 21087.0, 21093.0, 21130.0, 21134.0, 21111.0, 21088.0, 21069.0, 21112.0, 21125.0, 21099.0, 21066.0, 21058.0, 21042.0, 21102.0, 21123.0, 21110.0, 21112.0, 21126.0, 21098.0, 21068.0, 21074.0, 21125.0, 21133.0, 21087.0, 21073.0, 21045.0, 21104.0, 21129.0, 21104.0, 21056.0, 21072.0, 21271.0, 21069.0, 21070.0, 21094.0, 21094.0, 21044.0, 21038.0, 21072.0, 21134.0, 21130.0, 21081.0, 21040.0, 21012.0, 21042.0, 21120.0, 21116.0, 21079.0, 21050.0, 21050.0, 21067.0, 21066.0, 21041.0, 21052.0, 21080.0, 21078.0, 21098.0, 21150.0, 21113.0, 21118.0, 21119.0, 21107.0, 21077.0, 21113.0, 21176.0, 21191.0, 21134.0, 21087.0, 21094.0, 21120.0, 21145.0, 21115.0, 21147.0, 21211.0, 21175.0, 21127.0, 21135.0, 21128.0, 21095.0, 21071.0, 21103.0, 21194.0, 21201.0, 21153.0, 21092.0, 21076.0, 21029.0, 21078.0, 21144.0, 21129.0, 21097.0, 21057.0, 21050.0, 21070.0, 21078.0, 21097.0, 21122.0, 21104.0, 21142.0, 21127.0, 21097.0, 21091.0, 21136.0, 21188.0, 21174.0, 21160.0, 21155.0, 21133.0, 21117.0, 21100.0, 21100.0, 21142.0, 21153.0, 21118.0, 21110.0, 21121.0, 21129.0, 21098.0, 21107.0, 21142.0, 21153.0, 21161.0, 21151.0, 21116.0, 21112.0, 21111.0, 21109.0, 21151.0, 21130.0, 21124.0, 21155.0, 21106.0, 21105.0, 21144.0, 21160.0, 21169.0, 21135.0, 21130.0]
    },
    "slices": {}
  }
}