{
  "AcquisitionMatrixPE": 104,
  "AcquisitionNumber": 1,
  "AcquisitionTime": "16:57:40.547500",
  "BandwidthPerPixelPhaseEncode": 17.17,
  "BaseResolution": 104,
  "BodyPartExamined": "BRAIN",
  "CoilString": "HC1-7;NC1_2",
  "ConsistencyInfo": "N4_VE11C_LATEST_20160120",
  "ConversionSoftware": "dcm2niix",
  "ConversionSoftwareVersion": "v1.0.20190720  (JP2:OpenJPEG) GCC7.3.0",
  "DerivedVendorReportedEchoSpacing": 0.000560011,
  "DeviceSerialNumber": "167006",
  "DwellTime": 2.1e-06,
  "EchoTime": 0.037,
  "EchoTrainLength": 104,
  "EffectiveEchoSpacing": 0.000560011,
  "FlipAngle": 52,
  "ImageComments": "Unaliased_MB4_PE3_LB",
  "ImageOrientationPatientDICOM": [0.999321, -0.0352833, -0.0106268, 0.0282627, 0.918951, -0.393359],
  "ImageType": [
    "ORIGINAL",
    "PRIMARY",
    "M",
    "MB",
    "ND",
    "MOSAIC"
],
  "ImagingFrequency": 123.26,
  "InPlanePhaseEncodingDirectionDICOM": "COL",
  "InstitutionAddress": "Chemin_Queen-Mary_4565_Montreal_District_CA_H3W_1W5",
  "InstitutionName": "IUGM",
  "InstitutionalDepartmentName": "Department",
  "MRAcquisitionType": "2D",
  "MagneticFieldStrength": 3,
  "Manufacturer": "Siemens",
  "ManufacturersModelName": "Prisma_fit",
  "Modality": "MR",
  "MultibandAccelerationFactor": 4,
  "PartialFourier": 1,
  "PatientPosition": "HFS",
  "PercentPhaseFOV": 100,
  "PhaseEncodingDirection": "j",
  "PhaseEncodingSteps": 104,
  "PhaseResolution": 1,
  "PixelBandwidth": 2290,
  "ProcedureStepDescription": "hcptrt_generic",
  "ProtocolName": "func_task-language_run-2",
  "PulseSequenceDetails": "%CustomerSeq%_cmrr_mbep2d_bold",
  "ReceiveCoilActiveElements": "HC1-7;NC1,2",
  "ReceiveCoilName": "HeadNeck_64",
  "ReconMatrixPE": 104,
  "RepetitionTime": 1.49,
  "SAR": 0.0382429,
  "ScanOptions": "FS",
  "ScanningSequence": "EP",
  "SequenceName": "epfid2d1_104",
  "SequenceVariant": "SK_SS",
  "SeriesDescription": "func_task-language_run-2",
  "SeriesNumber": 35,
  "ShimSetting": [611, -7258, -8859, 333, 27, -424, 28, 13],
  "SliceThickness": 2,
  "SliceTiming": [0, 0.785, 0.1, 0.8825, 0.1975, 0.98, 0.295, 1.08, 0.3925, 1.1775, 0.49, 1.275, 0.59, 1.3725, 0.6875, 0, 0.785, 0.1, 0.8825, 0.1975, 0.98, 0.295, 1.08, 0.3925, 1.1775, 0.49, 1.275, 0.59, 1.3725, 0.6875, 0, 0.785, 0.1, 0.8825, 0.1975, 0.98, 0.295, 1.08, 0.3925, 1.1775, 0.49, 1.275, 0.59, 1.3725, 0.6875, 0, 0.785, 0.1, 0.8825, 0.1975, 0.98, 0.295, 1.08, 0.3925, 1.1775, 0.49, 1.275, 0.59, 1.3725, 0.6875],
  "SoftwareVersions": "syngo_MR_E11",
  "SpacingBetweenSlices": 2,
  "StationName": "MRC35049",
  "TaskName": "language",
  "TotalReadoutTime": 0.0576811,
  "TxRefAmp": 241.686,
  "WipMemBlock": "43853ee9-4304-4a0f-9a52-6e2866bd0f4f||Sequence: R016 ve11c/master r/e634e98; Dec 19 2017 11:00:25 by eja",
  "dcmmeta_affine": [
    [-1.9986417293548584, 0.05652531981468201, -0.047289006412029266, 102.58391571044922],
    [0.07056660950183868, 1.8379011154174805, -0.785582423210144, -63.15861892700195],
    [-0.021253611892461777, 0.7867173552513123, 1.8386473655700684, -71.0588150024414],
    [0.0, 0.0, 0.0, 1.0]
],
  "dcmmeta_reorient_transform": [
    [0.0, -1.0, 0.0, 103.0],
    [1.0, 0.0, 0.0, 0.0],
    [0.0, 0.0, 1.0, 0.0],
    [0.0, 0.0, 0.0, 1.0]
],
  "dcmmeta_shape": [104, 104, 60, 159],
  "dcmmeta_slice_dim": 2,
  "dcmmeta_version": 0.6,
  "global": {
    "const": {
      "AcquisitionMatrix": [104, 0, 0, 104],
      "AngioFlag": "N",
      "BitsAllocated": 16,
      "BitsStored": 16,
      "BodyPartExamined": "BRAIN",
      "Columns": 832,
      "EchoNumbers": 1,
      "EchoTime": 37.0,
      "EchoTrainLength": 104,
      "FlipAngle": 52.0,
      "HighBit": 15,
      "ImageOrientationPatient": [0.99932084913568, -0.0352833032231, -0.0106268055596, 0.02826266015189, 0.91895057702139, -0.3933586900441],
      "ImagePositionPatient": [-856.48682001065, -769.4549767318, 304.07451617409],
      "ImageType": [
        "ORIGINAL",
        "PRIMARY",
        "M",
        "MB",
        "ND",
        "MOSAIC"
],
      "ImagedNucleus": "1H",
      "ImagingFrequency": 123.25961,
      "InPlanePhaseEncodingDirection": "COL",
      "MRAcquisitionType": "2D",
      "MagneticFieldStrength": 3.0,
      "Manufacturer": "SIEMENS",
      "ManufacturerModelName": "Prisma_fit",
      "Modality": "MR",
      "NumberOfAverages": 1.0,
      "NumberOfPhaseEncodingSteps": 104,
      "PercentPhaseFieldOfView": 100.0,
      "PercentSampling": 100.0,
      "PerformedProcedureStepStartTime": "154530.172000",
      "PhotometricInterpretation": "MONOCHROME2",
      "PixelBandwidth": 2290.0,
      "PixelRepresentation": 0,
      "PixelSpacing": [2.0, 2.0],
      "ProtocolName": "func_task-language_run-2",
      "RepetitionTime": 1490.0,
      "Rows": 832,
      "SAR": 0.03824292887548,
      "SamplesPerPixel": 1,
      "ScanOptions": "FS",
      "ScanningSequence": "EP",
      "SequenceName": "epfid2d1_104",
      "SequenceVariant": [
        "SK",
        "SS"
],
      "SeriesDescription": "func_task-language_run-2",
      "SeriesNumber": 35,
      "SeriesTime": "165858.225000",
      "SliceLocation": -42.943447156582,
      "SliceThickness": 2.0,
      "SmallestImagePixelValue": 0,
      "SoftwareVersions": "syngo MR E11",
      "SpacingBetweenSlices": 2.0000000608683,
      "SpecificCharacterSet": "ISO_IR 100",
      "StudyID": "1",
      "StudyTime": "154530.095000",
      "TransmitCoilName": "Body",
      "VariableFlipAngleFlag": "N",
      "WindowCenterWidthExplanation": "Algo1",
      "dBdt": 0.0},
    "slices": {}
  },
  "time": {
    "samples": {
      "AcquisitionNumber": [1, 2, 3, 4, 5, 6, 7, 8, 9, 10, 11, 12, 13, 14, 15, 16, 17, 18, 19, 20, 21, 22, 23, 24, 25, 26, 27, 28, 29, 30, 31, 32, 33, 34, 35, 36, 37, 38, 39, 40, 41, 42, 43, 44, 45, 46, 47, 48, 49, 50, 51, 52, 53, 54, 55, 56, 57, 58, 59, 60, 61, 62, 63, 64, 65, 66, 67, 68, 69, 70, 71, 72, 73, 74, 75, 76, 77, 78, 79, 80, 81, 82, 83, 84, 85, 86, 87, 88, 89, 90, 91, 92, 93, 94, 95, 96, 97, 98, 99, 100, 101, 102, 103, 104, 105, 106, 107, 108, 109, 110, 111, 112, 113, 114, 115, 116, 117, 118, 119, 120, 121, 122, 123, 124, 125, 126, 127, 128, 129, 130, 131, 132, 133, 134, 135, 136, 137, 138, 139, 140, 141, 142, 143, 144, 145, 146, 147, 148, 149, 150, 151, 152, 153, 154, 155, 156, 157, 158, 159],
      "AcquisitionTime": ["165740.547500", "165742.037500", "165743.527500", "165745.017500", "165746.507500", "165747.997500", "165749.487500", "165750.977500", "165752.467500", "165753.957500", "165755.447500", "165756.937500", "165758.427500", "165759.917500", "165801.407500", "165802.897500", "165804.387500", "165805.877500", "165807.367500", "165808.857500", "165810.347500", "165811.837500", "165813.327500", "165814.817500", "165816.307500", "165817.797500", "165819.287500", "165820.777500", "165822.267500", "165823.757500", "165825.247500", "165826.737500", "165828.227500", "165829.717500", "165831.207500", "165832.697500", "165834.187500", "165835.677500", "165837.167500", "165838.657500", "165840.147500", "165841.637500", "165843.127500", "165844.617500", "165846.107500", "165847.597500", "165849.087500", "165850.577500", "165852.067500", "165853.557500", "165855.047500", "165856.537500", "165858.027500", "165859.517500", "165901.007500", "165902.497500", "165903.987500", "165905.477500", "165906.967500", "165908.457500", "165909.947500", "165911.437500", "165912.927500", "165914.417500", "165915.907500", "165917.397500", "165918.887500", "165920.377500", "165921.867500", "165923.357500", "165924.847500", "165926.337500", "165927.827500", "165929.317500", "165930.807500", "165932.297500", "165933.787500", "165935.277500", "165936.767500", "165938.257500", "165939.747500", "165941.237500", "165942.727500", "165944.217500", "165945.707500", "165947.197500", "165948.687500", "165950.177500", "165951.667500", "165953.157500", "165954.647500", "165956.137500", "165957.627500", "165959.117500", "170000.607500", "170002.097500", "170003.587500", "170005.077500", "170006.567500", "170008.057500", "170009.547500", "170011.037500", "170012.527500", "170014.017500", "170015.507500", "170016.997500", "170018.487500", "170019.977500", "170021.467500", "170022.957500", "170024.447500", "170025.937500", "170027.427500", "170028.917500", "170030.407500", "170031.897500", "170033.387500", "170034.877500", "170036.367500", "170037.857500", "170039.347500", "170040.837500", "170042.327500", "170043.817500", "170045.307500", "170046.797500", "170048.287500", "170049.777500", "170051.267500", "170052.757500", "170054.247500", "170055.737500", "170057.227500", "170058.717500", "170100.207500", "170101.697500", "170103.187500", "170104.677500", "170106.167500", "170107.657500", "170109.147500", "170110.637500", "170112.127500", "170113.617500", "170115.107500", "170116.597500", "170118.087500", "170119.577500", "170121.067500", "170122.557500", "170124.047500", "170125.537500", "170127.027500", "170128.517500", "170130.007500", "170131.497500", "170132.987500", "170134.477500", "170135.967500"],
      "ContentTime": ["165858.227000", "165858.231000", "165858.234000", "165858.236000", "165858.239000", "165858.244000", "165858.246000", "165858.249000", "165858.252000", "165858.255000", "165858.258000", "165858.261000", "165858.264000", "165858.267000", "165858.270000", "165858.272000", "165858.275000", "165858.278000", "165858.281000", "165858.284000", "165858.287000", "165858.289000", "165918.194000", "165918.197000", "165918.200000", "165918.214000", "165918.217000", "165918.220000", "165918.223000", "165918.226000", "165918.229000", "165918.232000", "165918.234000", "165918.237000", "165918.240000", "165918.243000", "165918.246000", "165918.249000", "165918.252000", "165918.255000", "165918.258000", "165918.261000", "165938.194000", "165938.203000", "165938.206000", "165938.209000", "165938.212000", "165938.215000", "165938.217000", "165938.220000", "165938.223000", "165938.226000", "165938.229000", "165938.232000", "165938.234000", "165938.238000", "165938.240000", "165938.243000", "165938.246000", "165938.249000", "165938.252000", "165938.255000", "165958.193000", "165958.196000", "165958.199000", "165958.201000", "165958.204000", "165958.207000", "165958.210000", "165958.213000", "165958.216000", "165958.219000", "165958.221000", "165958.224000", "165958.227000", "165958.230000", "165958.233000", "165958.236000", "165958.238000", "165958.241000", "165958.244000", "165958.247000", "170018.193000", "170018.196000", "170018.199000", "170018.202000", "170018.205000", "170018.207000", "170018.210000", "170018.213000", "170018.216000", "170018.219000", "170018.222000", "170018.225000", "170018.228000", "170018.230000", "170018.233000", "170018.236000", "170018.239000", "170018.242000", "170018.245000", "170018.248000", "170058.194000", "170058.201000", "170058.204000", "170058.207000", "170058.210000", "170058.213000", "170058.215000", "170058.218000", "170058.221000", "170058.224000", "170058.227000", "170058.230000", "170058.233000", "170058.236000", "170058.238000", "170058.241000", "170058.244000", "170058.247000", "170058.250000", "170058.253000", "170058.255000", "170058.258000", "170058.261000", "170058.264000", "170058.267000", "170058.270000", "170058.273000", "170058.275000", "170058.278000", "170058.281000", "170138.194000", "170138.197000", "170138.200000", "170138.203000", "170138.205000", "170138.208000", "170138.211000", "170138.214000", "170138.217000", "170138.220000", "170138.223000", "170138.225000", "170138.228000", "170138.231000", "170138.234000", "170138.237000", "170138.240000", "170138.243000", "170138.245000", "170138.248000", "170138.251000", "170138.254000", "170138.259000", "170138.262000", "170138.265000", "170138.268000", "170138.415000"],
      "InstanceCreationTime": ["165858.227000", "165858.231000", "165858.234000", "165858.236000", "165858.239000", "165858.244000", "165858.246000", "165858.249000", "165858.252000", "165858.255000", "165858.258000", "165858.261000", "165858.264000", "165858.267000", "165858.270000", "165858.272000", "165858.275000", "165858.278000", "165858.281000", "165858.284000", "165858.287000", "165858.289000", "165918.194000", "165918.197000", "165918.200000", "165918.214000", "165918.217000", "165918.220000", "165918.223000", "165918.226000", "165918.229000", "165918.232000", "165918.234000", "165918.237000", "165918.240000", "165918.243000", "165918.246000", "165918.249000", "165918.252000", "165918.255000", "165918.258000", "165918.261000", "165938.194000", "165938.203000", "165938.206000", "165938.209000", "165938.212000", "165938.215000", "165938.217000", "165938.220000", "165938.223000", "165938.226000", "165938.229000", "165938.232000", "165938.234000", "165938.238000", "165938.240000", "165938.243000", "165938.246000", "165938.249000", "165938.252000", "165938.255000", "165958.193000", "165958.196000", "165958.199000", "165958.201000", "165958.204000", "165958.207000", "165958.210000", "165958.213000", "165958.216000", "165958.219000", "165958.221000", "165958.224000", "165958.227000", "165958.230000", "165958.233000", "165958.236000", "165958.238000", "165958.241000", "165958.244000", "165958.247000", "170018.193000", "170018.196000", "170018.199000", "170018.202000", "170018.205000", "170018.207000", "170018.210000", "170018.213000", "170018.216000", "170018.219000", "170018.222000", "170018.225000", "170018.228000", "170018.230000", "170018.233000", "170018.236000", "170018.239000", "170018.242000", "170018.245000", "170018.248000", "170058.194000", "170058.201000", "170058.204000", "170058.207000", "170058.210000", "170058.213000", "170058.215000", "170058.218000", "170058.221000", "170058.224000", "170058.227000", "170058.230000", "170058.233000", "170058.236000", "170058.238000", "170058.241000", "170058.244000", "170058.247000", "170058.250000", "170058.253000", "170058.255000", "170058.258000", "170058.261000", "170058.264000", "170058.267000", "170058.270000", "170058.273000", "170058.275000", "170058.278000", "170058.281000", "170138.194000", "170138.197000", "170138.200000", "170138.203000", "170138.205000", "170138.208000", "170138.211000", "170138.214000", "170138.217000", "170138.220000", "170138.223000", "170138.225000", "170138.228000", "170138.231000", "170138.234000", "170138.237000", "170138.240000", "170138.243000", "170138.245000", "170138.248000", "170138.251000", "170138.254000", "170138.259000", "170138.262000", "170138.265000", "170138.268000", "170138.415000"],
      "InstanceNumber": [1, 2, 3, 4, 5, 6, 7, 8, 9, 10, 11, 12, 13, 14, 15, 16, 17, 18, 19, 20, 21, 22, 23, 24, 25, 26, 27, 28, 29, 30, 31, 32, 33, 34, 35, 36, 37, 38, 39, 40, 41, 42, 43, 44, 45, 46, 47, 48, 49, 50, 51, 52, 53, 54, 55, 56, 57, 58, 59, 60, 61, 62, 63, 64, 65, 66, 67, 68, 69, 70, 71, 72, 73, 74, 75, 76, 77, 78, 79, 80, 81, 82, 83, 84, 85, 86, 87, 88, 89, 90, 91, 92, 93, 94, 95, 96, 97, 98, 99, 100, 101, 102, 103, 104, 105, 106, 107, 108, 109, 110, 111, 112, 113, 114, 115, 116, 117, 118, 119, 120, 121, 122, 123, 124, 125, 126, 127, 128, 129, 130, 131, 132, 133, 134, 135, 136, 137, 138, 139, 140, 141, 142, 143, 144, 145, 146, 147, 148, 149, 150, 151, 152, 153, 154, 155, 156, 157, 158, 159],
      "LargestImagePixelValue": [55351, 53024, 51337, 51717, 51613, 51904, 51962, 51296, 51910, 51282, 51167, 51545, 51551, 51857, 51138, 52334, 51467, 52215, 51565, 51797, 51513, 52337, 51676, 51508, 52392, 51545, 52399, 51638, 51735, 51836, 51288, 51871, 50883, 50991, 51693, 50748, 51321, 51169, 50799, 50883, 51974, 51036, 50096, 51837, 51884, 51112, 51236, 50832, 50537, 51373, 50867, 50402, 51066, 51132, 51000, 51386, 50745, 50668, 50682, 50706, 51203, 50704, 50931, 51430, 51599, 51004, 51400, 51465, 51173, 50972, 51887, 51139, 51183, 51681, 51175, 51653, 51221, 51609, 51026, 51430, 50821, 50589, 50783, 50493, 50674, 51376, 51075, 51036, 51205, 50889, 50636, 50335, 50613, 50007, 50742, 50069, 50802, 50134, 50610, 50079, 50874, 50721, 51422, 50367, 51144, 50858, 50626, 50855, 51486, 51101, 50394, 51207, 51262, 51027, 51157, 50993, 50771, 50328, 49718, 50260, 50413, 49805, 49755, 49957, 50361, 50099, 50273, 49550, 49194, 49883, 49717, 50197, 49808, 50378, 50077, 50344, 50483, 49684, 50397, 50122, 50223, 50221, 49461, 49793, 50244, 49549, 50097, 50050, 49638, 50533, 49527, 49592, 49383, 49526, 49415, 49995, 49220, 49803, 49570],
      "WindowCenter": [10237.0, 10141.0, 10084.0, 10100.0, 10107.0, 10107.0, 10100.0, 10093.0, 10105.0, 10116.0, 10126.0, 10135.0, 10142.0, 10137.0, 10128.0, 10138.0, 10135.0, 10141.0, 10150.0, 10147.0, 10149.0, 10157.0, 10153.0, 10154.0, 10159.0, 10145.0, 10147.0, 10133.0, 10147.0, 10157.0, 10147.0, 10145.0, 10145.0, 10144.0, 10147.0, 10146.0, 10160.0, 10156.0, 10155.0, 10156.0, 10168.0, 10160.0, 10162.0, 10184.0, 10149.0, 10112.0, 10083.0, 10055.0, 10044.0, 10063.0, 10084.0, 10099.0, 10105.0, 10112.0, 10117.0, 10130.0, 10142.0, 10155.0, 10156.0, 10140.0, 10129.0, 10119.0, 10117.0, 10131.0, 10132.0, 10119.0, 10120.0, 10111.0, 10102.0, 10094.0, 10112.0, 10119.0, 10130.0, 10144.0, 10140.0, 10139.0, 10130.0, 10128.0, 10129.0, 10137.0, 10133.0, 10118.0, 10114.0, 10113.0, 10108.0, 10118.0, 10113.0, 10113.0, 10111.0, 10111.0, 10115.0, 10119.0, 10125.0, 10119.0, 10113.0, 10107.0, 10121.0, 10127.0, 10127.0, 10119.0, 10116.0, 10122.0, 10120.0, 10095.0, 10103.0, 10102.0, 10105.0, 10103.0, 10102.0, 10095.0, 10098.0, 10119.0, 10121.0, 10114.0, 10103.0, 10087.0, 10086.0, 10097.0, 10119.0, 10126.0, 10115.0, 10100.0, 10085.0, 10096.0, 10104.0, 10106.0, 10115.0, 10119.0, 10113.0, 10109.0, 10100.0, 10096.0, 10098.0, 10112.0, 10107.0, 10106.0, 10104.0, 10090.0, 10080.0, 10076.0, 10084.0, 10096.0, 10105.0, 10107.0, 10114.0, 10110.0, 10115.0, 10121.0, 10117.0, 10127.0, 10110.0, 10108.0, 10107.0, 10107.0, 10103.0, 10106.0, 10107.0, 10107.0, 10108.0],
      "WindowWidth": [22029.0, 21767.0, 21614.0, 21638.0, 21651.0, 21649.0, 21634.0, 21620.0, 21643.0, 21668.0, 21691.0, 21710.0, 21726.0, 21712.0, 21694.0, 21711.0, 21709.0, 21720.0, 21739.0, 21731.0, 21737.0, 21755.0, 21750.0, 21754.0, 21759.0, 21734.0, 21730.0, 21704.0, 21733.0, 21754.0, 21739.0, 21732.0, 21732.0, 21731.0, 21733.0, 21737.0, 21766.0, 21757.0, 21755.0, 21758.0, 21781.0, 21771.0, 21775.0, 21817.0, 21738.0, 21653.0, 21589.0, 21528.0, 21505.0, 21543.0, 21589.0, 21629.0, 21638.0, 21649.0, 21666.0, 21696.0, 21721.0, 21753.0, 21754.0, 21720.0, 21695.0, 21673.0, 21667.0, 21695.0, 21696.0, 21671.0, 21665.0, 21644.0, 21624.0, 21608.0, 21643.0, 21671.0, 21694.0, 21718.0, 21710.0, 21702.0, 21684.0, 21678.0, 21685.0, 21698.0, 21700.0, 21668.0, 21659.0, 21653.0, 21649.0, 21663.0, 21656.0, 21655.0, 21646.0, 21650.0, 21660.0, 21674.0, 21684.0, 21672.0, 21654.0, 21644.0, 21670.0, 21689.0, 21688.0, 21675.0, 21664.0, 21674.0, 21666.0, 21621.0, 21630.0, 21630.0, 21637.0, 21637.0, 21631.0, 21617.0, 21624.0, 21666.0, 21672.0, 21658.0, 21634.0, 21599.0, 21597.0, 21623.0, 21676.0, 21688.0, 21660.0, 21630.0, 21598.0, 21620.0, 21634.0, 21641.0, 21662.0, 21672.0, 21661.0, 21650.0, 21631.0, 21617.0, 21625.0, 21649.0, 21642.0, 21638.0, 21631.0, 21612.0, 21589.0, 21574.0, 21593.0, 21618.0, 21640.0, 21645.0, 21656.0, 21653.0, 21658.0, 21670.0, 21664.0, 21681.0, 21657.0, 21649.0, 21648.0, 21644.0, 21640.0, 21642.0, 21646.0, 21647.0, 21650.0]
    },
    "slices": {}
  }
}