{
  "AcquisitionMatrixPE": 104,
  "AcquisitionNumber": 1,
  "AcquisitionTime": "16:34:4.297500",
  "BandwidthPerPixelPhaseEncode": 17.17,
  "BaseResolution": 104,
  "BodyPartExamined": "BRAIN",
  "CoilString": "HC1-7;NC1_2",
  "ConsistencyInfo": "N4_VE11C_LATEST_20160120",
  "ConversionSoftware": "dcm2niix",
  "ConversionSoftwareVersion": "v1.0.20190720  (JP2:OpenJPEG) GCC7.3.0",
  "DerivedVendorReportedEchoSpacing": 0.000560011,
  "DeviceSerialNumber": "167006",
  "DwellTime": 2.1e-06,
  "EchoTime": 0.037,
  "EchoTrainLength": 104,
  "EffectiveEchoSpacing": 0.000560011,
  "FlipAngle": 52,
  "ImageComments": "Unaliased_MB4_PE3_LB",
  "ImageOrientationPatientDICOM": [0.999321, -0.0352833, -0.0106268, 0.0282627, 0.918951, -0.393359],
  "ImageType": [
    "ORIGINAL",
    "PRIMARY",
    "M",
    "MB",
    "ND",
    "MOSAIC"
],
  "ImagingFrequency": 123.26,
  "InPlanePhaseEncodingDirectionDICOM": "COL",
  "InstitutionAddress": "Chemin_Queen-Mary_4565_Montreal_District_CA_H3W_1W5",
  "InstitutionName": "IUGM",
  "InstitutionalDepartmentName": "Department",
  "MRAcquisitionType": "2D",
  "MagneticFieldStrength": 3,
  "Manufacturer": "Siemens",
  "ManufacturersModelName": "Prisma_fit",
  "Modality": "MR",
  "MultibandAccelerationFactor": 4,
  "PartialFourier": 1,
  "PatientPosition": "HFS",
  "PercentPhaseFOV": 100,
  "PhaseEncodingDirection": "j",
  "PhaseEncodingSteps": 104,
  "PhaseResolution": 1,
  "PixelBandwidth": 2290,
  "ProcedureStepDescription": "hcptrt_generic",
  "ProtocolName": "func_task-motor_run-2",
  "PulseSequenceDetails": "%CustomerSeq%_cmrr_mbep2d_bold",
  "ReceiveCoilActiveElements": "HC1-7;NC1,2",
  "ReceiveCoilName": "HeadNeck_64",
  "ReconMatrixPE": 104,
  "RepetitionTime": 1.49,
  "SAR": 0.038196,
  "ScanOptions": "FS",
  "ScanningSequence": "EP",
  "SequenceName": "epfid2d1_104",
  "SequenceVariant": "SK_SS",
  "SeriesDescription": "func_task-motor_run-2",
  "SeriesNumber": 25,
  "ShimSetting": [611, -7258, -8859, 333, 27, -424, 28, 13],
  "SliceThickness": 2,
  "SliceTiming": [0, 0.7825, 0.0975, 0.8825, 0.195, 0.98, 0.295, 1.0775, 0.3925, 1.175, 0.49, 1.2725, 0.5875, 1.3725, 0.685, 0, 0.7825, 0.0975, 0.8825, 0.195, 0.98, 0.295, 1.0775, 0.3925, 1.175, 0.49, 1.2725, 0.5875, 1.3725, 0.685, 0, 0.7825, 0.0975, 0.8825, 0.195, 0.98, 0.295, 1.0775, 0.3925, 1.175, 0.49, 1.2725, 0.5875, 1.3725, 0.685, 0, 0.7825, 0.0975, 0.8825, 0.195, 0.98, 0.295, 1.0775, 0.3925, 1.175, 0.49, 1.2725, 0.5875, 1.3725, 0.685],
  "SoftwareVersions": "syngo_MR_E11",
  "SpacingBetweenSlices": 2,
  "StationName": "MRC35049",
  "TaskName": "motor",
  "TotalReadoutTime": 0.0576811,
  "TxRefAmp": 241.686,
  "WipMemBlock": "5a662984-f75f-423c-a4bc-c9d9271e2633||Sequence: R016 ve11c/master r/e634e98; Dec 19 2017 11:00:25 by eja",
  "dcmmeta_affine": [
    [-1.9986417293548584, 0.05652531981468201, -0.047289006412029266, 102.58391571044922],
    [0.07056660950183868, 1.8379011154174805, -0.785582423210144, -63.15861892700195],
    [-0.021253611892461777, 0.7867173552513123, 1.8386473655700684, -71.0588150024414],
    [0.0, 0.0, 0.0, 1.0]
],
  "dcmmeta_reorient_transform": [
    [0.0, -1.0, 0.0, 103.0],
    [1.0, 0.0, 0.0, 0.0],
    [0.0, 0.0, 1.0, 0.0],
    [0.0, 0.0, 0.0, 1.0]
],
  "dcmmeta_shape": [104, 104, 60, 144],
  "dcmmeta_slice_dim": 2,
  "dcmmeta_version": 0.6,
  "global": {
    "const": {
      "AcquisitionMatrix": [104, 0, 0, 104],
      "AngioFlag": "N",
      "BitsAllocated": 16,
      "BitsStored": 16,
      "BodyPartExamined": "BRAIN",
      "Columns": 832,
      "EchoNumbers": 1,
      "EchoTime": 37.0,
      "EchoTrainLength": 104,
      "FlipAngle": 52.0,
      "HighBit": 15,
      "ImageOrientationPatient": [0.99932084913568, -0.0352833032231, -0.0106268055596, 0.02826266015189, 0.91895057702139, -0.3933586900441],
      "ImagePositionPatient": [-856.48682001065, -769.4549767318, 304.07451617409],
      "ImageType": [
        "ORIGINAL",
        "PRIMARY",
        "M",
        "MB",
        "ND",
        "MOSAIC"
],
      "ImagedNucleus": "1H",
      "ImagingFrequency": 123.259606,
      "InPlanePhaseEncodingDirection": "COL",
      "MRAcquisitionType": "2D",
      "MagneticFieldStrength": 3.0,
      "Manufacturer": "SIEMENS",
      "ManufacturerModelName": "Prisma_fit",
      "Modality": "MR",
      "NumberOfAverages": 1.0,
      "NumberOfPhaseEncodingSteps": 104,
      "PercentPhaseFieldOfView": 100.0,
      "PercentSampling": 100.0,
      "PerformedProcedureStepStartTime": "154530.172000",
      "PhotometricInterpretation": "MONOCHROME2",
      "PixelBandwidth": 2290.0,
      "PixelRepresentation": 0,
      "PixelSpacing": [2.0, 2.0],
      "ProtocolName": "func_task-motor_run-2",
      "RepetitionTime": 1490.0,
      "Rows": 832,
      "SAR": 0.03819598614212,
      "SamplesPerPixel": 1,
      "ScanOptions": "FS",
      "ScanningSequence": "EP",
      "SequenceName": "epfid2d1_104",
      "SequenceVariant": [
        "SK",
        "SS"
],
      "SeriesDescription": "func_task-motor_run-2",
      "SeriesNumber": 25,
      "SeriesTime": "163534.175000",
      "SliceLocation": -42.943447156582,
      "SliceThickness": 2.0,
      "SmallestImagePixelValue": 0,
      "SoftwareVersions": "syngo MR E11",
      "SpacingBetweenSlices": 2.0000000608683,
      "SpecificCharacterSet": "ISO_IR 100",
      "StudyID": "1",
      "StudyTime": "154530.095000",
      "TransmitCoilName": "Body",
      "VariableFlipAngleFlag": "N",
      "WindowCenterWidthExplanation": "Algo1",
      "dBdt": 0.0},
    "slices": {}
  },
  "time": {
    "samples": {
      "AcquisitionNumber": [1, 2, 3, 4, 5, 6, 7, 8, 9, 10, 11, 12, 13, 14, 15, 16, 17, 18, 19, 20, 21, 22, 23, 24, 25, 26, 27, 28, 29, 30, 31, 32, 33, 34, 35, 36, 37, 38, 39, 40, 41, 42, 43, 44, 45, 46, 47, 48, 49, 50, 51, 52, 53, 54, 55, 56, 57, 58, 59, 60, 61, 62, 63, 64, 65, 66, 67, 68, 69, 70, 71, 72, 73, 74, 75, 76, 77, 78, 79, 80, 81, 82, 83, 84, 85, 86, 87, 88, 89, 90, 91, 92, 93, 94, 95, 96, 97, 98, 99, 100, 101, 102, 103, 104, 105, 106, 107, 108, 109, 110, 111, 112, 113, 114, 115, 116, 117, 118, 119, 120, 121, 122, 123, 124, 125, 126, 127, 128, 129, 130, 131, 132, 133, 134, 135, 136, 137, 138, 139, 140, 141, 142, 143, 144],
      "AcquisitionTime": ["163404.297500", "163405.787500", "163407.277500", "163408.767500", "163410.257500", "163411.747500", "163413.237500", "163414.727500", "163416.217500", "163417.707500", "163419.197500", "163420.687500", "163422.177500", "163423.667500", "163425.157500", "163426.647500", "163428.137500", "163429.627500", "163431.117500", "163432.607500", "163434.097500", "163435.587500", "163437.077500", "163438.567500", "163440.057500", "163441.547500", "163443.037500", "163444.527500", "163446.017500", "163447.507500", "163448.997500", "163450.487500", "163451.977500", "163453.467500", "163454.957500", "163456.447500", "163457.937500", "163459.427500", "163500.917500", "163502.407500", "163503.897500", "163505.387500", "163506.877500", "163508.367500", "163509.857500", "163511.347500", "163512.837500", "163514.327500", "163515.817500", "163517.307500", "163518.797500", "163520.287500", "163521.777500", "163523.267500", "163524.757500", "163526.247500", "163527.737500", "163529.227500", "163530.717500", "163532.207500", "163533.697500", "163535.187500", "163536.677500", "163538.167500", "163539.657500", "163541.147500", "163542.637500", "163544.127500", "163545.617500", "163547.107500", "163548.597500", "163550.087500", "163551.577500", "163553.067500", "163554.557500", "163556.047500", "163557.537500", "163559.027500", "163600.517500", "163602.007500", "163603.497500", "163604.987500", "163606.477500", "163607.967500", "163609.457500", "163610.947500", "163612.437500", "163613.927500", "163615.417500", "163616.907500", "163618.397500", "163619.887500", "163621.377500", "163622.867500", "163624.357500", "163625.847500", "163627.337500", "163628.827500", "163630.317500", "163631.807500", "163633.297500", "163634.787500", "163636.277500", "163637.767500", "163639.257500", "163640.747500", "163642.237500", "163643.727500", "163645.217500", "163646.707500", "163648.197500", "163649.687500", "163651.177500", "163652.667500", "163654.157500", "163655.647500", "163657.137500", "163658.627500", "163700.117500", "163701.607500", "163703.097500", "163704.587500", "163706.077500", "163707.567500", "163709.057500", "163710.547500", "163712.037500", "163713.527500", "163715.017500", "163716.507500", "163717.997500", "163719.487500", "163720.977500", "163722.467500", "163723.957500", "163725.447500", "163726.937500", "163728.427500", "163729.917500", "163731.407500", "163732.897500", "163734.387500", "163735.877500", "163737.367500"],
      "ContentTime": ["163534.178000", "163534.181000", "163534.184000", "163534.187000", "163534.190000", "163534.193000", "163534.196000", "163534.199000", "163534.202000", "163534.204000", "163534.207000", "163534.210000", "163534.213000", "163534.216000", "163534.219000", "163534.230000", "163534.234000", "163534.237000", "163534.239000", "163534.242000", "163534.245000", "163534.248000", "163534.266000", "163534.269000", "163534.272000", "163534.275000", "163534.278000", "163534.281000", "163534.284000", "163534.286000", "163534.289000", "163534.292000", "163534.295000", "163534.298000", "163554.146000", "163554.149000", "163554.152000", "163554.155000", "163554.158000", "163554.161000", "163554.164000", "163554.166000", "163554.169000", "163554.172000", "163554.175000", "163554.178000", "163554.181000", "163554.184000", "163554.187000", "163554.189000", "163554.195000", "163554.198000", "163554.201000", "163554.204000", "163554.207000", "163614.146000", "163614.149000", "163614.152000", "163614.154000", "163614.157000", "163614.160000", "163614.163000", "163614.166000", "163614.169000", "163614.172000", "163614.175000", "163614.177000", "163614.180000", "163614.183000", "163614.186000", "163614.189000", "163614.192000", "163614.195000", "163614.198000", "163614.201000", "163634.146000", "163634.149000", "163634.152000", "163634.155000", "163634.158000", "163634.161000", "163634.163000", "163634.166000", "163634.169000", "163634.172000", "163634.175000", "163634.178000", "163634.181000", "163634.183000", "163634.186000", "163634.189000", "163634.192000", "163634.195000", "163634.198000", "163634.200000", "163714.145000", "163714.148000", "163714.151000", "163714.154000", "163714.157000", "163714.159000", "163714.162000", "163714.165000", "163714.168000", "163714.171000", "163714.174000", "163714.177000", "163714.179000", "163714.182000", "163714.185000", "163714.188000", "163714.191000", "163714.194000", "163714.197000", "163714.200000", "163714.202000", "163714.205000", "163714.208000", "163714.211000", "163714.214000", "163714.217000", "163714.220000", "163714.223000", "163714.226000", "163714.229000", "163714.232000", "163739.745000", "163739.748000", "163739.751000", "163739.754000", "163739.758000", "163739.761000", "163739.764000", "163739.767000", "163739.770000", "163739.773000", "163739.776000", "163739.779000", "163739.781000", "163739.784000", "163739.787000", "163739.790000", "163739.793000", "163739.796000"],
      "InstanceCreationTime": ["163534.178000", "163534.181000", "163534.184000", "163534.187000", "163534.190000", "163534.193000", "163534.196000", "163534.199000", "163534.202000", "163534.204000", "163534.207000", "163534.210000", "163534.213000", "163534.216000", "163534.219000", "163534.230000", "163534.234000", "163534.237000", "163534.239000", "163534.242000", "163534.245000", "163534.248000", "163534.266000", "163534.269000", "163534.272000", "163534.275000", "163534.278000", "163534.281000", "163534.284000", "163534.286000", "163534.289000", "163534.292000", "163534.295000", "163534.298000", "163554.146000", "163554.149000", "163554.152000", "163554.155000", "163554.158000", "163554.161000", "163554.164000", "163554.166000", "163554.169000", "163554.172000", "163554.175000", "163554.178000", "163554.181000", "163554.184000", "163554.187000", "163554.189000", "163554.195000", "163554.198000", "163554.201000", "163554.204000", "163554.207000", "163614.146000", "163614.149000", "163614.152000", "163614.154000", "163614.157000", "163614.160000", "163614.163000", "163614.166000", "163614.169000", "163614.172000", "163614.175000", "163614.177000", "163614.180000", "163614.183000", "163614.186000", "163614.189000", "163614.192000", "163614.195000", "163614.198000", "163614.201000", "163634.146000", "163634.149000", "163634.152000", "163634.155000", "163634.158000", "163634.161000", "163634.163000", "163634.166000", "163634.169000", "163634.172000", "163634.175000", "163634.178000", "163634.181000", "163634.183000", "163634.186000", "163634.189000", "163634.192000", "163634.195000", "163634.198000", "163634.200000", "163714.145000", "163714.148000", "163714.151000", "163714.154000", "163714.157000", "163714.159000", "163714.162000", "163714.165000", "163714.168000", "163714.171000", "163714.174000", "163714.177000", "163714.179000", "163714.182000", "163714.185000", "163714.188000", "163714.191000", "163714.194000", "163714.197000", "163714.200000", "163714.202000", "163714.205000", "163714.208000", "163714.211000", "163714.214000", "163714.217000", "163714.220000", "163714.223000", "163714.226000", "163714.229000", "163714.232000", "163739.745000", "163739.748000", "163739.751000", "163739.754000", "163739.758000", "163739.761000", "163739.764000", "163739.767000", "163739.770000", "163739.773000", "163739.776000", "163739.779000", "163739.781000", "163739.784000", "163739.787000", "163739.790000", "163739.793000", "163739.796000"],
      "InstanceNumber": [1, 2, 3, 4, 5, 6, 7, 8, 9, 10, 11, 12, 13, 14, 15, 16, 17, 18, 19, 20, 21, 22, 23, 24, 25, 26, 27, 28, 29, 30, 31, 32, 33, 34, 35, 36, 37, 38, 39, 40, 41, 42, 43, 44, 45, 46, 47, 48, 49, 50, 51, 52, 53, 54, 55, 56, 57, 58, 59, 60, 61, 62, 63, 64, 65, 66, 67, 68, 69, 70, 71, 72, 73, 74, 75, 76, 77, 78, 79, 80, 81, 82, 83, 84, 85, 86, 87, 88, 89, 90, 91, 92, 93, 94, 95, 96, 97, 98, 99, 100, 101, 102, 103, 104, 105, 106, 107, 108, 109, 110, 111, 112, 113, 114, 115, 116, 117, 118, 119, 120, 121, 122, 123, 124, 125, 126, 127, 128, 129, 130, 131, 132, 133, 134, 135, 136, 137, 138, 139, 140, 141, 142, 143, 144],
      "LargestImagePixelValue": [54180, 52579, 52346, 52641, 52299, 51629, 51134, 51716, 52318, 52438, 52444, 51483, 51677, 51916, 51016, 50634, 51034, 50765, 51733, 52218, 50467, 50653, 51163, 50587, 50907, 50778, 50816, 50697, 50324, 51475, 50585, 50744, 51130, 50587, 51218, 50988, 52206, 51705, 51822, 51299, 49712, 51982, 50353, 51170, 51395, 50730, 50646, 50274, 50339, 49844, 50027, 49548, 50365, 49407, 49419, 48397, 49127, 48733, 47814, 48064, 47831, 48160, 47910, 47691, 47812, 48019, 48046, 48709, 50184, 50260, 48961, 48291, 48411, 47962, 47634, 47944, 48316, 48216, 48178, 48120, 48229, 48074, 48302, 48169, 48291, 47668, 48153, 48282, 48212, 47711, 47642, 47887, 47796, 48054, 48554, 48301, 47580, 48090, 47726, 48004, 48457, 48179, 48343, 47995, 48267, 47751, 48179, 47787, 47860, 47598, 48230, 48067, 48379, 47941, 47930, 48391, 47748, 48244, 47543, 47663, 48202, 47953, 47774, 47968, 47903, 47994, 47938, 47637, 48402, 46893, 50812, 48072, 49175, 48133, 47344, 47314, 47954, 47119, 50194, 48521, 48811, 48162, 48226, 47878],
      "WindowCenter": [10164.0, 10140.0, 10143.0, 10150.0, 10142.0, 10134.0, 10126.0, 10140.0, 10192.0, 10192.0, 10193.0, 10207.0, 10199.0, 10203.0, 10193.0, 10195.0, 10200.0, 10212.0, 10224.0, 10230.0, 10224.0, 10230.0, 10216.0, 10203.0, 10209.0, 10208.0, 10199.0, 10191.0, 10193.0, 10190.0, 10184.0, 10174.0, 10172.0, 10180.0, 10195.0, 10198.0, 10219.0, 10214.0, 10208.0, 10192.0, 10176.0, 10230.0, 10208.0, 10194.0, 10182.0, 10156.0, 10133.0, 10139.0, 10165.0, 10169.0, 10173.0, 10176.0, 10161.0, 10153.0, 10146.0, 10140.0, 10165.0, 10163.0, 10124.0, 10130.0, 10128.0, 10159.0, 10160.0, 10134.0, 10133.0, 10123.0, 10116.0, 10144.0, 10181.0, 10161.0, 10123.0, 10111.0, 10112.0, 10102.0, 10087.0, 10057.0, 10037.0, 10027.0, 10024.0, 10031.0, 10054.0, 10068.0, 10086.0, 10095.0, 10111.0, 10136.0, 10132.0, 10128.0, 10119.0, 10106.0, 10104.0, 10109.0, 10124.0, 10133.0, 10114.0, 10095.0, 10069.0, 10068.0, 10084.0, 10116.0, 10131.0, 10127.0, 10120.0, 10128.0, 10136.0, 10130.0, 10120.0, 10104.0, 10109.0, 10111.0, 10146.0, 10160.0, 10206.0, 10178.0, 10154.0, 10141.0, 10131.0, 10129.0, 10132.0, 10131.0, 10138.0, 10133.0, 10125.0, 10122.0, 10121.0, 10130.0, 10131.0, 10116.0, 10111.0, 10102.0, 10132.0, 10146.0, 10188.0, 10173.0, 10167.0, 10157.0, 10146.0, 10121.0, 10146.0, 10092.0, 10109.0, 10109.0, 10100.0, 10085.0],
      "WindowWidth": [21867.0, 21771.0, 21749.0, 21758.0, 21724.0, 21706.0, 21684.0, 21716.0, 21845.0, 21835.0, 21839.0, 21874.0, 21854.0, 21860.0, 21844.0, 21847.0, 21852.0, 21891.0, 21905.0, 21919.0, 21918.0, 21927.0, 21885.0, 21864.0, 21876.0, 21871.0, 21849.0, 21830.0, 21837.0, 21826.0, 21817.0, 21796.0, 21787.0, 21806.0, 21838.0, 21848.0, 21887.0, 21878.0, 21877.0, 21839.0, 21802.0, 21911.0, 21871.0, 21838.0, 21807.0, 21748.0, 21699.0, 21712.0, 21774.0, 21780.0, 21792.0, 21810.0, 21762.0, 21747.0, 21734.0, 21721.0, 21773.0, 21772.0, 21684.0, 21693.0, 21687.0, 21767.0, 21771.0, 21705.0, 21706.0, 21685.0, 21664.0, 21724.0, 21802.0, 21760.0, 21677.0, 21648.0, 21651.0, 21630.0, 21601.0, 21528.0, 21481.0, 21464.0, 21456.0, 21472.0, 21521.0, 21552.0, 21594.0, 21612.0, 21645.0, 21711.0, 21701.0, 21689.0, 21671.0, 21649.0, 21641.0, 21647.0, 21689.0, 21706.0, 21660.0, 21621.0, 21563.0, 21564.0, 21597.0, 21665.0, 21710.0, 21690.0, 21672.0, 21696.0, 21707.0, 21696.0, 21673.0, 21641.0, 21655.0, 21659.0, 21742.0, 21777.0, 21872.0, 21810.0, 21754.0, 21724.0, 21703.0, 21698.0, 21712.0, 21704.0, 21719.0, 21708.0, 21688.0, 21680.0, 21676.0, 21699.0, 21702.0, 21672.0, 21657.0, 21636.0, 21690.0, 21738.0, 21823.0, 21798.0, 21786.0, 21762.0, 21737.0, 21685.0, 21774.0, 21638.0, 21661.0, 21654.0, 21637.0, 21604.0]
    },
    "slices": {}
  }
}