{
  "AcquisitionMatrixPE": 104,
  "AcquisitionNumber": 1,
  "AcquisitionTime": "16:29:37.895000",
  "BandwidthPerPixelPhaseEncode": 17.17,
  "BaseResolution": 104,
  "BodyPartExamined": "BRAIN",
  "CoilString": "HC1-7;NC1_2",
  "ConsistencyInfo": "N4_VE11C_LATEST_20160120",
  "ConversionSoftware": "dcm2niix",
  "ConversionSoftwareVersion": "v1.0.20190720  (JP2:OpenJPEG) GCC7.3.0",
  "DerivedVendorReportedEchoSpacing": 0.000560011,
  "DeviceSerialNumber": "167006",
  "DwellTime": 2.1e-06,
  "EchoTime": 0.037,
  "EchoTrainLength": 104,
  "EffectiveEchoSpacing": 0.000560011,
  "FlipAngle": 52,
  "ImageComments": "Unaliased_MB4_PE3_LB",
  "ImageOrientationPatientDICOM": [0.999321, -0.0352833, -0.0106268, 0.0282627, 0.918951, -0.393359],
  "ImageType": [
    "ORIGINAL",
    "PRIMARY",
    "M",
    "MB",
    "ND",
    "MOSAIC"
],
  "ImagingFrequency": 123.26,
  "InPlanePhaseEncodingDirectionDICOM": "COL",
  "InstitutionAddress": "Chemin_Queen-Mary_4565_Montreal_District_CA_H3W_1W5",
  "InstitutionName": "IUGM",
  "InstitutionalDepartmentName": "Department",
  "MRAcquisitionType": "2D",
  "MagneticFieldStrength": 3,
  "Manufacturer": "Siemens",
  "ManufacturersModelName": "Prisma_fit",
  "Modality": "MR",
  "MultibandAccelerationFactor": 4,
  "PartialFourier": 1,
  "PatientPosition": "HFS",
  "PercentPhaseFOV": 100,
  "PhaseEncodingDirection": "j",
  "PhaseEncodingSteps": 104,
  "PhaseResolution": 1,
  "PixelBandwidth": 2290,
  "ProcedureStepDescription": "hcptrt_generic",
  "ProtocolName": "func_task-gambling_run-2",
  "PulseSequenceDetails": "%CustomerSeq%_cmrr_mbep2d_bold",
  "ReceiveCoilActiveElements": "HC1-7;NC1,2",
  "ReceiveCoilName": "HeadNeck_64",
  "ReconMatrixPE": 104,
  "RepetitionTime": 1.49,
  "SAR": 0.0381387,
  "ScanOptions": "FS",
  "ScanningSequence": "EP",
  "SequenceName": "epfid2d1_104",
  "SequenceVariant": "SK_SS",
  "SeriesDescription": "func_task-gambling_run-2",
  "SeriesNumber": 23,
  "ShimSetting": [611, -7258, -8859, 333, 27, -424, 28, 13],
  "SliceThickness": 2,
  "SliceTiming": [0, 0.785, 0.0975, 0.8825, 0.195, 0.98, 0.295, 1.0775, 0.3925, 1.175, 0.49, 1.275, 0.5875, 1.3725, 0.685, 0, 0.785, 0.0975, 0.8825, 0.195, 0.98, 0.295, 1.0775, 0.3925, 1.175, 0.49, 1.275, 0.5875, 1.3725, 0.685, 0, 0.785, 0.0975, 0.8825, 0.195, 0.98, 0.295, 1.0775, 0.3925, 1.175, 0.49, 1.275, 0.5875, 1.3725, 0.685, 0, 0.785, 0.0975, 0.8825, 0.195, 0.98, 0.295, 1.0775, 0.3925, 1.175, 0.49, 1.275, 0.5875, 1.3725, 0.685],
  "SoftwareVersions": "syngo_MR_E11",
  "SpacingBetweenSlices": 2,
  "StationName": "MRC35049",
  "TaskName": "gambling",
  "TotalReadoutTime": 0.0576811,
  "TxRefAmp": 241.686,
  "WipMemBlock": "5ec9cf87-4c47-4626-8834-afd33c4b8cee||Sequence: R016 ve11c/master r/e634e98; Dec 19 2017 11:00:25 by eja",
  "dcmmeta_affine": [
    [-1.9986417293548584, 0.05652531981468201, -0.047289006412029266, 102.58391571044922],
    [0.07056660950183868, 1.8379011154174805, -0.785582423210144, -63.15861892700195],
    [-0.021253611892461777, 0.7867173552513123, 1.8386473655700684, -71.0588150024414],
    [0.0, 0.0, 0.0, 1.0]
],
  "dcmmeta_reorient_transform": [
    [0.0, -1.0, 0.0, 103.0],
    [1.0, 0.0, 0.0, 0.0],
    [0.0, 0.0, 1.0, 0.0],
    [0.0, 0.0, 0.0, 1.0]
],
  "dcmmeta_shape": [104, 104, 60, 129],
  "dcmmeta_slice_dim": 2,
  "dcmmeta_version": 0.6,
  "global": {
    "const": {
      "AcquisitionMatrix": [104, 0, 0, 104],
      "AngioFlag": "N",
      "BitsAllocated": 16,
      "BitsStored": 16,
      "BodyPartExamined": "BRAIN",
      "Columns": 832,
      "EchoNumbers": 1,
      "EchoTime": 37.0,
      "EchoTrainLength": 104,
      "FlipAngle": 52.0,
      "HighBit": 15,
      "ImageOrientationPatient": [0.99932084913568, -0.0352833032231, -0.0106268055596, 0.02826266015189, 0.91895057702139, -0.3933586900441],
      "ImagePositionPatient": [-856.48682001065, -769.4549767318, 304.07451617409],
      "ImageType": [
        "ORIGINAL",
        "PRIMARY",
        "M",
        "MB",
        "ND",
        "MOSAIC"
],
      "ImagedNucleus": "1H",
      "ImagingFrequency": 123.259603,
      "InPlanePhaseEncodingDirection": "COL",
      "MRAcquisitionType": "2D",
      "MagneticFieldStrength": 3.0,
      "Manufacturer": "SIEMENS",
      "ManufacturerModelName": "Prisma_fit",
      "Modality": "MR",
      "NumberOfAverages": 1.0,
      "NumberOfPhaseEncodingSteps": 104,
      "PercentPhaseFieldOfView": 100.0,
      "PercentSampling": 100.0,
      "PerformedProcedureStepStartTime": "154530.172000",
      "PhotometricInterpretation": "MONOCHROME2",
      "PixelBandwidth": 2290.0,
      "PixelRepresentation": 0,
      "PixelSpacing": [2.0, 2.0],
      "ProtocolName": "func_task-gambling_run-2",
      "RepetitionTime": 1490.0,
      "Rows": 832,
      "SAR": 0.03813868755477,
      "SamplesPerPixel": 1,
      "ScanOptions": "FS",
      "ScanningSequence": "EP",
      "SequenceName": "epfid2d1_104",
      "SequenceVariant": [
        "SK",
        "SS"
],
      "SeriesDescription": "func_task-gambling_run-2",
      "SeriesNumber": 23,
      "SeriesTime": "163058.228000",
      "SliceLocation": -42.943447156582,
      "SliceThickness": 2.0,
      "SmallestImagePixelValue": 0,
      "SoftwareVersions": "syngo MR E11",
      "SpacingBetweenSlices": 2.0000000608683,
      "SpecificCharacterSet": "ISO_IR 100",
      "StudyID": "1",
      "StudyTime": "154530.095000",
      "TransmitCoilName": "Body",
      "VariableFlipAngleFlag": "N",
      "WindowCenterWidthExplanation": "Algo1",
      "dBdt": 0.0},
    "slices": {}
  },
  "time": {
    "samples": {
      "AcquisitionNumber": [1, 2, 3, 4, 5, 6, 7, 8, 9, 10, 11, 12, 13, 14, 15, 16, 17, 18, 19, 20, 21, 22, 23, 24, 25, 26, 27, 28, 29, 30, 31, 32, 33, 34, 35, 36, 37, 38, 39, 40, 41, 42, 43, 44, 45, 46, 47, 48, 49, 50, 51, 52, 53, 54, 55, 56, 57, 58, 59, 60, 61, 62, 63, 64, 65, 66, 67, 68, 69, 70, 71, 72, 73, 74, 75, 76, 77, 78, 79, 80, 81, 82, 83, 84, 85, 86, 87, 88, 89, 90, 91, 92, 93, 94, 95, 96, 97, 98, 99, 100, 101, 102, 103, 104, 105, 106, 107, 108, 109, 110, 111, 112, 113, 114, 115, 116, 117, 118, 119, 120, 121, 122, 123, 124, 125, 126, 127, 128, 129],
      "AcquisitionTime": ["162937.895000", "162939.385000", "162940.875000", "162942.365000", "162943.855000", "162945.345000", "162946.835000", "162948.325000", "162949.815000", "162951.305000", "162952.795000", "162954.285000", "162955.775000", "162957.265000", "162958.755000", "163000.245000", "163001.735000", "163003.225000", "163004.715000", "163006.205000", "163007.695000", "163009.185000", "163010.675000", "163012.165000", "163013.655000", "163015.145000", "163016.635000", "163018.125000", "163019.615000", "163021.105000", "163022.595000", "163024.085000", "163025.575000", "163027.065000", "163028.555000", "163030.045000", "163031.535000", "163033.025000", "163034.515000", "163036.005000", "163037.495000", "163038.985000", "163040.475000", "163041.965000", "163043.455000", "163044.945000", "163046.435000", "163047.925000", "163049.415000", "163050.905000", "163052.395000", "163053.885000", "163055.375000", "163056.865000", "163058.355000", "163059.845000", "163101.335000", "163102.825000", "163104.315000", "163105.805000", "163107.295000", "163108.785000", "163110.275000", "163111.765000", "163113.255000", "163114.745000", "163116.235000", "163117.725000", "163119.215000", "163120.705000", "163122.195000", "163123.685000", "163125.175000", "163126.665000", "163128.155000", "163129.645000", "163131.135000", "163132.625000", "163134.115000", "163135.605000", "163137.095000", "163138.585000", "163140.075000", "163141.565000", "163143.055000", "163144.545000", "163146.035000", "163147.525000", "163149.015000", "163150.505000", "163151.995000", "163153.485000", "163154.975000", "163156.465000", "163157.955000", "163159.445000", "163200.935000", "163202.425000", "163203.915000", "163205.405000", "163206.895000", "163208.385000", "163209.875000", "163211.365000", "163212.855000", "163214.345000", "163215.835000", "163217.325000", "163218.815000", "163220.305000", "163221.795000", "163223.285000", "163224.775000", "163226.265000", "163227.755000", "163229.245000", "163230.735000", "163232.225000", "163233.715000", "163235.205000", "163236.695000", "163238.185000", "163239.675000", "163241.165000", "163242.655000", "163244.145000", "163245.635000", "163247.125000", "163248.615000"],
      "ContentTime": ["163058.231000", "163058.234000", "163058.237000", "163058.240000", "163058.249000", "163058.252000", "163058.255000", "163058.258000", "163058.261000", "163058.264000", "163058.266000", "163058.269000", "163058.272000", "163058.275000", "163058.278000", "163058.281000", "163058.283000", "163058.289000", "163058.292000", "163058.295000", "163058.298000", "163058.301000", "163058.303000", "163058.306000", "163058.309000", "163058.312000", "163118.194000", "163118.197000", "163118.200000", "163118.203000", "163118.205000", "163118.208000", "163118.211000", "163118.214000", "163118.217000", "163118.219000", "163118.222000", "163118.225000", "163118.228000", "163118.231000", "163118.234000", "163118.237000", "163118.239000", "163118.242000", "163118.245000", "163118.248000", "163138.194000", "163138.197000", "163138.200000", "163138.202000", "163138.205000", "163138.208000", "163138.211000", "163138.214000", "163138.217000", "163138.219000", "163138.222000", "163138.225000", "163138.228000", "163138.231000", "163138.234000", "163138.236000", "163138.239000", "163138.242000", "163138.245000", "163138.255000", "163158.194000", "163158.197000", "163158.200000", "163158.202000", "163158.205000", "163158.208000", "163158.211000", "163158.214000", "163158.217000", "163158.220000", "163158.222000", "163158.225000", "163158.228000", "163158.231000", "163158.234000", "163158.237000", "163158.239000", "163158.242000", "163158.245000", "163158.248000", "163158.251000", "163218.193000", "163218.196000", "163218.199000", "163218.202000", "163218.220000", "163218.222000", "163218.225000", "163218.228000", "163218.231000", "163218.234000", "163218.242000", "163218.245000", "163218.248000", "163218.251000", "163218.254000", "163218.257000", "163218.260000", "163218.263000", "163218.265000", "163218.268000", "163250.880000", "163250.884000", "163250.887000", "163250.890000", "163250.892000", "163250.895000", "163250.898000", "163250.901000", "163250.904000", "163250.907000", "163250.910000", "163250.913000", "163250.915000", "163250.919000", "163250.921000", "163250.924000", "163250.927000", "163250.930000", "163250.933000", "163250.937000", "163250.943000", "163250.946000"],
      "InstanceCreationTime": ["163058.231000", "163058.234000", "163058.237000", "163058.240000", "163058.249000", "163058.252000", "163058.255000", "163058.258000", "163058.261000", "163058.264000", "163058.266000", "163058.269000", "163058.272000", "163058.275000", "163058.278000", "163058.281000", "163058.283000", "163058.289000", "163058.292000", "163058.295000", "163058.298000", "163058.301000", "163058.303000", "163058.306000", "163058.309000", "163058.312000", "163118.194000", "163118.197000", "163118.200000", "163118.203000", "163118.205000", "163118.208000", "163118.211000", "163118.214000", "163118.217000", "163118.219000", "163118.222000", "163118.225000", "163118.228000", "163118.231000", "163118.234000", "163118.237000", "163118.239000", "163118.242000", "163118.245000", "163118.248000", "163138.194000", "163138.197000", "163138.200000", "163138.202000", "163138.205000", "163138.208000", "163138.211000", "163138.214000", "163138.217000", "163138.219000", "163138.222000", "163138.225000", "163138.228000", "163138.231000", "163138.234000", "163138.236000", "163138.239000", "163138.242000", "163138.245000", "163138.255000", "163158.194000", "163158.197000", "163158.200000", "163158.202000", "163158.205000", "163158.208000", "163158.211000", "163158.214000", "163158.217000", "163158.220000", "163158.222000", "163158.225000", "163158.228000", "163158.231000", "163158.234000", "163158.237000", "163158.239000", "163158.242000", "163158.245000", "163158.248000", "163158.251000", "163218.193000", "163218.196000", "163218.199000", "163218.202000", "163218.220000", "163218.222000", "163218.225000", "163218.228000", "163218.231000", "163218.234000", "163218.242000", "163218.245000", "163218.248000", "163218.251000", "163218.254000", "163218.257000", "163218.260000", "163218.263000", "163218.265000", "163218.268000", "163250.880000", "163250.884000", "163250.887000", "163250.890000", "163250.892000", "163250.895000", "163250.898000", "163250.901000", "163250.904000", "163250.907000", "163250.910000", "163250.913000", "163250.915000", "163250.919000", "163250.921000", "163250.924000", "163250.927000", "163250.930000", "163250.933000", "163250.937000", "163250.943000", "163250.946000"],
      "InstanceNumber": [1, 2, 3, 4, 5, 6, 7, 8, 9, 10, 11, 12, 13, 14, 15, 16, 17, 18, 19, 20, 21, 22, 23, 24, 25, 26, 27, 28, 29, 30, 31, 32, 33, 34, 35, 36, 37, 38, 39, 40, 41, 42, 43, 44, 45, 46, 47, 48, 49, 50, 51, 52, 53, 54, 55, 56, 57, 58, 59, 60, 61, 62, 63, 64, 65, 66, 67, 68, 69, 70, 71, 72, 73, 74, 75, 76, 77, 78, 79, 80, 81, 82, 83, 84, 85, 86, 87, 88, 89, 90, 91, 92, 93, 94, 95, 96, 97, 98, 99, 100, 101, 102, 103, 104, 105, 106, 107, 108, 109, 110, 111, 112, 113, 114, 115, 116, 117, 118, 119, 120, 121, 122, 123, 124, 125, 126, 127, 128, 129],
      "LargestImagePixelValue": [58053, 56877, 56272, 55275, 55344, 53676, 54741, 54604, 54373, 54516, 54366, 54647, 54423, 53529, 56069, 54295, 54521, 53639, 53675, 53801, 53799, 53379, 54070, 53359, 53649, 53245, 54143, 54748, 53917, 53087, 53285, 53386, 52240, 53246, 52788, 52997, 53313, 53191, 53548, 53297, 52809, 52915, 53370, 52846, 53088, 52682, 53254, 52871, 53059, 52686, 53004, 53149, 52693, 53470, 52683, 53192, 52404, 52832, 53279, 53409, 53566, 54231, 54624, 53951, 54586, 54618, 54560, 54205, 54003, 53691, 54424, 54535, 54247, 54755, 54517, 54174, 54251, 54098, 54314, 53944, 54150, 54028, 54009, 53876, 54198, 53735, 54177, 53337, 53801, 53329, 53626, 53990, 53597, 53584, 53314, 53574, 53343, 53572, 53007, 53129, 53405, 53011, 53344, 53011, 53399, 53571, 53202, 53435, 53234, 53069, 53276, 53791, 53513, 53244, 53308, 53262, 53811, 53536, 53797, 53907, 53606, 54062, 54069, 53835, 54598, 53829, 54521, 54427, 53617],
      "WindowCenter": [10281.0, 10229.0, 10205.0, 10206.0, 10213.0, 10206.0, 10216.0, 10214.0, 10217.0, 10223.0, 10225.0, 10230.0, 10218.0, 10189.0, 10245.0, 10224.0, 10231.0, 10234.0, 10235.0, 10227.0, 10227.0, 10227.0, 10226.0, 10221.0, 10227.0, 10222.0, 10217.0, 10217.0, 10219.0, 10228.0, 10236.0, 10223.0, 10211.0, 10196.0, 10187.0, 10192.0, 10201.0, 10201.0, 10193.0, 10188.0, 10175.0, 10174.0, 10186.0, 10185.0, 10207.0, 10210.0, 10201.0, 10192.0, 10188.0, 10184.0, 10197.0, 10198.0, 10200.0, 10204.0, 10199.0, 10197.0, 10193.0, 10192.0, 10198.0, 10152.0, 10215.0, 10213.0, 10212.0, 10195.0, 10191.0, 10190.0, 10196.0, 10201.0, 10210.0, 10206.0, 10202.0, 10193.0, 10192.0, 10198.0, 10199.0, 10200.0, 10199.0, 10193.0, 10188.0, 10184.0, 10192.0, 10208.0, 10210.0, 10210.0, 10193.0, 10190.0, 10197.0, 10200.0, 10201.0, 10201.0, 10199.0, 10192.0, 10185.0, 10190.0, 10200.0, 10208.0, 10210.0, 10209.0, 10203.0, 10205.0, 10208.0, 10217.0, 10219.0, 10203.0, 10192.0, 10189.0, 10187.0, 10192.0, 10192.0, 10185.0, 10181.0, 10180.0, 10174.0, 10182.0, 10190.0, 10192.0, 10189.0, 10184.0, 10188.0, 10183.0, 10190.0, 10194.0, 10196.0, 10242.0, 10292.0, 10266.0, 10265.0, 10244.0, 10222.0],
      "WindowWidth": [22114.0, 21961.0, 21884.0, 21882.0, 21888.0, 21878.0, 21886.0, 21875.0, 21884.0, 21897.0, 21902.0, 21913.0, 21892.0, 21820.0, 21951.0, 21901.0, 21914.0, 21924.0, 21928.0, 21910.0, 21912.0, 21913.0, 21906.0, 21898.0, 21910.0, 21898.0, 21887.0, 21932.0, 21899.0, 21915.0, 21932.0, 21906.0, 21889.0, 21846.0, 21823.0, 21832.0, 21853.0, 21853.0, 21836.0, 21822.0, 21796.0, 21796.0, 21815.0, 21819.0, 21865.0, 21873.0, 21855.0, 21834.0, 21822.0, 21816.0, 21844.0, 21845.0, 21852.0, 21858.0, 21852.0, 21844.0, 21837.0, 21835.0, 21849.0, 21747.0, 21883.0, 21875.0, 21874.0, 21837.0, 21823.0, 21818.0, 21829.0, 21846.0, 21868.0, 21861.0, 21852.0, 21829.0, 21825.0, 21835.0, 21840.0, 21844.0, 21839.0, 21833.0, 21815.0, 21808.0, 21825.0, 21862.0, 21863.0, 21865.0, 21828.0, 21821.0, 21834.0, 21845.0, 21848.0, 21852.0, 21845.0, 21831.0, 21815.0, 21823.0, 21844.0, 21862.0, 21869.0, 21866.0, 21854.0, 21863.0, 21862.0, 21882.0, 21890.0, 21854.0, 21827.0, 21816.0, 21817.0, 21824.0, 21827.0, 21810.0, 21800.0, 21796.0, 21785.0, 21804.0, 21821.0, 21830.0, 21817.0, 21808.0, 21814.0, 21808.0, 21824.0, 21827.0, 21835.0, 21955.0, 22069.0, 22007.0, 22001.0, 21950.0, 21901.0]
    },
    "slices": {}
  }
}