{
  "AcquisitionMatrixPE": 104,
  "AcquisitionNumber": 1,
  "AcquisitionTime": "16:20:8.377500",
  "BandwidthPerPixelPhaseEncode": 17.17,
  "BaseResolution": 104,
  "BodyPartExamined": "BRAIN",
  "CoilString": "HC1-7;NC1_2",
  "ConsistencyInfo": "N4_VE11C_LATEST_20160120",
  "ConversionSoftware": "dcm2niix",
  "ConversionSoftwareVersion": "v1.0.20190720  (JP2:OpenJPEG) GCC7.3.0",
  "DerivedVendorReportedEchoSpacing": 0.000560011,
  "DeviceSerialNumber": "167006",
  "DwellTime": 2.1e-06,
  "EchoTime": 0.037,
  "EchoTrainLength": 104,
  "EffectiveEchoSpacing": 0.000560011,
  "FlipAngle": 52,
  "ImageComments": "Unaliased_MB4_PE3_LB",
  "ImageOrientationPatientDICOM": [0.999321, -0.0352833, -0.0106268, 0.0282627, 0.918951, -0.393359],
  "ImageType": [
    "ORIGINAL",
    "PRIMARY",
    "M",
    "MB",
    "ND",
    "MOSAIC"
],
  "ImagingFrequency": 123.26,
  "InPlanePhaseEncodingDirectionDICOM": "COL",
  "InstitutionAddress": "Chemin_Queen-Mary_4565_Montreal_District_CA_H3W_1W5",
  "InstitutionName": "IUGM",
  "InstitutionalDepartmentName": "Department",
  "MRAcquisitionType": "2D",
  "MagneticFieldStrength": 3,
  "Manufacturer": "Siemens",
  "ManufacturersModelName": "Prisma_fit",
  "Modality": "MR",
  "MultibandAccelerationFactor": 4,
  "PartialFourier": 1,
  "PatientPosition": "HFS",
  "PercentPhaseFOV": 100,
  "PhaseEncodingDirection": "j",
  "PhaseEncodingSteps": 104,
  "PhaseResolution": 1,
  "PixelBandwidth": 2290,
  "ProcedureStepDescription": "hcptrt_generic",
  "ProtocolName": "func_task-motor_run-1",
  "PulseSequenceDetails": "%CustomerSeq%_cmrr_mbep2d_bold",
  "ReceiveCoilActiveElements": "HC1-7;NC1,2",
  "ReceiveCoilName": "HeadNeck_64",
  "ReconMatrixPE": 104,
  "RepetitionTime": 1.49,
  "SAR": 0.038196,
  "ScanOptions": "FS",
  "ScanningSequence": "EP",
  "SequenceName": "epfid2d1_104",
  "SequenceVariant": "SK_SS",
  "SeriesDescription": "func_task-motor_run-1",
  "SeriesNumber": 17,
  "ShimSetting": [611, -7258, -8859, 333, 27, -424, 28, 13],
  "SliceThickness": 2,
  "SliceTiming": [0, 0.7825, 0.0975, 0.88, 0.195, 0.9775, 0.2925, 1.0775, 0.39, 1.175, 0.49, 1.2725, 0.5875, 1.37, 0.685, 0, 0.7825, 0.0975, 0.88, 0.195, 0.9775, 0.2925, 1.0775, 0.39, 1.175, 0.49, 1.2725, 0.5875, 1.37, 0.685, 0, 0.7825, 0.0975, 0.88, 0.195, 0.9775, 0.2925, 1.0775, 0.39, 1.175, 0.49, 1.2725, 0.5875, 1.37, 0.685, 0, 0.7825, 0.0975, 0.88, 0.195, 0.9775, 0.2925, 1.0775, 0.39, 1.175, 0.49, 1.2725, 0.5875, 1.37, 0.685],
  "SoftwareVersions": "syngo_MR_E11",
  "SpacingBetweenSlices": 2,
  "StationName": "MRC35049",
  "TaskName": "motor",
  "TotalReadoutTime": 0.0576811,
  "TxRefAmp": 241.686,
  "WipMemBlock": "8ed9f261-dfac-4d64-9c42-08a9db70d43f||Sequence: R016 ve11c/master r/e634e98; Dec 19 2017 11:00:25 by eja",
  "dcmmeta_affine": [
    [-1.9986417293548584, 0.05652531981468201, -0.047289006412029266, 102.58391571044922],
    [0.07056660950183868, 1.8379011154174805, -0.785582423210144, -63.15861892700195],
    [-0.021253611892461777, 0.7867173552513123, 1.8386473655700684, -71.0588150024414],
    [0.0, 0.0, 0.0, 1.0]
],
  "dcmmeta_reorient_transform": [
    [0.0, -1.0, 0.0, 103.0],
    [1.0, 0.0, 0.0, 0.0],
    [0.0, 0.0, 1.0, 0.0],
    [0.0, 0.0, 0.0, 1.0]
],
  "dcmmeta_shape": [104, 104, 60, 144],
  "dcmmeta_slice_dim": 2,
  "dcmmeta_version": 0.6,
  "global": {
    "const": {
      "AcquisitionMatrix": [104, 0, 0, 104],
      "AngioFlag": "N",
      "BitsAllocated": 16,
      "BitsStored": 16,
      "BodyPartExamined": "BRAIN",
      "Columns": 832,
      "EchoNumbers": 1,
      "EchoTime": 37.0,
      "EchoTrainLength": 104,
      "FlipAngle": 52.0,
      "HighBit": 15,
      "ImageOrientationPatient": [0.99932084913568, -0.0352833032231, -0.0106268055596, 0.02826266015189, 0.91895057702139, -0.3933586900441],
      "ImagePositionPatient": [-856.48682001065, -769.4549767318, 304.07451617409],
      "ImageType": [
        "ORIGINAL",
        "PRIMARY",
        "M",
        "MB",
        "ND",
        "MOSAIC"
],
      "ImagedNucleus": "1H",
      "ImagingFrequency": 123.259609,
      "InPlanePhaseEncodingDirection": "COL",
      "MRAcquisitionType": "2D",
      "MagneticFieldStrength": 3.0,
      "Manufacturer": "SIEMENS",
      "ManufacturerModelName": "Prisma_fit",
      "Modality": "MR",
      "NumberOfAverages": 1.0,
      "NumberOfPhaseEncodingSteps": 104,
      "PercentPhaseFieldOfView": 100.0,
      "PercentSampling": 100.0,
      "PerformedProcedureStepStartTime": "154530.172000",
      "PhotometricInterpretation": "MONOCHROME2",
      "PixelBandwidth": 2290.0,
      "PixelRepresentation": 0,
      "PixelSpacing": [2.0, 2.0],
      "ProtocolName": "func_task-motor_run-1",
      "RepetitionTime": 1490.0,
      "Rows": 832,
      "SAR": 0.03819598614212,
      "SamplesPerPixel": 1,
      "ScanOptions": "FS",
      "ScanningSequence": "EP",
      "SequenceName": "epfid2d1_104",
      "SequenceVariant": [
        "SK",
        "SS"
],
      "SeriesDescription": "func_task-motor_run-1",
      "SeriesNumber": 17,
      "SeriesTime": "162118.231000",
      "SliceLocation": -42.943447156582,
      "SliceThickness": 2.0,
      "SmallestImagePixelValue": 0,
      "SoftwareVersions": "syngo MR E11",
      "SpacingBetweenSlices": 2.0000000608683,
      "SpecificCharacterSet": "ISO_IR 100",
      "StudyID": "1",
      "StudyTime": "154530.095000",
      "TransmitCoilName": "Body",
      "VariableFlipAngleFlag": "N",
      "WindowCenterWidthExplanation": "Algo1",
      "dBdt": 0.0},
    "slices": {}
  },
  "time": {
    "samples": {
      "AcquisitionNumber": [1, 2, 3, 4, 5, 6, 7, 8, 9, 10, 11, 12, 13, 14, 15, 16, 17, 18, 19, 20, 21, 22, 23, 24, 25, 26, 27, 28, 29, 30, 31, 32, 33, 34, 35, 36, 37, 38, 39, 40, 41, 42, 43, 44, 45, 46, 47, 48, 49, 50, 51, 52, 53, 54, 55, 56, 57, 58, 59, 60, 61, 62, 63, 64, 65, 66, 67, 68, 69, 70, 71, 72, 73, 74, 75, 76, 77, 78, 79, 80, 81, 82, 83, 84, 85, 86, 87, 88, 89, 90, 91, 92, 93, 94, 95, 96, 97, 98, 99, 100, 101, 102, 103, 104, 105, 106, 107, 108, 109, 110, 111, 112, 113, 114, 115, 116, 117, 118, 119, 120, 121, 122, 123, 124, 125, 126, 127, 128, 129, 130, 131, 132, 133, 134, 135, 136, 137, 138, 139, 140, 141, 142, 143, 144],
      "AcquisitionTime": ["162008.377500", "162009.867500", "162011.357500", "162012.847500", "162014.337500", "162015.827500", "162017.317500", "162018.807500", "162020.297500", "162021.787500", "162023.277500", "162024.767500", "162026.257500", "162027.747500", "162029.237500", "162030.727500", "162032.217500", "162033.707500", "162035.197500", "162036.687500", "162038.177500", "162039.667500", "162041.157500", "162042.647500", "162044.137500", "162045.627500", "162047.117500", "162048.607500", "162050.097500", "162051.587500", "162053.077500", "162054.567500", "162056.057500", "162057.547500", "162059.037500", "162100.527500", "162102.017500", "162103.507500", "162104.997500", "162106.487500", "162107.977500", "162109.467500", "162110.957500", "162112.447500", "162113.937500", "162115.427500", "162116.917500", "162118.407500", "162119.897500", "162121.387500", "162122.877500", "162124.367500", "162125.857500", "162127.347500", "162128.837500", "162130.327500", "162131.817500", "162133.307500", "162134.797500", "162136.287500", "162137.777500", "162139.267500", "162140.757500", "162142.247500", "162143.737500", "162145.227500", "162146.717500", "162148.207500", "162149.697500", "162151.187500", "162152.677500", "162154.167500", "162155.657500", "162157.147500", "162158.637500", "162200.127500", "162201.617500", "162203.107500", "162204.597500", "162206.087500", "162207.577500", "162209.067500", "162210.557500", "162212.047500", "162213.537500", "162215.027500", "162216.517500", "162218.007500", "162219.497500", "162220.987500", "162222.477500", "162223.967500", "162225.457500", "162226.947500", "162228.437500", "162229.927500", "162231.417500", "162232.907500", "162234.397500", "162235.887500", "162237.377500", "162238.867500", "162240.357500", "162241.847500", "162243.337500", "162244.827500", "162246.317500", "162247.807500", "162249.297500", "162250.787500", "162252.277500", "162253.767500", "162255.257500", "162256.747500", "162258.237500", "162259.727500", "162301.217500", "162302.707500", "162304.197500", "162305.687500", "162307.177500", "162308.667500", "162310.157500", "162311.647500", "162313.137500", "162314.627500", "162316.117500", "162317.607500", "162319.097500", "162320.587500", "162322.077500", "162323.567500", "162325.057500", "162326.547500", "162328.037500", "162329.527500", "162331.017500", "162332.507500", "162333.997500", "162335.487500", "162336.977500", "162338.467500", "162339.957500", "162341.447500"],
      "ContentTime": ["162118.234000", "162118.237000", "162118.240000", "162118.243000", "162118.246000", "162118.249000", "162118.251000", "162118.254000", "162118.260000", "162118.263000", "162118.271000", "162118.274000", "162118.277000", "162118.280000", "162118.283000", "162138.194000", "162138.197000", "162138.200000", "162138.202000", "162138.205000", "162138.220000", "162138.222000", "162138.225000", "162138.228000", "162138.231000", "162138.234000", "162138.236000", "162138.239000", "162138.242000", "162138.245000", "162138.248000", "162138.251000", "162138.254000", "162138.257000", "162138.259000", "162158.194000", "162158.197000", "162158.199000", "162158.202000", "162158.205000", "162158.208000", "162158.211000", "162158.214000", "162158.217000", "162158.219000", "162158.222000", "162158.225000", "162158.228000", "162158.231000", "162158.233000", "162158.236000", "162158.239000", "162158.242000", "162158.245000", "162158.248000", "162158.253000", "162218.194000", "162218.197000", "162218.200000", "162218.202000", "162218.205000", "162218.208000", "162218.211000", "162218.214000", "162218.217000", "162218.220000", "162218.223000", "162218.225000", "162218.228000", "162218.231000", "162218.234000", "162218.237000", "162218.239000", "162218.242000", "162218.245000", "162218.248000", "162238.194000", "162238.197000", "162238.200000", "162238.203000", "162238.205000", "162238.208000", "162238.211000", "162238.214000", "162238.217000", "162238.219000", "162238.223000", "162238.225000", "162238.228000", "162238.231000", "162238.234000", "162238.237000", "162238.239000", "162238.242000", "162238.245000", "162238.248000", "162318.193000", "162318.196000", "162318.199000", "162318.201000", "162318.204000", "162318.207000", "162318.210000", "162318.213000", "162318.221000", "162318.229000", "162318.232000", "162318.235000", "162318.238000", "162318.241000", "162318.243000", "162318.246000", "162318.249000", "162318.252000", "162318.255000", "162318.257000", "162318.260000", "162318.263000", "162318.266000", "162318.269000", "162318.272000", "162318.275000", "162318.277000", "162318.280000", "162318.283000", "162318.286000", "162318.289000", "162343.437000", "162343.440000", "162343.443000", "162343.446000", "162343.449000", "162343.452000", "162343.455000", "162343.458000", "162343.461000", "162343.463000", "162343.466000", "162343.469000", "162343.472000", "162343.475000", "162343.478000", "162343.481000", "162343.484000"],
      "InstanceCreationTime": ["162118.234000", "162118.237000", "162118.240000", "162118.243000", "162118.246000", "162118.249000", "162118.251000", "162118.254000", "162118.260000", "162118.263000", "162118.271000", "162118.274000", "162118.277000", "162118.280000", "162118.283000", "162138.194000", "162138.197000", "162138.200000", "162138.202000", "162138.205000", "162138.220000", "162138.222000", "162138.225000", "162138.228000", "162138.231000", "162138.234000", "162138.236000", "162138.239000", "162138.242000", "162138.245000", "162138.248000", "162138.251000", "162138.254000", "162138.257000", "162138.259000", "162158.194000", "162158.197000", "162158.199000", "162158.202000", "162158.205000", "162158.208000", "162158.211000", "162158.214000", "162158.217000", "162158.219000", "162158.222000", "162158.225000", "162158.228000", "162158.231000", "162158.233000", "162158.236000", "162158.239000", "162158.242000", "162158.245000", "162158.248000", "162158.253000", "162218.194000", "162218.197000", "162218.200000", "162218.202000", "162218.205000", "162218.208000", "162218.211000", "162218.214000", "162218.217000", "162218.220000", "162218.223000", "162218.225000", "162218.228000", "162218.231000", "162218.234000", "162218.237000", "162218.239000", "162218.242000", "162218.245000", "162218.248000", "162238.194000", "162238.197000", "162238.200000", "162238.203000", "162238.205000", "162238.208000", "162238.211000", "162238.214000", "162238.217000", "162238.219000", "162238.223000", "162238.225000", "162238.228000", "162238.231000", "162238.234000", "162238.237000", "162238.239000", "162238.242000", "162238.245000", "162238.248000", "162318.193000", "162318.196000", "162318.199000", "162318.201000", "162318.204000", "162318.207000", "162318.210000", "162318.213000", "162318.221000", "162318.229000", "162318.232000", "162318.235000", "162318.238000", "162318.241000", "162318.243000", "162318.246000", "162318.249000", "162318.252000", "162318.255000", "162318.257000", "162318.260000", "162318.263000", "162318.266000", "162318.269000", "162318.272000", "162318.275000", "162318.277000", "162318.280000", "162318.283000", "162318.286000", "162318.289000", "162343.437000", "162343.440000", "162343.443000", "162343.446000", "162343.449000", "162343.452000", "162343.455000", "162343.458000", "162343.461000", "162343.463000", "162343.466000", "162343.469000", "162343.472000", "162343.475000", "162343.478000", "162343.481000", "162343.484000"],
      "InstanceNumber": [1, 2, 3, 4, 5, 6, 7, 8, 9, 10, 11, 12, 13, 14, 15, 16, 17, 18, 19, 20, 21, 22, 23, 24, 25, 26, 27, 28, 29, 30, 31, 32, 33, 34, 35, 36, 37, 38, 39, 40, 41, 42, 43, 44, 45, 46, 47, 48, 49, 50, 51, 52, 53, 54, 55, 56, 57, 58, 59, 60, 61, 62, 63, 64, 65, 66, 67, 68, 69, 70, 71, 72, 73, 74, 75, 76, 77, 78, 79, 80, 81, 82, 83, 84, 85, 86, 87, 88, 89, 90, 91, 92, 93, 94, 95, 96, 97, 98, 99, 100, 101, 102, 103, 104, 105, 106, 107, 108, 109, 110, 111, 112, 113, 114, 115, 116, 117, 118, 119, 120, 121, 122, 123, 124, 125, 126, 127, 128, 129, 130, 131, 132, 133, 134, 135, 136, 137, 138, 139, 140, 141, 142, 143, 144],
      "LargestImagePixelValue": [55241, 53778, 53166, 52488, 52577, 52865, 52286, 51807, 52777, 52503, 52627, 52259, 52423, 52914, 52420, 52327, 52108, 52083, 51945, 52664, 52700, 52095, 52694, 51959, 51987, 52477, 51890, 52073, 51936, 52630, 52205, 52092, 52387, 51827, 51914, 51634, 52831, 52187, 52237, 52376, 51821, 52112, 52015, 52163, 51892, 52239, 51679, 51991, 52389, 52072, 51318, 52302, 52027, 52242, 52068, 52373, 52233, 52429, 53282, 52293, 52139, 52099, 52132, 51659, 52061, 51591, 52080, 51469, 50646, 51500, 52098, 51247, 51524, 50851, 50905, 51737, 50706, 51233, 51614, 51027, 51443, 50778, 51146, 50724, 51539, 51402, 51442, 52024, 52013, 52689, 51772, 52252, 52371, 52135, 52467, 52223, 52388, 51244, 52029, 51967, 51481, 51952, 51057, 52068, 51412, 51636, 52748, 51899, 51516, 51753, 51619, 51637, 51693, 51212, 51588, 51709, 52030, 51346, 52001, 52301, 51723, 51614, 51851, 51916, 51303, 51514, 50927, 51566, 50786, 51390, 50784, 50990, 50894, 50865, 49788, 50735, 50656, 51073, 50328, 50319, 50856, 50752, 50813, 50706],
      "WindowCenter": [10330.0, 10282.0, 10251.0, 10224.0, 10218.0, 10200.0, 10204.0, 10193.0, 10230.0, 10234.0, 10233.0, 10242.0, 10255.0, 10261.0, 10244.0, 10235.0, 10220.0, 10227.0, 10223.0, 10219.0, 10213.0, 10197.0, 10204.0, 10200.0, 10206.0, 10221.0, 10226.0, 10234.0, 10219.0, 10206.0, 10189.0, 10186.0, 10201.0, 10216.0, 10226.0, 10217.0, 10221.0, 10214.0, 10198.0, 10194.0, 10186.0, 10179.0, 10178.0, 10185.0, 10186.0, 10186.0, 10177.0, 10174.0, 10171.0, 10162.0, 10176.0, 10211.0, 10212.0, 10211.0, 10203.0, 10200.0, 10200.0, 10207.0, 10203.0, 10192.0, 10194.0, 10192.0, 10184.0, 10169.0, 10174.0, 10169.0, 10184.0, 10182.0, 10166.0, 10164.0, 10169.0, 10175.0, 10185.0, 10170.0, 10159.0, 10164.0, 10161.0, 10175.0, 10198.0, 10201.0, 10201.0, 10185.0, 10175.0, 10168.0, 10174.0, 10175.0, 10173.0, 10194.0, 10159.0, 10141.0, 10140.0, 10157.0, 10153.0, 10154.0, 10169.0, 10180.0, 10198.0, 10195.0, 10210.0, 10205.0, 10189.0, 10183.0, 10176.0, 10189.0, 10179.0, 10178.0, 10179.0, 10154.0, 10141.0, 10145.0, 10150.0, 10150.0, 10155.0, 10142.0, 10148.0, 10146.0, 10152.0, 10157.0, 10179.0, 10190.0, 10180.0, 10188.0, 10207.0, 10200.0, 10176.0, 10156.0, 10132.0, 10127.0, 10127.0, 10151.0, 10156.0, 10149.0, 10140.0, 10132.0, 10125.0, 10146.0, 10148.0, 10148.0, 10154.0, 10161.0, 10164.0, 10146.0, 10124.0, 10113.0],
      "WindowWidth": [22246.0, 22099.0, 22001.0, 21929.0, 21905.0, 21859.0, 21869.0, 21838.0, 21918.0, 21934.0, 21927.0, 21947.0, 21967.0, 21988.0, 21951.0, 21926.0, 21899.0, 21918.0, 21914.0, 21899.0, 21882.0, 21841.0, 21862.0, 21855.0, 21862.0, 21896.0, 21907.0, 21919.0, 21891.0, 21859.0, 21823.0, 21812.0, 21847.0, 21885.0, 21914.0, 21890.0, 21892.0, 21876.0, 21842.0, 21828.0, 21811.0, 21801.0, 21800.0, 21811.0, 21813.0, 21811.0, 21796.0, 21787.0, 21774.0, 21758.0, 21790.0, 21868.0, 21872.0, 21867.0, 21854.0, 21841.0, 21842.0, 21855.0, 21847.0, 21822.0, 21826.0, 21819.0, 21803.0, 21771.0, 21780.0, 21774.0, 21804.0, 21805.0, 21771.0, 21763.0, 21773.0, 21785.0, 21809.0, 21777.0, 21753.0, 21762.0, 21759.0, 21789.0, 21838.0, 21847.0, 21845.0, 21811.0, 21788.0, 21774.0, 21787.0, 21788.0, 21785.0, 21834.0, 21746.0, 21697.0, 21699.0, 21746.0, 21734.0, 21736.0, 21769.0, 21795.0, 21837.0, 21831.0, 21863.0, 21856.0, 21815.0, 21800.0, 21785.0, 21809.0, 21794.0, 21791.0, 21786.0, 21732.0, 21712.0, 21717.0, 21732.0, 21734.0, 21740.0, 21713.0, 21725.0, 21719.0, 21731.0, 21748.0, 21791.0, 21822.0, 21795.0, 21811.0, 21856.0, 21839.0, 21787.0, 21740.0, 21686.0, 21677.0, 21677.0, 21725.0, 21743.0, 21725.0, 21705.0, 21687.0, 21677.0, 21720.0, 21727.0, 21724.0, 21748.0, 21758.0, 21765.0, 21724.0, 21670.0, 21648.0]
    },
    "slices": {}
  }
}