{
  "AcquisitionMatrixPE": 104,
  "AcquisitionNumber": 1,
  "AcquisitionTime": "16:01:2.597500",
  "BandwidthPerPixelPhaseEncode": 17.17,
  "BaseResolution": 104,
  "BodyPartExamined": "BRAIN",
  "CoilString": "HC1-7;NC1_2",
  "ConsistencyInfo": "N4_VE11C_LATEST_20160120",
  "ConversionSoftware": "dcm2niix",
  "ConversionSoftwareVersion": "v1.0.20190720  (JP2:OpenJPEG) GCC7.3.0",
  "DerivedVendorReportedEchoSpacing": 0.000560011,
  "DeviceSerialNumber": "167006",
  "DwellTime": 2.1e-06,
  "EchoTime": 0.037,
  "EchoTrainLength": 104,
  "EffectiveEchoSpacing": 0.000560011,
  "FlipAngle": 52,
  "ImageComments": "Unaliased_MB4_PE3_LB",
  "ImageOrientationPatientDICOM": [0.999321, -0.0352833, -0.0106268, 0.0282627, 0.918951, -0.393359],
  "ImageType": [
    "ORIGINAL",
    "PRIMARY",
    "M",
    "MB",
    "ND",
    "MOSAIC"
],
  "ImagingFrequency": 123.26,
  "InPlanePhaseEncodingDirectionDICOM": "COL",
  "InstitutionAddress": "Chemin_Queen-Mary_4565_Montreal_District_CA_H3W_1W5",
  "InstitutionName": "IUGM",
  "InstitutionalDepartmentName": "Department",
  "MRAcquisitionType": "2D",
  "MagneticFieldStrength": 3,
  "Manufacturer": "Siemens",
  "ManufacturersModelName": "Prisma_fit",
  "Modality": "MR",
  "MultibandAccelerationFactor": 4,
  "PartialFourier": 1,
  "PatientPosition": "HFS",
  "PercentPhaseFOV": 100,
  "PhaseEncodingDirection": "j",
  "PhaseEncodingSteps": 104,
  "PhaseResolution": 1,
  "PixelBandwidth": 2290,
  "ProcedureStepDescription": "hcptrt_generic",
  "ProtocolName": "func_task-relational_run-1",
  "PulseSequenceDetails": "%CustomerSeq%_cmrr_mbep2d_bold",
  "ReceiveCoilActiveElements": "HC1-7;NC1,2",
  "ReceiveCoilName": "HeadNeck_64",
  "ReconMatrixPE": 104,
  "RepetitionTime": 1.49,
  "SAR": 0.0380929,
  "ScanOptions": "FS",
  "ScanningSequence": "EP",
  "SequenceName": "epfid2d1_104",
  "SequenceVariant": "SK_SS",
  "SeriesDescription": "func_task-relational_run-1",
  "SeriesNumber": 9,
  "ShimSetting": [611, -7258, -8859, 333, 27, -424, 28, 13],
  "SliceThickness": 2,
  "SliceTiming": [0, 0.7825, 0.0975, 0.88, 0.195, 0.98, 0.2925, 1.0775, 0.39, 1.175, 0.49, 1.2725, 0.5875, 1.37, 0.685, 0, 0.7825, 0.0975, 0.88, 0.195, 0.98, 0.2925, 1.0775, 0.39, 1.175, 0.49, 1.2725, 0.5875, 1.37, 0.685, 0, 0.7825, 0.0975, 0.88, 0.195, 0.98, 0.2925, 1.0775, 0.39, 1.175, 0.49, 1.2725, 0.5875, 1.37, 0.685, 0, 0.7825, 0.0975, 0.88, 0.195, 0.98, 0.2925, 1.0775, 0.39, 1.175, 0.49, 1.2725, 0.5875, 1.37, 0.685],
  "SoftwareVersions": "syngo_MR_E11",
  "SpacingBetweenSlices": 2,
  "StationName": "MRC35049",
  "TaskName": "relational",
  "TotalReadoutTime": 0.0576811,
  "TxRefAmp": 241.686,
  "WipMemBlock": "f2d2e630-8d8f-4d1a-980c-50d9709a3afc||Sequence: R016 ve11c/master r/e634e98; Dec 19 2017 11:00:25 by eja",
  "dcmmeta_affine": [
    [-1.9986417293548584, 0.05652531981468201, -0.047289006412029266, 102.58391571044922],
    [0.07056660950183868, 1.8379011154174805, -0.785582423210144, -63.15861892700195],
    [-0.021253611892461777, 0.7867173552513123, 1.8386473655700684, -71.0588150024414],
    [0.0, 0.0, 0.0, 1.0]
],
  "dcmmeta_reorient_transform": [
    [0.0, -1.0, 0.0, 103.0],
    [1.0, 0.0, 0.0, 0.0],
    [0.0, 0.0, 1.0, 0.0],
    [0.0, 0.0, 0.0, 1.0]
],
  "dcmmeta_shape": [104, 104, 60, 119],
  "dcmmeta_slice_dim": 2,
  "dcmmeta_version": 0.6,
  "global": {
    "const": {
      "AcquisitionMatrix": [104, 0, 0, 104],
      "AngioFlag": "N",
      "BitsAllocated": 16,
      "BitsStored": 16,
      "BodyPartExamined": "BRAIN",
      "Columns": 832,
      "EchoNumbers": 1,
      "EchoTime": 37.0,
      "EchoTrainLength": 104,
      "FlipAngle": 52.0,
      "HighBit": 15,
      "ImageOrientationPatient": [0.99932084913568, -0.0352833032231, -0.0106268055596, 0.02826266015189, 0.91895057702139, -0.3933586900441],
      "ImagePositionPatient": [-856.48682001065, -769.4549767318, 304.07451617409],
      "ImageType": [
        "ORIGINAL",
        "PRIMARY",
        "M",
        "MB",
        "ND",
        "MOSAIC"
],
      "ImagedNucleus": "1H",
      "ImagingFrequency": 123.259599,
      "InPlanePhaseEncodingDirection": "COL",
      "MRAcquisitionType": "2D",
      "MagneticFieldStrength": 3.0,
      "Manufacturer": "SIEMENS",
      "ManufacturerModelName": "Prisma_fit",
      "Modality": "MR",
      "NumberOfAverages": 1.0,
      "NumberOfPhaseEncodingSteps": 104,
      "PercentPhaseFieldOfView": 100.0,
      "PercentSampling": 100.0,
      "PerformedProcedureStepStartTime": "154530.172000",
      "PhotometricInterpretation": "MONOCHROME2",
      "PixelBandwidth": 2290.0,
      "PixelRepresentation": 0,
      "PixelSpacing": [2.0, 2.0],
      "ProtocolName": "func_task-relational_run-1",
      "RepetitionTime": 1490.0,
      "Rows": 832,
      "SAR": 0.03809291227576,
      "SamplesPerPixel": 1,
      "ScanOptions": "FS",
      "ScanningSequence": "EP",
      "SequenceName": "epfid2d1_104",
      "SequenceVariant": [
        "SK",
        "SS"
],
      "SeriesDescription": "func_task-relational_run-1",
      "SeriesNumber": 9,
      "SeriesTime": "160210.776000",
      "SliceLocation": -42.943447156582,
      "SliceThickness": 2.0,
      "SmallestImagePixelValue": 0,
      "SoftwareVersions": "syngo MR E11",
      "SpacingBetweenSlices": 2.0000000608683,
      "SpecificCharacterSet": "ISO_IR 100",
      "StudyID": "1",
      "StudyTime": "154530.095000",
      "TransmitCoilName": "Body",
      "VariableFlipAngleFlag": "N",
      "WindowCenterWidthExplanation": "Algo1",
      "dBdt": 0.0},
    "slices": {}
  },
  "time": {
    "samples": {
      "AcquisitionNumber": [1, 2, 3, 4, 5, 6, 7, 8, 9, 10, 11, 12, 13, 14, 15, 16, 17, 18, 19, 20, 21, 22, 23, 24, 25, 26, 27, 28, 29, 30, 31, 32, 33, 34, 35, 36, 37, 38, 39, 40, 41, 42, 43, 44, 45, 46, 47, 48, 49, 50, 51, 52, 53, 54, 55, 56, 57, 58, 59, 60, 61, 62, 63, 64, 65, 66, 67, 68, 69, 70, 71, 72, 73, 74, 75, 76, 77, 78, 79, 80, 81, 82, 83, 84, 85, 86, 87, 88, 89, 90, 91, 92, 93, 94, 95, 96, 97, 98, 99, 100, 101, 102, 103, 104, 105, 106, 107, 108, 109, 110, 111, 112, 113, 114, 115, 116, 117, 118, 119],
      "AcquisitionTime": ["160102.597500", "160104.087500", "160105.577500", "160107.067500", "160108.557500", "160110.047500", "160111.537500", "160113.027500", "160114.517500", "160116.007500", "160117.497500", "160118.987500", "160120.477500", "160121.967500", "160123.457500", "160124.947500", "160126.437500", "160127.927500", "160129.417500", "160130.907500", "160132.397500", "160133.887500", "160135.377500", "160136.867500", "160138.357500", "160139.847500", "160141.337500", "160142.827500", "160144.317500", "160145.807500", "160147.297500", "160148.787500", "160150.277500", "160151.767500", "160153.257500", "160154.747500", "160156.237500", "160157.727500", "160159.217500", "160200.707500", "160202.197500", "160203.687500", "160205.177500", "160206.667500", "160208.157500", "160209.647500", "160211.137500", "160212.627500", "160214.117500", "160215.607500", "160217.097500", "160218.587500", "160220.077500", "160221.567500", "160223.057500", "160224.547500", "160226.037500", "160227.527500", "160229.017500", "160230.507500", "160231.997500", "160233.487500", "160234.977500", "160236.467500", "160237.957500", "160239.447500", "160240.937500", "160242.427500", "160243.917500", "160245.407500", "160246.897500", "160248.387500", "160249.877500", "160251.367500", "160252.857500", "160254.347500", "160255.837500", "160257.327500", "160258.817500", "160300.307500", "160301.797500", "160303.287500", "160304.777500", "160306.267500", "160307.757500", "160309.247500", "160310.737500", "160312.227500", "160313.717500", "160315.207500", "160316.697500", "160318.187500", "160319.677500", "160321.167500", "160322.657500", "160324.147500", "160325.637500", "160327.127500", "160328.617500", "160330.107500", "160331.597500", "160333.087500", "160334.577500", "160336.067500", "160337.557500", "160339.047500", "160340.537500", "160342.027500", "160343.517500", "160345.007500", "160346.497500", "160347.987500", "160349.477500", "160350.967500", "160352.457500", "160353.947500", "160355.437500", "160356.927500", "160358.417500"],
      "ContentTime": ["160210.779000", "160210.782000", "160210.785000", "160210.788000", "160210.791000", "160210.794000", "160210.797000", "160210.800000", "160210.802000", "160210.810000", "160210.813000", "160210.816000", "160210.825000", "160210.828000", "160230.741000", "160230.744000", "160230.747000", "160230.750000", "160230.752000", "160230.755000", "160230.758000", "160230.761000", "160230.764000", "160230.771000", "160230.774000", "160230.777000", "160230.780000", "160230.783000", "160230.786000", "160230.789000", "160230.792000", "160230.795000", "160230.798000", "160230.800000", "160230.803000", "160250.740000", "160250.743000", "160250.746000", "160250.749000", "160250.751000", "160250.754000", "160250.757000", "160250.760000", "160250.763000", "160250.766000", "160250.769000", "160250.771000", "160250.774000", "160250.777000", "160250.780000", "160250.783000", "160250.786000", "160250.789000", "160250.792000", "160250.794000", "160310.740000", "160310.743000", "160310.746000", "160310.749000", "160310.751000", "160310.754000", "160310.757000", "160310.760000", "160310.763000", "160310.766000", "160310.769000", "160310.771000", "160310.774000", "160310.777000", "160310.780000", "160310.783000", "160310.786000", "160310.789000", "160310.791000", "160310.794000", "160330.740000", "160330.743000", "160330.746000", "160330.749000", "160330.752000", "160330.755000", "160330.757000", "160330.760000", "160330.763000", "160330.766000", "160330.778000", "160330.780000", "160330.783000", "160330.786000", "160330.789000", "160330.792000", "160330.795000", "160330.798000", "160330.800000", "160330.803000", "160400.497000", "160400.500000", "160400.503000", "160400.505000", "160400.508000", "160400.511000", "160400.514000", "160400.519000", "160400.522000", "160400.525000", "160400.528000", "160400.531000", "160400.534000", "160400.537000", "160400.539000", "160400.543000", "160400.546000", "160400.549000", "160400.552000", "160400.555000", "160400.559000", "160400.562000", "160400.565000", "160400.568000"],
      "InstanceCreationTime": ["160210.779000", "160210.782000", "160210.785000", "160210.788000", "160210.791000", "160210.794000", "160210.797000", "160210.800000", "160210.802000", "160210.810000", "160210.813000", "160210.816000", "160210.825000", "160210.828000", "160230.741000", "160230.744000", "160230.747000", "160230.750000", "160230.752000", "160230.755000", "160230.758000", "160230.761000", "160230.764000", "160230.771000", "160230.774000", "160230.777000", "160230.780000", "160230.783000", "160230.786000", "160230.789000", "160230.792000", "160230.795000", "160230.798000", "160230.800000", "160230.803000", "160250.740000", "160250.743000", "160250.746000", "160250.749000", "160250.751000", "160250.754000", "160250.757000", "160250.760000", "160250.763000", "160250.766000", "160250.769000", "160250.771000", "160250.774000", "160250.777000", "160250.780000", "160250.783000", "160250.786000", "160250.789000", "160250.792000", "160250.794000", "160310.740000", "160310.743000", "160310.746000", "160310.749000", "160310.751000", "160310.754000", "160310.757000", "160310.760000", "160310.763000", "160310.766000", "160310.769000", "160310.771000", "160310.774000", "160310.777000", "160310.780000", "160310.783000", "160310.786000", "160310.789000", "160310.791000", "160310.794000", "160330.740000", "160330.743000", "160330.746000", "160330.749000", "160330.752000", "160330.755000", "160330.757000", "160330.760000", "160330.763000", "160330.766000", "160330.778000", "160330.780000", "160330.783000", "160330.786000", "160330.789000", "160330.792000", "160330.795000", "160330.798000", "160330.800000", "160330.803000", "160400.497000", "160400.500000", "160400.503000", "160400.505000", "160400.508000", "160400.511000", "160400.514000", "160400.519000", "160400.522000", "160400.525000", "160400.528000", "160400.531000", "160400.534000", "160400.537000", "160400.539000", "160400.543000", "160400.546000", "160400.549000", "160400.552000", "160400.555000", "160400.559000", "160400.562000", "160400.565000", "160400.568000"],
      "InstanceNumber": [1, 2, 3, 4, 5, 6, 7, 8, 9, 10, 11, 12, 13, 14, 15, 16, 17, 18, 19, 20, 21, 22, 23, 24, 25, 26, 27, 28, 29, 30, 31, 32, 33, 34, 35, 36, 37, 38, 39, 40, 41, 42, 43, 44, 45, 46, 47, 48, 49, 50, 51, 52, 53, 54, 55, 56, 57, 58, 59, 60, 61, 62, 63, 64, 65, 66, 67, 68, 69, 70, 71, 72, 73, 74, 75, 76, 77, 78, 79, 80, 81, 82, 83, 84, 85, 86, 87, 88, 89, 90, 91, 92, 93, 94, 95, 96, 97, 98, 99, 100, 101, 102, 103, 104, 105, 106, 107, 108, 109, 110, 111, 112, 113, 114, 115, 116, 117, 118, 119],
      "LargestImagePixelValue": [54312, 52538, 51657, 51568, 50330, 50748, 50549, 49059, 49781, 49741, 49838, 50792, 51119, 51227, 50968, 50687, 51371, 51475, 50973, 50205, 50397, 50843, 51428, 51837, 51055, 51665, 51318, 51348, 51271, 50475, 50941, 50761, 48606, 49802, 49752, 49990, 49055, 48937, 48696, 48904, 49021, 49889, 49381, 48761, 48752, 49009, 49388, 48591, 48864, 48691, 48670, 48716, 48818, 48937, 48515, 48400, 48270, 48410, 48705, 48791, 48812, 48720, 48114, 48506, 48422, 48130, 48471, 48780, 49363, 49469, 48693, 47837, 48216, 48114, 47704, 47873, 49147, 49483, 49603, 49498, 49029, 49557, 48872, 49770, 49143, 48765, 48678, 47346, 48142, 48010, 47348, 47485, 47554, 47144, 46897, 47284, 47423, 47000, 46962, 46462, 47944, 47338, 47163, 48211, 47663, 47158, 47484, 47428, 46954, 46928, 47536, 47954, 47685, 46399, 47980, 48891, 48127, 49856, 48915],
      "WindowCenter": [10243.0, 10195.0, 10174.0, 10153.0, 10139.0, 10153.0, 10133.0, 10118.0, 10122.0, 10146.0, 10142.0, 10142.0, 10133.0, 10133.0, 10126.0, 10125.0, 10129.0, 10132.0, 10137.0, 10144.0, 10156.0, 10162.0, 10167.0, 10180.0, 10180.0, 10188.0, 10181.0, 10164.0, 10159.0, 10164.0, 10171.0, 10171.0, 10151.0, 10177.0, 10170.0, 10149.0, 10141.0, 10165.0, 10142.0, 10114.0, 10092.0, 10088.0, 10093.0, 10104.0, 10117.0, 10118.0, 10116.0, 10115.0, 10131.0, 10135.0, 10135.0, 10137.0, 10151.0, 10145.0, 10130.0, 10123.0, 10127.0, 10121.0, 10118.0, 10123.0, 10132.0, 10142.0, 10147.0, 10155.0, 10147.0, 10132.0, 10127.0, 10131.0, 10147.0, 10135.0, 10095.0, 10070.0, 10073.0, 10072.0, 10057.0, 10021.0, 10003.0, 9998.0, 10005.0, 10023.0, 10034.0, 10057.0, 10055.0, 10066.0, 10085.0, 10101.0, 10111.0, 10111.0, 10118.0, 10116.0, 10120.0, 10106.0, 10084.0, 10064.0, 10070.0, 10080.0, 10079.0, 10073.0, 10088.0, 10087.0, 10106.0, 10100.0, 10093.0, 10123.0, 10124.0, 10122.0, 10127.0, 10121.0, 10102.0, 10098.0, 10106.0, 10123.0, 10092.0, 10070.0, 10157.0, 10153.0, 10134.0, 10157.0, 10142.0],
      "WindowWidth": [22045.0, 21899.0, 21840.0, 21776.0, 21736.0, 21765.0, 21713.0, 21682.0, 21680.0, 21731.0, 21728.0, 21719.0, 21700.0, 21705.0, 21688.0, 21689.0, 21693.0, 21702.0, 21721.0, 21734.0, 21762.0, 21769.0, 21776.0, 21800.0, 21809.0, 21824.0, 21809.0, 21772.0, 21758.0, 21776.0, 21788.0, 21793.0, 21750.0, 21803.0, 21790.0, 21738.0, 21720.0, 21804.0, 21731.0, 21667.0, 21616.0, 21609.0, 21615.0, 21644.0, 21674.0, 21679.0, 21679.0, 21667.0, 21704.0, 21713.0, 21712.0, 21723.0, 21749.0, 21737.0, 21706.0, 21693.0, 21700.0, 21686.0, 21680.0, 21684.0, 21702.0, 21723.0, 21736.0, 21754.0, 21737.0, 21709.0, 21698.0, 21701.0, 21739.0, 21710.0, 21625.0, 21571.0, 21572.0, 21572.0, 21539.0, 21456.0, 21407.0, 21394.0, 21412.0, 21457.0, 21482.0, 21531.0, 21532.0, 21549.0, 21589.0, 21635.0, 21653.0, 21661.0, 21677.0, 21674.0, 21676.0, 21650.0, 21603.0, 21553.0, 21565.0, 21591.0, 21589.0, 21578.0, 21608.0, 21615.0, 21650.0, 21638.0, 21628.0, 21691.0, 21690.0, 21689.0, 21695.0, 21685.0, 21640.0, 21627.0, 21644.0, 21681.0, 21645.0, 21572.0, 21774.0, 21759.0, 21721.0, 21763.0, 21728.0]
    },
    "slices": {}
  }
}