{
  "AcquisitionMatrixPE": 104,
  "AcquisitionNumber": 1,
  "AcquisitionTime": "15:56:18.110000",
  "BandwidthPerPixelPhaseEncode": 17.17,
  "BaseResolution": 104,
  "BodyPartExamined": "BRAIN",
  "CoilString": "HC1-7;NC1_2",
  "ConsistencyInfo": "N4_VE11C_LATEST_20160120",
  "ConversionSoftware": "dcm2niix",
  "ConversionSoftwareVersion": "v1.0.20190720  (JP2:OpenJPEG) GCC7.3.0",
  "DerivedVendorReportedEchoSpacing": 0.000560011,
  "DeviceSerialNumber": "167006",
  "DwellTime": 2.1e-06,
  "EchoTime": 0.037,
  "EchoTrainLength": 104,
  "EffectiveEchoSpacing": 0.000560011,
  "FlipAngle": 52,
  "ImageComments": "Unaliased_MB4_PE3_LB",
  "ImageOrientationPatientDICOM": [0.999321, -0.0352833, -0.0106268, 0.0282627, 0.918951, -0.393359],
  "ImageType": [
    "ORIGINAL",
    "PRIMARY",
    "M",
    "MB",
    "ND",
    "MOSAIC"
],
  "ImagingFrequency": 123.26,
  "InPlanePhaseEncodingDirectionDICOM": "COL",
  "InstitutionAddress": "Chemin_Queen-Mary_4565_Montreal_District_CA_H3W_1W5",
  "InstitutionName": "IUGM",
  "InstitutionalDepartmentName": "Department",
  "MRAcquisitionType": "2D",
  "MagneticFieldStrength": 3,
  "Manufacturer": "Siemens",
  "ManufacturersModelName": "Prisma_fit",
  "Modality": "MR",
  "MultibandAccelerationFactor": 4,
  "PartialFourier": 1,
  "PatientPosition": "HFS",
  "PercentPhaseFOV": 100,
  "PhaseEncodingDirection": "j",
  "PhaseEncodingSteps": 104,
  "PhaseResolution": 1,
  "PixelBandwidth": 2290,
  "ProcedureStepDescription": "hcptrt_generic",
  "ProtocolName": "func_task-social_run-1",
  "PulseSequenceDetails": "%CustomerSeq%_cmrr_mbep2d_bold",
  "ReceiveCoilActiveElements": "HC1-7;NC1,2",
  "ReceiveCoilName": "HeadNeck_64",
  "ReconMatrixPE": 104,
  "RepetitionTime": 1.49,
  "SAR": 0.0381782,
  "ScanOptions": "FS",
  "ScanningSequence": "EP",
  "SequenceName": "epfid2d1_104",
  "SequenceVariant": "SK_SS",
  "SeriesDescription": "func_task-social_run-1",
  "SeriesNumber": 7,
  "ShimSetting": [611, -7258, -8859, 333, 27, -424, 28, 13],
  "SliceThickness": 2,
  "SliceTiming": [0, 0.785, 0.1, 0.8825, 0.1975, 0.98, 0.295, 1.08, 0.3925, 1.1775, 0.49, 1.275, 0.59, 1.3725, 0.6875, 0, 0.785, 0.1, 0.8825, 0.1975, 0.98, 0.295, 1.08, 0.3925, 1.1775, 0.49, 1.275, 0.59, 1.3725, 0.6875, 0, 0.785, 0.1, 0.8825, 0.1975, 0.98, 0.295, 1.08, 0.3925, 1.1775, 0.49, 1.275, 0.59, 1.3725, 0.6875, 0, 0.785, 0.1, 0.8825, 0.1975, 0.98, 0.295, 1.08, 0.3925, 1.1775, 0.49, 1.275, 0.59, 1.3725, 0.6875],
  "SoftwareVersions": "syngo_MR_E11",
  "SpacingBetweenSlices": 2,
  "StationName": "MRC35049",
  "TaskName": "social",
  "TotalReadoutTime": 0.0576811,
  "TxRefAmp": 241.686,
  "WipMemBlock": "dfa7cea6-77b3-4748-a942-3951d8f4a318||Sequence: R016 ve11c/master r/e634e98; Dec 19 2017 11:00:25 by eja",
  "dcmmeta_affine": [
    [-1.9986417293548584, 0.05652531981468201, -0.047289006412029266, 102.58391571044922],
    [0.07056660950183868, 1.8379011154174805, -0.785582423210144, -63.15861892700195],
    [-0.021253611892461777, 0.7867173552513123, 1.8386473655700684, -71.0588150024414],
    [0.0, 0.0, 0.0, 1.0]
],
  "dcmmeta_reorient_transform": [
    [0.0, -1.0, 0.0, 103.0],
    [1.0, 0.0, 0.0, 0.0],
    [0.0, 0.0, 1.0, 0.0],
    [0.0, 0.0, 0.0, 1.0]
],
  "dcmmeta_shape": [104, 104, 60, 139],
  "dcmmeta_slice_dim": 2,
  "dcmmeta_version": 0.6,
  "global": {
    "const": {
      "AcquisitionMatrix": [104, 0, 0, 104],
      "AngioFlag": "N",
      "BitsAllocated": 16,
      "BitsStored": 16,
      "BodyPartExamined": "BRAIN",
      "Columns": 832,
      "EchoNumbers": 1,
      "EchoTime": 37.0,
      "EchoTrainLength": 104,
      "FlipAngle": 52.0,
      "HighBit": 15,
      "ImageOrientationPatient": [0.99932084913568, -0.0352833032231, -0.0106268055596, 0.02826266015189, 0.91895057702139, -0.3933586900441],
      "ImagePositionPatient": [-856.48682001065, -769.4549767318, 304.07451617409],
      "ImageType": [
        "ORIGINAL",
        "PRIMARY",
        "M",
        "MB",
        "ND",
        "MOSAIC"
],
      "ImagedNucleus": "1H",
      "ImagingFrequency": 123.259596,
      "InPlanePhaseEncodingDirection": "COL",
      "MRAcquisitionType": "2D",
      "MagneticFieldStrength": 3.0,
      "Manufacturer": "SIEMENS",
      "ManufacturerModelName": "Prisma_fit",
      "Modality": "MR",
      "NumberOfAverages": 1.0,
      "NumberOfPhaseEncodingSteps": 104,
      "PercentPhaseFieldOfView": 100.0,
      "PercentSampling": 100.0,
      "PerformedProcedureStepStartTime": "154530.172000",
      "PhotometricInterpretation": "MONOCHROME2",
      "PixelBandwidth": 2290.0,
      "PixelRepresentation": 0,
      "PixelSpacing": [2.0, 2.0],
      "ProtocolName": "func_task-social_run-1",
      "RepetitionTime": 1490.0,
      "Rows": 832,
      "SAR": 0.03817819521163,
      "SamplesPerPixel": 1,
      "ScanOptions": "FS",
      "ScanningSequence": "EP",
      "SequenceName": "epfid2d1_104",
      "SequenceVariant": [
        "SK",
        "SS"
],
      "SeriesDescription": "func_task-social_run-1",
      "SeriesNumber": 7,
      "SeriesTime": "155734.184000",
      "SliceLocation": -42.943447156582,
      "SliceThickness": 2.0,
      "SmallestImagePixelValue": 0,
      "SoftwareVersions": "syngo MR E11",
      "SpacingBetweenSlices": 2.0000000608683,
      "SpecificCharacterSet": "ISO_IR 100",
      "StudyID": "1",
      "StudyTime": "154530.095000",
      "TransmitCoilName": "Body",
      "VariableFlipAngleFlag": "N",
      "WindowCenterWidthExplanation": "Algo1",
      "dBdt": 0.0},
    "slices": {}
  },
  "time": {
    "samples": {
      "AcquisitionNumber": [1, 2, 3, 4, 5, 6, 7, 8, 9, 10, 11, 12, 13, 14, 15, 16, 17, 18, 19, 20, 21, 22, 23, 24, 25, 26, 27, 28, 29, 30, 31, 32, 33, 34, 35, 36, 37, 38, 39, 40, 41, 42, 43, 44, 45, 46, 47, 48, 49, 50, 51, 52, 53, 54, 55, 56, 57, 58, 59, 60, 61, 62, 63, 64, 65, 66, 67, 68, 69, 70, 71, 72, 73, 74, 75, 76, 77, 78, 79, 80, 81, 82, 83, 84, 85, 86, 87, 88, 89, 90, 91, 92, 93, 94, 95, 96, 97, 98, 99, 100, 101, 102, 103, 104, 105, 106, 107, 108, 109, 110, 111, 112, 113, 114, 115, 116, 117, 118, 119, 120, 121, 122, 123, 124, 125, 126, 127, 128, 129, 130, 131, 132, 133, 134, 135, 136, 137, 138, 139],
      "AcquisitionTime": ["155618.110000", "155619.600000", "155621.090000", "155622.580000", "155624.070000", "155625.560000", "155627.050000", "155628.540000", "155630.030000", "155631.520000", "155633.010000", "155634.500000", "155635.990000", "155637.480000", "155638.970000", "155640.460000", "155641.950000", "155643.440000", "155644.930000", "155646.420000", "155647.910000", "155649.400000", "155650.890000", "155652.380000", "155653.870000", "155655.360000", "155656.850000", "155658.340000", "155659.830000", "155701.320000", "155702.810000", "155704.300000", "155705.790000", "155707.280000", "155708.770000", "155710.260000", "155711.750000", "155713.240000", "155714.730000", "155716.220000", "155717.710000", "155719.200000", "155720.690000", "155722.180000", "155723.670000", "155725.160000", "155726.650000", "155728.140000", "155729.630000", "155731.120000", "155732.610000", "155734.100000", "155735.590000", "155737.080000", "155738.570000", "155740.060000", "155741.550000", "155743.040000", "155744.530000", "155746.020000", "155747.510000", "155749.000000", "155750.490000", "155751.980000", "155753.470000", "155754.960000", "155756.450000", "155757.940000", "155759.430000", "155800.920000", "155802.410000", "155803.900000", "155805.390000", "155806.880000", "155808.370000", "155809.860000", "155811.350000", "155812.840000", "155814.330000", "155815.820000", "155817.310000", "155818.800000", "155820.290000", "155821.780000", "155823.270000", "155824.760000", "155826.250000", "155827.740000", "155829.230000", "155830.720000", "155832.210000", "155833.700000", "155835.190000", "155836.680000", "155838.170000", "155839.660000", "155841.150000", "155842.640000", "155844.130000", "155845.620000", "155847.110000", "155848.600000", "155850.090000", "155851.580000", "155853.070000", "155854.560000", "155856.050000", "155857.540000", "155859.030000", "155900.520000", "155902.010000", "155903.500000", "155904.990000", "155906.480000", "155907.970000", "155909.460000", "155910.950000", "155912.440000", "155913.930000", "155915.420000", "155916.910000", "155918.400000", "155919.890000", "155921.380000", "155922.870000", "155924.360000", "155925.850000", "155927.340000", "155928.830000", "155930.320000", "155931.810000", "155933.300000", "155934.790000", "155936.280000", "155937.770000", "155939.260000", "155940.750000", "155942.240000", "155943.730000"],
      "ContentTime": ["155734.187000", "155734.190000", "155734.193000", "155734.196000", "155734.199000", "155734.201000", "155734.204000", "155734.207000", "155734.210000", "155734.213000", "155734.216000", "155734.219000", "155734.222000", "155734.224000", "155734.227000", "155734.230000", "155734.233000", "155734.236000", "155734.238000", "155734.241000", "155734.244000", "155734.247000", "155754.145000", "155754.148000", "155754.151000", "155754.153000", "155754.157000", "155754.159000", "155754.162000", "155754.165000", "155754.168000", "155754.171000", "155754.173000", "155754.176000", "155754.179000", "155754.182000", "155754.185000", "155754.188000", "155754.191000", "155754.193000", "155754.196000", "155754.199000", "155814.145000", "155814.148000", "155814.151000", "155814.153000", "155814.156000", "155814.159000", "155814.162000", "155814.165000", "155814.168000", "155814.171000", "155814.173000", "155814.176000", "155814.179000", "155814.191000", "155814.194000", "155814.197000", "155814.200000", "155814.203000", "155814.205000", "155814.208000", "155834.145000", "155834.148000", "155834.151000", "155834.153000", "155834.156000", "155834.159000", "155834.162000", "155834.165000", "155834.168000", "155834.170000", "155834.173000", "155834.176000", "155834.179000", "155834.187000", "155834.190000", "155834.193000", "155834.196000", "155834.199000", "155834.201000", "155834.204000", "155854.146000", "155854.149000", "155854.151000", "155854.154000", "155854.157000", "155854.160000", "155854.163000", "155854.166000", "155854.169000", "155854.171000", "155854.174000", "155854.177000", "155854.180000", "155854.183000", "155854.186000", "155854.188000", "155854.191000", "155854.194000", "155854.197000", "155854.200000", "155934.145000", "155934.148000", "155934.151000", "155934.154000", "155934.157000", "155934.159000", "155934.162000", "155934.165000", "155934.168000", "155934.171000", "155934.174000", "155934.176000", "155934.179000", "155934.182000", "155934.185000", "155934.188000", "155934.191000", "155934.193000", "155934.196000", "155934.199000", "155934.202000", "155934.208000", "155934.211000", "155934.214000", "155934.217000", "155934.220000", "155934.223000", "155934.225000", "155934.228000", "155945.606000", "155945.610000", "155945.612000", "155945.615000", "155945.619000", "155945.621000", "155945.624000", "155945.627000"],
      "InstanceCreationTime": ["155734.187000", "155734.190000", "155734.193000", "155734.196000", "155734.199000", "155734.201000", "155734.204000", "155734.207000", "155734.210000", "155734.213000", "155734.216000", "155734.219000", "155734.222000", "155734.224000", "155734.227000", "155734.230000", "155734.233000", "155734.236000", "155734.238000", "155734.241000", "155734.244000", "155734.247000", "155754.145000", "155754.148000", "155754.151000", "155754.153000", "155754.157000", "155754.159000", "155754.162000", "155754.165000", "155754.168000", "155754.171000", "155754.173000", "155754.176000", "155754.179000", "155754.182000", "155754.185000", "155754.188000", "155754.191000", "155754.193000", "155754.196000", "155754.199000", "155814.145000", "155814.148000", "155814.151000", "155814.153000", "155814.156000", "155814.159000", "155814.162000", "155814.165000", "155814.168000", "155814.171000", "155814.173000", "155814.176000", "155814.179000", "155814.191000", "155814.194000", "155814.197000", "155814.200000", "155814.203000", "155814.205000", "155814.208000", "155834.145000", "155834.148000", "155834.151000", "155834.153000", "155834.156000", "155834.159000", "155834.162000", "155834.165000", "155834.168000", "155834.170000", "155834.173000", "155834.176000", "155834.179000", "155834.187000", "155834.190000", "155834.193000", "155834.196000", "155834.199000", "155834.201000", "155834.204000", "155854.146000", "155854.149000", "155854.151000", "155854.154000", "155854.157000", "155854.160000", "155854.163000", "155854.166000", "155854.169000", "155854.171000", "155854.174000", "155854.177000", "155854.180000", "155854.183000", "155854.186000", "155854.188000", "155854.191000", "155854.194000", "155854.197000", "155854.200000", "155934.145000", "155934.148000", "155934.151000", "155934.154000", "155934.157000", "155934.159000", "155934.162000", "155934.165000", "155934.168000", "155934.171000", "155934.174000", "155934.176000", "155934.179000", "155934.182000", "155934.185000", "155934.188000", "155934.191000", "155934.193000", "155934.196000", "155934.199000", "155934.202000", "155934.208000", "155934.211000", "155934.214000", "155934.217000", "155934.220000", "155934.223000", "155934.225000", "155934.228000", "155945.606000", "155945.610000", "155945.612000", "155945.615000", "155945.619000", "155945.621000", "155945.624000", "155945.627000"],
      "InstanceNumber": [1, 2, 3, 4, 5, 6, 7, 8, 9, 10, 11, 12, 13, 14, 15, 16, 17, 18, 19, 20, 21, 22, 23, 24, 25, 26, 27, 28, 29, 30, 31, 32, 33, 34, 35, 36, 37, 38, 39, 40, 41, 42, 43, 44, 45, 46, 47, 48, 49, 50, 51, 52, 53, 54, 55, 56, 57, 58, 59, 60, 61, 62, 63, 64, 65, 66, 67, 68, 69, 70, 71, 72, 73, 74, 75, 76, 77, 78, 79, 80, 81, 82, 83, 84, 85, 86, 87, 88, 89, 90, 91, 92, 93, 94, 95, 96, 97, 98, 99, 100, 101, 102, 103, 104, 105, 106, 107, 108, 109, 110, 111, 112, 113, 114, 115, 116, 117, 118, 119, 120, 121, 122, 123, 124, 125, 126, 127, 128, 129, 130, 131, 132, 133, 134, 135, 136, 137, 138, 139],
      "LargestImagePixelValue": [53783, 52127, 51362, 51350, 51222, 50900, 50704, 50298, 50523, 47861, 49938, 49965, 48897, 48742, 48953, 48435, 48756, 49090, 48966, 49014, 48792, 49061, 48588, 48277, 48384, 48618, 48514, 47775, 48649, 48103, 48259, 48651, 48302, 48730, 47810, 48550, 49317, 49106, 48156, 48888, 48618, 48350, 48920, 48142, 48106, 49154, 48415, 48971, 48285, 49010, 48619, 48228, 48555, 48041, 47846, 48111, 48044, 48753, 48733, 48383, 47652, 48168, 47319, 46834, 47463, 47462, 47101, 47263, 47699, 47115, 47697, 47940, 47719, 47963, 47454, 47861, 47532, 46848, 47485, 47729, 47954, 48441, 47451, 47379, 47763, 47712, 47651, 47077, 47400, 47586, 47113, 47183, 48216, 47498, 47209, 47399, 47197, 47677, 48034, 47276, 47616, 47925, 47248, 46926, 47221, 47080, 47772, 47327, 48232, 47117, 48077, 47700, 47900, 48319, 48250, 48032, 47972, 46996, 47022, 47150, 46979, 46720, 46635, 47262, 46765, 47567, 47128, 47474, 47138, 47214, 47097, 47155, 47822, 47472, 48447, 48904, 48567, 48935, 49144],
      "WindowCenter": [10200.0, 10107.0, 10060.0, 10037.0, 10034.0, 10053.0, 10075.0, 10086.0, 10106.0, 10085.0, 10113.0, 10135.0, 10153.0, 10185.0, 10177.0, 10170.0, 10168.0, 10157.0, 10162.0, 10165.0, 10166.0, 10174.0, 10168.0, 10161.0, 10161.0, 10151.0, 10150.0, 10163.0, 10176.0, 10163.0, 10160.0, 10152.0, 10151.0, 10158.0, 10151.0, 10154.0, 10165.0, 10157.0, 10143.0, 10139.0, 10137.0, 10138.0, 10152.0, 10158.0, 10163.0, 10163.0, 10142.0, 10139.0, 10138.0, 10150.0, 10146.0, 10148.0, 10147.0, 10133.0, 10123.0, 10104.0, 10086.0, 10089.0, 10095.0, 10108.0, 10119.0, 10118.0, 10110.0, 10113.0, 10122.0, 10122.0, 10133.0, 10141.0, 10126.0, 10115.0, 10106.0, 10108.0, 10111.0, 10121.0, 10118.0, 10122.0, 10122.0, 10099.0, 10098.0, 10104.0, 10113.0, 10131.0, 10120.0, 10109.0, 10113.0, 10113.0, 10129.0, 10127.0, 10132.0, 10125.0, 10108.0, 10099.0, 10109.0, 10106.0, 10124.0, 10125.0, 10112.0, 10116.0, 10125.0, 10106.0, 10115.0, 10120.0, 10116.0, 10120.0, 10108.0, 10084.0, 10077.0, 10070.0, 10085.0, 10091.0, 10106.0, 10098.0, 10092.0, 10083.0, 10089.0, 10100.0, 10127.0, 10135.0, 10146.0, 10153.0, 10153.0, 10139.0, 10128.0, 10125.0, 10111.0, 10121.0, 10110.0, 10106.0, 10107.0, 10115.0, 10109.0, 10101.0, 10113.0, 10109.0, 10120.0, 10119.0, 10130.0, 10125.0, 10094.0],
      "WindowWidth": [21942.0, 21694.0, 21563.0, 21499.0, 21484.0, 21526.0, 21576.0, 21599.0, 21636.0, 21603.0, 21658.0, 21703.0, 21750.0, 21823.0, 21805.0, 21789.0, 21783.0, 21758.0, 21767.0, 21776.0, 21780.0, 21796.0, 21783.0, 21771.0, 21774.0, 21751.0, 21748.0, 21781.0, 21804.0, 21778.0, 21770.0, 21760.0, 21751.0, 21765.0, 21749.0, 21752.0, 21775.0, 21757.0, 21729.0, 21721.0, 21713.0, 21719.0, 21745.0, 21764.0, 21777.0, 21769.0, 21726.0, 21719.0, 21718.0, 21740.0, 21736.0, 21741.0, 21737.0, 21708.0, 21683.0, 21641.0, 21602.0, 21605.0, 21615.0, 21646.0, 21671.0, 21669.0, 21655.0, 21666.0, 21683.0, 21686.0, 21710.0, 21727.0, 21696.0, 21668.0, 21647.0, 21647.0, 21655.0, 21678.0, 21671.0, 21682.0, 21682.0, 21631.0, 21629.0, 21640.0, 21660.0, 21702.0, 21683.0, 21651.0, 21656.0, 21657.0, 21695.0, 21696.0, 21703.0, 21687.0, 21652.0, 21633.0, 21649.0, 21649.0, 21685.0, 21689.0, 21661.0, 21672.0, 21693.0, 21648.0, 21666.0, 21675.0, 21669.0, 21678.0, 21649.0, 21599.0, 21579.0, 21566.0, 21595.0, 21614.0, 21642.0, 21627.0, 21611.0, 21593.0, 21607.0, 21632.0, 21693.0, 21719.0, 21739.0, 21753.0, 21754.0, 21725.0, 21694.0, 21686.0, 21660.0, 21677.0, 21656.0, 21647.0, 21650.0, 21665.0, 21652.0, 21635.0, 21659.0, 21655.0, 21687.0, 21674.0, 21701.0, 21692.0, 21621.0]
    },
    "slices": {}
  }
}