{
  "AcquisitionMatrixPE": 104,
  "AcquisitionNumber": 1,
  "AcquisitionTime": "16:05:21.987500",
  "BandwidthPerPixelPhaseEncode": 17.17,
  "BaseResolution": 104,
  "BodyPartExamined": "BRAIN",
  "CoilString": "HC1-7;NC1_2",
  "ConsistencyInfo": "N4_VE11C_LATEST_20160120",
  "ConversionSoftware": "dcm2niix",
  "ConversionSoftwareVersion": "v1.0.20190720  (JP2:OpenJPEG) GCC7.3.0",
  "DerivedVendorReportedEchoSpacing": 0.000560011,
  "DeviceSerialNumber": "167006",
  "DwellTime": 2.1e-06,
  "EchoTime": 0.037,
  "EchoTrainLength": 104,
  "EffectiveEchoSpacing": 0.000560011,
  "FlipAngle": 52,
  "ImageComments": "Unaliased_MB4_PE3_LB",
  "ImageOrientationPatientDICOM": [0.999321, -0.0352833, -0.0106268, 0.0282627, 0.918951, -0.393359],
  "ImageType": [
    "ORIGINAL",
    "PRIMARY",
    "M",
    "MB",
    "ND",
    "MOSAIC"
],
  "ImagingFrequency": 123.26,
  "InPlanePhaseEncodingDirectionDICOM": "COL",
  "InstitutionAddress": "Chemin_Queen-Mary_4565_Montreal_District_CA_H3W_1W5",
  "InstitutionName": "IUGM",
  "InstitutionalDepartmentName": "Department",
  "MRAcquisitionType": "2D",
  "MagneticFieldStrength": 3,
  "Manufacturer": "Siemens",
  "ManufacturersModelName": "Prisma_fit",
  "Modality": "MR",
  "MultibandAccelerationFactor": 4,
  "PartialFourier": 1,
  "PatientPosition": "HFS",
  "PercentPhaseFOV": 100,
  "PhaseEncodingDirection": "j",
  "PhaseEncodingSteps": 104,
  "PhaseResolution": 1,
  "PixelBandwidth": 2290,
  "ProcedureStepDescription": "hcptrt_generic",
  "ProtocolName": "func_task-wm_run-1",
  "PulseSequenceDetails": "%CustomerSeq%_cmrr_mbep2d_bold",
  "ReceiveCoilActiveElements": "HC1-7;NC1,2",
  "ReceiveCoilName": "HeadNeck_64",
  "ReconMatrixPE": 104,
  "RepetitionTime": 1.49,
  "SAR": 0.0383402,
  "ScanOptions": "FS",
  "ScanningSequence": "EP",
  "SequenceName": "epfid2d1_104",
  "SequenceVariant": "SK_SS",
  "SeriesDescription": "func_task-wm_run-1",
  "SeriesNumber": 11,
  "ShimSetting": [611, -7258, -8859, 333, 27, -424, 28, 13],
  "SliceThickness": 2,
  "SliceTiming": [0, 0.785, 0.0975, 0.8825, 0.195, 0.98, 0.295, 1.0775, 0.3925, 1.175, 0.49, 1.275, 0.5875, 1.3725, 0.685, 0, 0.785, 0.0975, 0.8825, 0.195, 0.98, 0.295, 1.0775, 0.3925, 1.175, 0.49, 1.275, 0.5875, 1.3725, 0.685, 0, 0.785, 0.0975, 0.8825, 0.195, 0.98, 0.295, 1.0775, 0.3925, 1.175, 0.49, 1.275, 0.5875, 1.3725, 0.685, 0, 0.785, 0.0975, 0.8825, 0.195, 0.98, 0.295, 1.0775, 0.3925, 1.175, 0.49, 1.275, 0.5875, 1.3725, 0.685],
  "SoftwareVersions": "syngo_MR_E11",
  "SpacingBetweenSlices": 2,
  "StationName": "MRC35049",
  "TaskName": "wm",
  "TotalReadoutTime": 0.0576811,
  "TxRefAmp": 241.686,
  "WipMemBlock": "6e8fbe2c-db8e-439c-bdf4-f8a0460cded0||Sequence: R016 ve11c/master r/e634e98; Dec 19 2017 11:00:25 by eja",
  "dcmmeta_affine": [
    [-1.9986417293548584, 0.05652531981468201, -0.047289006412029266, 102.58391571044922],
    [0.07056660950183868, 1.8379011154174805, -0.785582423210144, -63.15861892700195],
    [-0.021253611892461777, 0.7867173552513123, 1.8386473655700684, -71.0588150024414],
    [0.0, 0.0, 0.0, 1.0]
],
  "dcmmeta_reorient_transform": [
    [0.0, -1.0, 0.0, 103.0],
    [1.0, 0.0, 0.0, 0.0],
    [0.0, 0.0, 1.0, 0.0],
    [0.0, 0.0, 0.0, 1.0]
],
  "dcmmeta_shape": [104, 104, 60, 202],
  "dcmmeta_slice_dim": 2,
  "dcmmeta_version": 0.6,
  "global": {
    "const": {
      "AcquisitionMatrix": [104, 0, 0, 104],
      "AngioFlag": "N",
      "BitsAllocated": 16,
      "BitsStored": 16,
      "BodyPartExamined": "BRAIN",
      "Columns": 832,
      "EchoNumbers": 1,
      "EchoTime": 37.0,
      "EchoTrainLength": 104,
      "FlipAngle": 52.0,
      "HighBit": 15,
      "ImageOrientationPatient": [0.99932084913568, -0.0352833032231, -0.0106268055596, 0.02826266015189, 0.91895057702139, -0.3933586900441],
      "ImagePositionPatient": [-856.48682001065, -769.4549767318, 304.07451617409],
      "ImageType": [
        "ORIGINAL",
        "PRIMARY",
        "M",
        "MB",
        "ND",
        "MOSAIC"
],
      "ImagedNucleus": "1H",
      "ImagingFrequency": 123.2596,
      "InPlanePhaseEncodingDirection": "COL",
      "MRAcquisitionType": "2D",
      "MagneticFieldStrength": 3.0,
      "Manufacturer": "SIEMENS",
      "ManufacturerModelName": "Prisma_fit",
      "Modality": "MR",
      "NumberOfAverages": 1.0,
      "NumberOfPhaseEncodingSteps": 104,
      "PercentPhaseFieldOfView": 100.0,
      "PercentSampling": 100.0,
      "PerformedProcedureStepStartTime": "154530.172000",
      "PhotometricInterpretation": "MONOCHROME2",
      "PixelBandwidth": 2290.0,
      "PixelRepresentation": 0,
      "PixelSpacing": [2.0, 2.0],
      "ProtocolName": "func_task-wm_run-1",
      "RepetitionTime": 1490.0,
      "Rows": 832,
      "SAR": 0.03834015376519,
      "SamplesPerPixel": 1,
      "ScanOptions": "FS",
      "ScanningSequence": "EP",
      "SequenceName": "epfid2d1_104",
      "SequenceVariant": [
        "SK",
        "SS"
],
      "SeriesDescription": "func_task-wm_run-1",
      "SeriesNumber": 11,
      "SeriesTime": "160638.231000",
      "SliceLocation": -42.943447156582,
      "SliceThickness": 2.0,
      "SmallestImagePixelValue": 0,
      "SoftwareVersions": "syngo MR E11",
      "SpacingBetweenSlices": 2.0000000608683,
      "SpecificCharacterSet": "ISO_IR 100",
      "StudyID": "1",
      "StudyTime": "154530.095000",
      "TransmitCoilName": "Body",
      "VariableFlipAngleFlag": "N",
      "WindowCenterWidthExplanation": "Algo1",
      "dBdt": 0.0},
    "slices": {}
  },
  "time": {
    "samples": {
      "AcquisitionNumber": [1, 2, 3, 4, 5, 6, 7, 8, 9, 10, 11, 12, 13, 14, 15, 16, 17, 18, 19, 20, 21, 22, 23, 24, 25, 26, 27, 28, 29, 30, 31, 32, 33, 34, 35, 36, 37, 38, 39, 40, 41, 42, 43, 44, 45, 46, 47, 48, 49, 50, 51, 52, 53, 54, 55, 56, 57, 58, 59, 60, 61, 62, 63, 64, 65, 66, 67, 68, 69, 70, 71, 72, 73, 74, 75, 76, 77, 78, 79, 80, 81, 82, 83, 84, 85, 86, 87, 88, 89, 90, 91, 92, 93, 94, 95, 96, 97, 98, 99, 100, 101, 102, 103, 104, 105, 106, 107, 108, 109, 110, 111, 112, 113, 114, 115, 116, 117, 118, 119, 120, 121, 122, 123, 124, 125, 126, 127, 128, 129, 130, 131, 132, 133, 134, 135, 136, 137, 138, 139, 140, 141, 142, 143, 144, 145, 146, 147, 148, 149, 150, 151, 152, 153, 154, 155, 156, 157, 158, 159, 160, 161, 162, 163, 164, 165, 166, 167, 168, 169, 170, 171, 172, 173, 174, 175, 176, 177, 178, 179, 180, 181, 182, 183, 184, 185, 186, 187, 188, 189, 190, 191, 192, 193, 194, 195, 196, 197, 198, 199, 200, 201, 202],
      "AcquisitionTime": ["160521.987500", "160523.477500", "160524.967500", "160526.457500", "160527.947500", "160529.437500", "160530.927500", "160532.417500", "160533.907500", "160535.397500", "160536.887500", "160538.377500", "160539.867500", "160541.357500", "160542.847500", "160544.337500", "160545.827500", "160547.317500", "160548.807500", "160550.297500", "160551.787500", "160553.277500", "160554.767500", "160556.257500", "160557.747500", "160559.237500", "160600.727500", "160602.217500", "160603.707500", "160605.197500", "160606.687500", "160608.177500", "160609.667500", "160611.157500", "160612.647500", "160614.137500", "160615.627500", "160617.117500", "160618.607500", "160620.097500", "160621.587500", "160623.077500", "160624.567500", "160626.057500", "160627.547500", "160629.037500", "160630.527500", "160632.017500", "160633.507500", "160634.997500", "160636.487500", "160637.977500", "160639.467500", "160640.957500", "160642.447500", "160643.937500", "160645.427500", "160646.917500", "160648.407500", "160649.897500", "160651.387500", "160652.877500", "160654.367500", "160655.857500", "160657.347500", "160658.837500", "160700.327500", "160701.817500", "160703.307500", "160704.797500", "160706.287500", "160707.777500", "160709.267500", "160710.757500", "160712.247500", "160713.737500", "160715.227500", "160716.717500", "160718.207500", "160719.697500", "160721.187500", "160722.677500", "160724.167500", "160725.657500", "160727.147500", "160728.637500", "160730.127500", "160731.617500", "160733.107500", "160734.597500", "160736.087500", "160737.577500", "160739.067500", "160740.557500", "160742.047500", "160743.537500", "160745.027500", "160746.517500", "160748.007500", "160749.497500", "160750.987500", "160752.477500", "160753.967500", "160755.457500", "160756.947500", "160758.437500", "160759.927500", "160801.417500", "160802.907500", "160804.397500", "160805.887500", "160807.377500", "160808.867500", "160810.357500", "160811.847500", "160813.337500", "160814.827500", "160816.317500", "160817.807500", "160819.297500", "160820.787500", "160822.277500", "160823.767500", "160825.257500", "160826.747500", "160828.237500", "160829.727500", "160831.217500", "160832.707500", "160834.197500", "160835.687500", "160837.177500", "160838.667500", "160840.157500", "160841.647500", "160843.137500", "160844.627500", "160846.117500", "160847.607500", "160849.097500", "160850.587500", "160852.077500", "160853.567500", "160855.057500", "160856.547500", "160858.037500", "160859.527500", "160901.017500", "160902.507500", "160903.997500", "160905.487500", "160906.977500", "160908.467500", "160909.957500", "160911.447500", "160912.937500", "160914.427500", "160915.917500", "160917.407500", "160918.897500", "160920.387500", "160921.877500", "160923.367500", "160924.857500", "160926.347500", "160927.837500", "160929.327500", "160930.817500", "160932.307500", "160933.797500", "160935.287500", "160936.777500", "160938.267500", "160939.757500", "160941.247500", "160942.737500", "160944.227500", "160945.717500", "160947.207500", "160948.697500", "160950.187500", "160951.677500", "160953.167500", "160954.657500", "160956.147500", "160957.637500", "160959.127500", "161000.617500", "161002.107500", "161003.597500", "161005.087500", "161006.577500", "161008.067500", "161009.557500", "161011.047500", "161012.537500", "161014.027500", "161015.517500", "161017.007500", "161018.497500", "161019.987500", "161021.477500"],
      "ContentTime": ["160638.234000", "160638.237000", "160638.246000", "160638.249000", "160638.252000", "160638.255000", "160638.258000", "160638.263000", "160638.267000", "160638.270000", "160638.273000", "160638.276000", "160638.279000", "160638.282000", "160638.284000", "160638.287000", "160638.290000", "160638.293000", "160638.296000", "160638.298000", "160638.305000", "160638.308000", "160638.310000", "160658.193000", "160658.196000", "160658.198000", "160658.201000", "160658.211000", "160658.214000", "160658.217000", "160658.220000", "160658.223000", "160658.226000", "160658.228000", "160658.231000", "160658.235000", "160658.238000", "160658.241000", "160658.244000", "160658.247000", "160658.249000", "160658.252000", "160658.255000", "160658.258000", "160718.193000", "160718.196000", "160718.198000", "160718.201000", "160718.204000", "160718.207000", "160718.210000", "160718.213000", "160718.216000", "160718.219000", "160718.221000", "160718.224000", "160718.227000", "160718.239000", "160718.242000", "160718.245000", "160718.247000", "160718.250000", "160718.253000", "160718.256000", "160738.194000", "160738.197000", "160738.200000", "160738.203000", "160738.205000", "160738.208000", "160738.211000", "160738.214000", "160738.217000", "160738.220000", "160738.222000", "160738.225000", "160738.228000", "160738.231000", "160738.234000", "160738.237000", "160738.239000", "160738.242000", "160738.245000", "160738.248000", "160758.194000", "160758.197000", "160758.200000", "160758.203000", "160758.205000", "160758.208000", "160758.211000", "160758.230000", "160758.232000", "160758.235000", "160758.238000", "160758.241000", "160758.244000", "160758.247000", "160758.249000", "160758.252000", "160758.255000", "160758.258000", "160758.261000", "160758.264000", "160838.194000", "160838.197000", "160838.200000", "160838.203000", "160838.205000", "160838.208000", "160838.211000", "160838.214000", "160838.217000", "160838.220000", "160838.222000", "160838.225000", "160838.228000", "160838.231000", "160838.234000", "160838.237000", "160838.240000", "160838.243000", "160838.246000", "160838.248000", "160838.251000", "160838.254000", "160838.257000", "160838.260000", "160838.263000", "160838.266000", "160838.268000", "160918.193000", "160918.196000", "160918.199000", "160918.201000", "160918.204000", "160918.207000", "160918.210000", "160918.213000", "160918.216000", "160918.218000", "160918.221000", "160918.224000", "160918.227000", "160918.230000", "160918.233000", "160918.236000", "160918.239000", "160918.241000", "160918.244000", "160918.247000", "160918.250000", "160918.253000", "160918.256000", "160918.258000", "160918.261000", "160918.264000", "160918.267000", "160958.194000", "160958.197000", "160958.200000", "160958.203000", "160958.205000", "160958.208000", "160958.211000", "160958.214000", "160958.217000", "160958.220000", "160958.222000", "160958.225000", "160958.228000", "160958.231000", "160958.234000", "160958.237000", "160958.240000", "160958.243000", "160958.245000", "160958.248000", "160958.251000", "160958.254000", "160958.257000", "160958.260000", "160958.263000", "160958.265000", "160958.268000", "161023.334000", "161023.337000", "161023.340000", "161023.343000", "161023.346000", "161023.349000", "161023.352000", "161023.354000", "161023.357000", "161023.360000", "161023.363000", "161023.366000", "161023.369000", "161023.371000", "161023.374000", "161023.377000", "161023.380000"],
      "InstanceCreationTime": ["160638.234000", "160638.237000", "160638.246000", "160638.249000", "160638.252000", "160638.255000", "160638.258000", "160638.263000", "160638.267000", "160638.270000", "160638.273000", "160638.276000", "160638.279000", "160638.282000", "160638.284000", "160638.287000", "160638.290000", "160638.293000", "160638.296000", "160638.298000", "160638.305000", "160638.308000", "160638.310000", "160658.193000", "160658.196000", "160658.198000", "160658.201000", "160658.211000", "160658.214000", "160658.217000", "160658.220000", "160658.223000", "160658.226000", "160658.228000", "160658.231000", "160658.235000", "160658.238000", "160658.241000", "160658.244000", "160658.247000", "160658.249000", "160658.252000", "160658.255000", "160658.258000", "160718.193000", "160718.196000", "160718.198000", "160718.201000", "160718.204000", "160718.207000", "160718.210000", "160718.213000", "160718.216000", "160718.219000", "160718.221000", "160718.224000", "160718.227000", "160718.239000", "160718.242000", "160718.245000", "160718.247000", "160718.250000", "160718.253000", "160718.256000", "160738.194000", "160738.197000", "160738.200000", "160738.203000", "160738.205000", "160738.208000", "160738.211000", "160738.214000", "160738.217000", "160738.220000", "160738.222000", "160738.225000", "160738.228000", "160738.231000", "160738.234000", "160738.237000", "160738.239000", "160738.242000", "160738.245000", "160738.248000", "160758.194000", "160758.197000", "160758.200000", "160758.203000", "160758.205000", "160758.208000", "160758.211000", "160758.230000", "160758.232000", "160758.235000", "160758.238000", "160758.241000", "160758.244000", "160758.247000", "160758.249000", "160758.252000", "160758.255000", "160758.258000", "160758.261000", "160758.264000", "160838.194000", "160838.197000", "160838.200000", "160838.203000", "160838.205000", "160838.208000", "160838.211000", "160838.214000", "160838.217000", "160838.220000", "160838.222000", "160838.225000", "160838.228000", "160838.231000", "160838.234000", "160838.237000", "160838.240000", "160838.243000", "160838.246000", "160838.248000", "160838.251000", "160838.254000", "160838.257000", "160838.260000", "160838.263000", "160838.266000", "160838.268000", "160918.193000", "160918.196000", "160918.199000", "160918.201000", "160918.204000", "160918.207000", "160918.210000", "160918.213000", "160918.216000", "160918.218000", "160918.221000", "160918.224000", "160918.227000", "160918.230000", "160918.233000", "160918.236000", "160918.239000", "160918.241000", "160918.244000", "160918.247000", "160918.250000", "160918.253000", "160918.256000", "160918.258000", "160918.261000", "160918.264000", "160918.267000", "160958.194000", "160958.197000", "160958.200000", "160958.203000", "160958.205000", "160958.208000", "160958.211000", "160958.214000", "160958.217000", "160958.220000", "160958.222000", "160958.225000", "160958.228000", "160958.231000", "160958.234000", "160958.237000", "160958.240000", "160958.243000", "160958.245000", "160958.248000", "160958.251000", "160958.254000", "160958.257000", "160958.260000", "160958.263000", "160958.265000", "160958.268000", "161023.334000", "161023.337000", "161023.340000", "161023.343000", "161023.346000", "161023.349000", "161023.352000", "161023.354000", "161023.357000", "161023.360000", "161023.363000", "161023.366000", "161023.369000", "161023.371000", "161023.374000", "161023.377000", "161023.380000"],
      "InstanceNumber": [1, 2, 3, 4, 5, 6, 7, 8, 9, 10, 11, 12, 13, 14, 15, 16, 17, 18, 19, 20, 21, 22, 23, 24, 25, 26, 27, 28, 29, 30, 31, 32, 33, 34, 35, 36, 37, 38, 39, 40, 41, 42, 43, 44, 45, 46, 47, 48, 49, 50, 51, 52, 53, 54, 55, 56, 57, 58, 59, 60, 61, 62, 63, 64, 65, 66, 67, 68, 69, 70, 71, 72, 73, 74, 75, 76, 77, 78, 79, 80, 81, 82, 83, 84, 85, 86, 87, 88, 89, 90, 91, 92, 93, 94, 95, 96, 97, 98, 99, 100, 101, 102, 103, 104, 105, 106, 107, 108, 109, 110, 111, 112, 113, 114, 115, 116, 117, 118, 119, 120, 121, 122, 123, 124, 125, 126, 127, 128, 129, 130, 131, 132, 133, 134, 135, 136, 137, 138, 139, 140, 141, 142, 143, 144, 145, 146, 147, 148, 149, 150, 151, 152, 153, 154, 155, 156, 157, 158, 159, 160, 161, 162, 163, 164, 165, 166, 167, 168, 169, 170, 171, 172, 173, 174, 175, 176, 177, 178, 179, 180, 181, 182, 183, 184, 185, 186, 187, 188, 189, 190, 191, 192, 193, 194, 195, 196, 197, 198, 199, 200, 201, 202],
      "LargestImagePixelValue": [54148, 53004, 53341, 52797, 52765, 52708, 52197, 52451, 52222, 50929, 50502, 51160, 50810, 51356, 51498, 50661, 50810, 51121, 50611, 50025, 49932, 49882, 50062, 49759, 49794, 49244, 48605, 48567, 48970, 48405, 47829, 48578, 48719, 48009, 48415, 48579, 48857, 48119, 48674, 48985, 48322, 48249, 48752, 48913, 48957, 48932, 49125, 48462, 48308, 48203, 48372, 47933, 48625, 48493, 48318, 48121, 47836, 48017, 48184, 48332, 48689, 48044, 48604, 48040, 48290, 48343, 47871, 48346, 47932, 47610, 48171, 48050, 47907, 47443, 47564, 48041, 47884, 47749, 47609, 47951, 47781, 47850, 47700, 47708, 47703, 47530, 47713, 47894, 47705, 47841, 47814, 48054, 47541, 47755, 47736, 47896, 47951, 47813, 48769, 48331, 48281, 48123, 48465, 48519, 48324, 47990, 47904, 47732, 48119, 47956, 47757, 48458, 48625, 47468, 47765, 47630, 47977, 47195, 47921, 47995, 47272, 48215, 47742, 47741, 47220, 47610, 47275, 47625, 47320, 47804, 46950, 48111, 47588, 47725, 47160, 47789, 47741, 47714, 47518, 47200, 47286, 47195, 47961, 47633, 47469, 47459, 47694, 47385, 46956, 47621, 46848, 48210, 47402, 47456, 47070, 47126, 47037, 47748, 48326, 47964, 47814, 48006, 47664, 46963, 47559, 48052, 47698, 47355, 46941, 47217, 46968, 46930, 46949, 47112, 46619, 47068, 47049, 47384, 47164, 46993, 47253, 47598, 47206, 47287, 47126, 46913, 47014, 47600, 47406, 47284, 47012, 47572, 46551, 46720, 46898, 47339, 49095, 48118, 48338, 48771, 48051, 49174],
      "WindowCenter": [10234.0, 10209.0, 10207.0, 10175.0, 10153.0, 10142.0, 10133.0, 10122.0, 10115.0, 10110.0, 10121.0, 10136.0, 10139.0, 10140.0, 10151.0, 10149.0, 10157.0, 10163.0, 10159.0, 10153.0, 10136.0, 10126.0, 10123.0, 10123.0, 10124.0, 10117.0, 10119.0, 10122.0, 10126.0, 10128.0, 10148.0, 10155.0, 10141.0, 10124.0, 10114.0, 10102.0, 10100.0, 10103.0, 10109.0, 10097.0, 10091.0, 10092.0, 10091.0, 10096.0, 10106.0, 10124.0, 10126.0, 10116.0, 10129.0, 10123.0, 10105.0, 10078.0, 10089.0, 10126.0, 10138.0, 10116.0, 10107.0, 10097.0, 10096.0, 10102.0, 10116.0, 10115.0, 10106.0, 10098.0, 10102.0, 10095.0, 10095.0, 10103.0, 10102.0, 10106.0, 10112.0, 10113.0, 10113.0, 10093.0, 10098.0, 10104.0, 10120.0, 10139.0, 10143.0, 10145.0, 10134.0, 10132.0, 10125.0, 10134.0, 10134.0, 10112.0, 10099.0, 10094.0, 10086.0, 10095.0, 10101.0, 10118.0, 10125.0, 10122.0, 10122.0, 10103.0, 10097.0, 10087.0, 10089.0, 10077.0, 10057.0, 10030.0, 10028.0, 10061.0, 10075.0, 10076.0, 10075.0, 10069.0, 10074.0, 10075.0, 10076.0, 10085.0, 10092.0, 10097.0, 10106.0, 10108.0, 10113.0, 10100.0, 10113.0, 10127.0, 10123.0, 10130.0, 10133.0, 10142.0, 10143.0, 10137.0, 10119.0, 10114.0, 10099.0, 10104.0, 10107.0, 10124.0, 10134.0, 10143.0, 10136.0, 10135.0, 10124.0, 10121.0, 10114.0, 10116.0, 10123.0, 10109.0, 10105.0, 10092.0, 10095.0, 10087.0, 10094.0, 10105.0, 10099.0, 10104.0, 10098.0, 10116.0, 10115.0, 10129.0, 10126.0, 10110.0, 10083.0, 10071.0, 10064.0, 10069.0, 10078.0, 10082.0, 10082.0, 10068.0, 10065.0, 10096.0, 10120.0, 10115.0, 10116.0, 10116.0, 10108.0, 10113.0, 10120.0, 10117.0, 10109.0, 10107.0, 10096.0, 10090.0, 10086.0, 10081.0, 10086.0, 10085.0, 10085.0, 10091.0, 10088.0, 10095.0, 10096.0, 10087.0, 10076.0, 10089.0, 10120.0, 10130.0, 10101.0, 10088.0, 10079.0, 10057.0, 10080.0, 10077.0, 10084.0, 10073.0, 10050.0, 10053.0],
      "WindowWidth": [22022.0, 21925.0, 21894.0, 21811.0, 21746.0, 21714.0, 21693.0, 21668.0, 21653.0, 21646.0, 21672.0, 21705.0, 21714.0, 21714.0, 21734.0, 21734.0, 21751.0, 21764.0, 21757.0, 21749.0, 21712.0, 21689.0, 21679.0, 21680.0, 21680.0, 21668.0, 21676.0, 21684.0, 21693.0, 21694.0, 21744.0, 21757.0, 21727.0, 21690.0, 21668.0, 21637.0, 21631.0, 21639.0, 21649.0, 21619.0, 21612.0, 21615.0, 21613.0, 21620.0, 21645.0, 21686.0, 21690.0, 21674.0, 21711.0, 21688.0, 21647.0, 21586.0, 21606.0, 21688.0, 21718.0, 21671.0, 21649.0, 21627.0, 21626.0, 21635.0, 21664.0, 21668.0, 21648.0, 21628.0, 21636.0, 21624.0, 21622.0, 21640.0, 21635.0, 21650.0, 21659.0, 21660.0, 21660.0, 21618.0, 21626.0, 21640.0, 21675.0, 21719.0, 21729.0, 21737.0, 21711.0, 21702.0, 21689.0, 21712.0, 21710.0, 21664.0, 21633.0, 21619.0, 21603.0, 21622.0, 21638.0, 21670.0, 21685.0, 21677.0, 21676.0, 21634.0, 21622.0, 21601.0, 21600.0, 21576.0, 21532.0, 21472.0, 21464.0, 21536.0, 21572.0, 21577.0, 21576.0, 21561.0, 21572.0, 21572.0, 21574.0, 21595.0, 21607.0, 21625.0, 21644.0, 21650.0, 21657.0, 21634.0, 21659.0, 21691.0, 21683.0, 21696.0, 21705.0, 21723.0, 21725.0, 21712.0, 21673.0, 21660.0, 21629.0, 21641.0, 21654.0, 21688.0, 21708.0, 21729.0, 21711.0, 21707.0, 21683.0, 21675.0, 21662.0, 21668.0, 21685.0, 21654.0, 21639.0, 21615.0, 21618.0, 21597.0, 21611.0, 21640.0, 21628.0, 21635.0, 21627.0, 21659.0, 21667.0, 21690.0, 21689.0, 21656.0, 21591.0, 21567.0, 21547.0, 21555.0, 21574.0, 21586.0, 21586.0, 21558.0, 21547.0, 21613.0, 21682.0, 21661.0, 21663.0, 21664.0, 21650.0, 21657.0, 21672.0, 21672.0, 21652.0, 21647.0, 21620.0, 21608.0, 21599.0, 21591.0, 21597.0, 21596.0, 21598.0, 21608.0, 21606.0, 21623.0, 21641.0, 21600.0, 21577.0, 21600.0, 21675.0, 21695.0, 21638.0, 21603.0, 21582.0, 21530.0, 21621.0, 21583.0, 21591.0, 21567.0, 21518.0, 21522.0]
    },
    "slices": {}
  }
}