{
  "AcquisitionMatrixPE": 104,
  "AcquisitionNumber": 1,
  "AcquisitionTime": "16:47:0.625000",
  "BandwidthPerPixelPhaseEncode": 17.17,
  "BaseResolution": 104,
  "BodyPartExamined": "BRAIN",
  "CoilString": "HC1-7;NC1_2",
  "ConsistencyInfo": "N4_VE11C_LATEST_20160120",
  "ConversionSoftware": "dcm2niix",
  "ConversionSoftwareVersion": "v1.0.20190720  (JP2:OpenJPEG) GCC7.3.0",
  "DerivedVendorReportedEchoSpacing": 0.000560011,
  "DeviceSerialNumber": "167006",
  "DwellTime": 2.1e-06,
  "EchoTime": 0.037,
  "EchoTrainLength": 104,
  "EffectiveEchoSpacing": 0.000560011,
  "FlipAngle": 52,
  "ImageComments": "Unaliased_MB4_PE3_LB",
  "ImageOrientationPatientDICOM": [0.999321, -0.0352833, -0.0106268, 0.0282627, 0.918951, -0.393359],
  "ImageType": [
    "ORIGINAL",
    "PRIMARY",
    "M",
    "MB",
    "ND",
    "MOSAIC"
],
  "ImagingFrequency": 123.26,
  "InPlanePhaseEncodingDirectionDICOM": "COL",
  "InstitutionAddress": "Chemin_Queen-Mary_4565_Montreal_District_CA_H3W_1W5",
  "InstitutionName": "IUGM",
  "InstitutionalDepartmentName": "Department",
  "MRAcquisitionType": "2D",
  "MagneticFieldStrength": 3,
  "Manufacturer": "Siemens",
  "ManufacturersModelName": "Prisma_fit",
  "Modality": "MR",
  "MultibandAccelerationFactor": 4,
  "PartialFourier": 1,
  "PatientPosition": "HFS",
  "PercentPhaseFOV": 100,
  "PhaseEncodingDirection": "j",
  "PhaseEncodingSteps": 104,
  "PhaseResolution": 1,
  "PixelBandwidth": 2290,
  "ProcedureStepDescription": "hcptrt_generic",
  "ProtocolName": "func_task-relational_run-2",
  "PulseSequenceDetails": "%CustomerSeq%_cmrr_mbep2d_bold",
  "ReceiveCoilActiveElements": "HC1-7;NC1,2",
  "ReceiveCoilName": "HeadNeck_64",
  "ReconMatrixPE": 104,
  "RepetitionTime": 1.49,
  "SAR": 0.0380929,
  "ScanOptions": "FS",
  "ScanningSequence": "EP",
  "SequenceName": "epfid2d1_104",
  "SequenceVariant": "SK_SS",
  "SeriesDescription": "func_task-relational_run-2",
  "SeriesNumber": 31,
  "ShimSetting": [611, -7258, -8859, 333, 27, -424, 28, 13],
  "SliceThickness": 2,
  "SliceTiming": [0, 0.785, 0.0975, 0.8825, 0.195, 0.98, 0.295, 1.0775, 0.3925, 1.175, 0.49, 1.2725, 0.5875, 1.3725, 0.685, 0, 0.785, 0.0975, 0.8825, 0.195, 0.98, 0.295, 1.0775, 0.3925, 1.175, 0.49, 1.2725, 0.5875, 1.3725, 0.685, 0, 0.785, 0.0975, 0.8825, 0.195, 0.98, 0.295, 1.0775, 0.3925, 1.175, 0.49, 1.2725, 0.5875, 1.3725, 0.685, 0, 0.785, 0.0975, 0.8825, 0.195, 0.98, 0.295, 1.0775, 0.3925, 1.175, 0.49, 1.2725, 0.5875, 1.3725, 0.685],
  "SoftwareVersions": "syngo_MR_E11",
  "SpacingBetweenSlices": 2,
  "StationName": "MRC35049",
  "TaskName": "relational",
  "TotalReadoutTime": 0.0576811,
  "TxRefAmp": 241.686,
  "WipMemBlock": "cad637c9-d9d7-4f92-ac7d-385efc0024c9||Sequence: R016 ve11c/master r/e634e98; Dec 19 2017 11:00:25 by eja",
  "dcmmeta_affine": [
    [-1.9986417293548584, 0.05652531981468201, -0.047289006412029266, 102.58391571044922],
    [0.07056660950183868, 1.8379011154174805, -0.785582423210144, -63.15861892700195],
    [-0.021253611892461777, 0.7867173552513123, 1.8386473655700684, -71.0588150024414],
    [0.0, 0.0, 0.0, 1.0]
],
  "dcmmeta_reorient_transform": [
    [0.0, -1.0, 0.0, 103.0],
    [1.0, 0.0, 0.0, 0.0],
    [0.0, 0.0, 1.0, 0.0],
    [0.0, 0.0, 0.0, 1.0]
],
  "dcmmeta_shape": [104, 104, 60, 119],
  "dcmmeta_slice_dim": 2,
  "dcmmeta_version": 0.6,
  "global": {
    "const": {
      "AcquisitionMatrix": [104, 0, 0, 104],
      "AngioFlag": "N",
      "BitsAllocated": 16,
      "BitsStored": 16,
      "BodyPartExamined": "BRAIN",
      "Columns": 832,
      "EchoNumbers": 1,
      "EchoTime": 37.0,
      "EchoTrainLength": 104,
      "FlipAngle": 52.0,
      "HighBit": 15,
      "ImageOrientationPatient": [0.99932084913568, -0.0352833032231, -0.0106268055596, 0.02826266015189, 0.91895057702139, -0.3933586900441],
      "ImagePositionPatient": [-856.48682001065, -769.4549767318, 304.07451617409],
      "ImageType": [
        "ORIGINAL",
        "PRIMARY",
        "M",
        "MB",
        "ND",
        "MOSAIC"
],
      "ImagedNucleus": "1H",
      "ImagingFrequency": 123.259608,
      "InPlanePhaseEncodingDirection": "COL",
      "MRAcquisitionType": "2D",
      "MagneticFieldStrength": 3.0,
      "Manufacturer": "SIEMENS",
      "ManufacturerModelName": "Prisma_fit",
      "Modality": "MR",
      "NumberOfAverages": 1.0,
      "NumberOfPhaseEncodingSteps": 104,
      "PercentPhaseFieldOfView": 100.0,
      "PercentSampling": 100.0,
      "PerformedProcedureStepStartTime": "154530.172000",
      "PhotometricInterpretation": "MONOCHROME2",
      "PixelBandwidth": 2290.0,
      "PixelRepresentation": 0,
      "PixelSpacing": [2.0, 2.0],
      "ProtocolName": "func_task-relational_run-2",
      "RepetitionTime": 1490.0,
      "Rows": 832,
      "SAR": 0.03809291227576,
      "SamplesPerPixel": 1,
      "ScanOptions": "FS",
      "ScanningSequence": "EP",
      "SequenceName": "epfid2d1_104",
      "SequenceVariant": [
        "SK",
        "SS"
],
      "SeriesDescription": "func_task-relational_run-2",
      "SeriesNumber": 31,
      "SeriesTime": "164834.178000",
      "SliceLocation": -42.943447156582,
      "SliceThickness": 2.0,
      "SmallestImagePixelValue": 0,
      "SoftwareVersions": "syngo MR E11",
      "SpacingBetweenSlices": 2.0000000608683,
      "SpecificCharacterSet": "ISO_IR 100",
      "StudyID": "1",
      "StudyTime": "154530.095000",
      "TransmitCoilName": "Body",
      "VariableFlipAngleFlag": "N",
      "WindowCenterWidthExplanation": "Algo1",
      "dBdt": 0.0},
    "slices": {}
  },
  "time": {
    "samples": {
      "AcquisitionNumber": [1, 2, 3, 4, 5, 6, 7, 8, 9, 10, 11, 12, 13, 14, 15, 16, 17, 18, 19, 20, 21, 22, 23, 24, 25, 26, 27, 28, 29, 30, 31, 32, 33, 34, 35, 36, 37, 38, 39, 40, 41, 42, 43, 44, 45, 46, 47, 48, 49, 50, 51, 52, 53, 54, 55, 56, 57, 58, 59, 60, 61, 62, 63, 64, 65, 66, 67, 68, 69, 70, 71, 72, 73, 74, 75, 76, 77, 78, 79, 80, 81, 82, 83, 84, 85, 86, 87, 88, 89, 90, 91, 92, 93, 94, 95, 96, 97, 98, 99, 100, 101, 102, 103, 104, 105, 106, 107, 108, 109, 110, 111, 112, 113, 114, 115, 116, 117, 118, 119],
      "AcquisitionTime": ["164700.625000", "164702.115000", "164703.605000", "164705.095000", "164706.585000", "164708.075000", "164709.565000", "164711.055000", "164712.545000", "164714.035000", "164715.525000", "164717.015000", "164718.505000", "164719.995000", "164721.485000", "164722.975000", "164724.465000", "164725.955000", "164727.445000", "164728.935000", "164730.425000", "164731.915000", "164733.405000", "164734.895000", "164736.385000", "164737.875000", "164739.365000", "164740.855000", "164742.345000", "164743.835000", "164745.325000", "164746.815000", "164748.305000", "164749.795000", "164751.285000", "164752.775000", "164754.265000", "164755.755000", "164757.245000", "164758.735000", "164800.225000", "164801.715000", "164803.205000", "164804.695000", "164806.185000", "164807.675000", "164809.165000", "164810.655000", "164812.145000", "164813.635000", "164815.125000", "164816.615000", "164818.105000", "164819.595000", "164821.085000", "164822.575000", "164824.065000", "164825.555000", "164827.045000", "164828.535000", "164830.025000", "164831.515000", "164833.005000", "164834.495000", "164835.985000", "164837.475000", "164838.965000", "164840.455000", "164841.945000", "164843.435000", "164844.925000", "164846.415000", "164847.905000", "164849.395000", "164850.885000", "164852.375000", "164853.865000", "164855.355000", "164856.845000", "164858.335000", "164859.825000", "164901.315000", "164902.805000", "164904.295000", "164905.785000", "164907.275000", "164908.765000", "164910.255000", "164911.745000", "164913.235000", "164914.725000", "164916.215000", "164917.705000", "164919.195000", "164920.685000", "164922.175000", "164923.665000", "164925.155000", "164926.645000", "164928.135000", "164929.625000", "164931.115000", "164932.605000", "164934.095000", "164935.585000", "164937.075000", "164938.565000", "164940.055000", "164941.545000", "164943.035000", "164944.525000", "164946.015000", "164947.505000", "164948.995000", "164950.485000", "164951.975000", "164953.465000", "164954.955000", "164956.445000"],
      "ContentTime": ["164834.181000", "164834.185000", "164834.188000", "164834.192000", "164834.195000", "164834.198000", "164834.201000", "164834.204000", "164834.207000", "164834.210000", "164834.213000", "164834.216000", "164834.219000", "164834.221000", "164834.224000", "164834.227000", "164834.230000", "164834.233000", "164834.236000", "164834.239000", "164834.241000", "164834.244000", "164834.247000", "164834.250000", "164834.253000", "164834.255000", "164834.258000", "164834.261000", "164834.264000", "164834.268000", "164834.270000", "164834.273000", "164834.276000", "164834.279000", "164834.282000", "164834.285000", "164834.288000", "164834.290000", "164834.293000", "164854.145000", "164854.148000", "164854.151000", "164854.154000", "164854.156000", "164854.159000", "164854.162000", "164854.165000", "164854.168000", "164854.171000", "164854.180000", "164854.183000", "164854.186000", "164854.188000", "164854.191000", "164854.200000", "164854.203000", "164854.206000", "164854.209000", "164854.212000", "164854.221000", "164914.145000", "164914.148000", "164914.151000", "164914.154000", "164914.156000", "164914.159000", "164914.162000", "164914.165000", "164914.168000", "164914.171000", "164914.174000", "164914.176000", "164914.179000", "164914.182000", "164914.185000", "164914.188000", "164914.191000", "164914.193000", "164914.196000", "164914.199000", "164934.145000", "164934.148000", "164934.151000", "164934.154000", "164934.156000", "164934.159000", "164934.162000", "164934.165000", "164934.168000", "164934.171000", "164934.174000", "164934.177000", "164934.180000", "164934.183000", "164934.186000", "164934.188000", "164934.191000", "164934.194000", "164934.197000", "164934.200000", "164958.624000", "164958.627000", "164958.630000", "164958.632000", "164958.635000", "164958.638000", "164958.641000", "164958.644000", "164958.647000", "164958.650000", "164958.653000", "164958.656000", "164958.659000", "164958.662000", "164958.664000", "164958.667000", "164958.670000", "164958.673000", "164958.677000"],
      "InstanceCreationTime": ["164834.181000", "164834.185000", "164834.188000", "164834.192000", "164834.195000", "164834.198000", "164834.201000", "164834.204000", "164834.207000", "164834.210000", "164834.213000", "164834.216000", "164834.219000", "164834.221000", "164834.224000", "164834.227000", "164834.230000", "164834.233000", "164834.236000", "164834.239000", "164834.241000", "164834.244000", "164834.247000", "164834.250000", "164834.253000", "164834.255000", "164834.258000", "164834.261000", "164834.264000", "164834.268000", "164834.270000", "164834.273000", "164834.276000", "164834.279000", "164834.282000", "164834.285000", "164834.288000", "164834.290000", "164834.293000", "164854.145000", "164854.148000", "164854.151000", "164854.154000", "164854.156000", "164854.159000", "164854.162000", "164854.165000", "164854.168000", "164854.171000", "164854.180000", "164854.183000", "164854.186000", "164854.188000", "164854.191000", "164854.200000", "164854.203000", "164854.206000", "164854.209000", "164854.212000", "164854.221000", "164914.145000", "164914.148000", "164914.151000", "164914.154000", "164914.156000", "164914.159000", "164914.162000", "164914.165000", "164914.168000", "164914.171000", "164914.174000", "164914.176000", "164914.179000", "164914.182000", "164914.185000", "164914.188000", "164914.191000", "164914.193000", "164914.196000", "164914.199000", "164934.145000", "164934.148000", "164934.151000", "164934.154000", "164934.156000", "164934.159000", "164934.162000", "164934.165000", "164934.168000", "164934.171000", "164934.174000", "164934.177000", "164934.180000", "164934.183000", "164934.186000", "164934.188000", "164934.191000", "164934.194000", "164934.197000", "164934.200000", "164958.624000", "164958.627000", "164958.630000", "164958.632000", "164958.635000", "164958.638000", "164958.641000", "164958.644000", "164958.647000", "164958.650000", "164958.653000", "164958.656000", "164958.659000", "164958.662000", "164958.664000", "164958.667000", "164958.670000", "164958.673000", "164958.677000"],
      "InstanceNumber": [1, 2, 3, 4, 5, 6, 7, 8, 9, 10, 11, 12, 13, 14, 15, 16, 17, 18, 19, 20, 21, 22, 23, 24, 25, 26, 27, 28, 29, 30, 31, 32, 33, 34, 35, 36, 37, 38, 39, 40, 41, 42, 43, 44, 45, 46, 47, 48, 49, 50, 51, 52, 53, 54, 55, 56, 57, 58, 59, 60, 61, 62, 63, 64, 65, 66, 67, 68, 69, 70, 71, 72, 73, 74, 75, 76, 77, 78, 79, 80, 81, 82, 83, 84, 85, 86, 87, 88, 89, 90, 91, 92, 93, 94, 95, 96, 97, 98, 99, 100, 101, 102, 103, 104, 105, 106, 107, 108, 109, 110, 111, 112, 113, 114, 115, 116, 117, 118, 119],
      "LargestImagePixelValue": [56566, 54247, 53712, 54058, 53865, 53671, 52886, 53074, 52644, 52379, 52595, 52313, 52788, 52312, 52952, 52549, 53175, 52513, 52852, 52076, 52483, 52808, 52394, 53137, 52505, 52867, 52559, 52686, 51947, 52423, 51345, 52093, 51835, 52314, 52330, 51465, 52011, 51562, 51505, 51970, 51749, 52195, 51791, 51145, 51694, 51050, 51255, 51140, 51588, 51780, 51624, 51458, 51865, 51834, 51976, 51887, 52270, 51592, 52307, 52218, 51646, 52264, 52414, 52442, 52050, 52605, 52127, 52361, 51328, 53125, 53004, 52397, 53015, 52763, 52791, 53206, 52688, 52808, 52197, 52654, 52104, 52756, 52524, 52536, 52372, 52537, 53153, 51912, 52714, 52168, 52357, 52442, 52695, 51731, 52165, 51972, 52303, 52227, 52544, 52523, 51840, 52187, 51526, 52424, 52504, 52229, 52543, 52293, 52885, 52298, 52051, 52484, 52519, 53859, 52473, 52847, 52737, 52947, 52504],
      "WindowCenter": [10254.0, 10188.0, 10185.0, 10184.0, 10163.0, 10149.0, 10127.0, 10130.0, 10131.0, 10139.0, 10149.0, 10150.0, 10162.0, 10165.0, 10174.0, 10170.0, 10184.0, 10185.0, 10184.0, 10180.0, 10186.0, 10176.0, 10160.0, 10156.0, 10141.0, 10139.0, 10139.0, 10147.0, 10144.0, 10143.0, 10139.0, 10136.0, 10136.0, 10141.0, 10148.0, 10153.0, 10157.0, 10144.0, 10134.0, 10124.0, 10123.0, 10125.0, 10132.0, 10127.0, 10134.0, 10144.0, 10145.0, 10139.0, 10142.0, 10135.0, 10136.0, 10143.0, 10149.0, 10144.0, 10134.0, 10141.0, 10140.0, 10137.0, 10139.0, 10139.0, 10125.0, 10116.0, 10126.0, 10144.0, 10149.0, 10143.0, 10126.0, 10117.0, 10086.0, 10128.0, 10129.0, 10124.0, 10121.0, 10114.0, 10110.0, 10113.0, 10122.0, 10130.0, 10126.0, 10124.0, 10118.0, 10127.0, 10125.0, 10133.0, 10148.0, 10152.0, 10149.0, 10136.0, 10140.0, 10135.0, 10132.0, 10130.0, 10129.0, 10126.0, 10132.0, 10143.0, 10140.0, 10141.0, 10147.0, 10164.0, 10181.0, 10188.0, 10169.0, 10152.0, 10140.0, 10140.0, 10148.0, 10149.0, 10146.0, 10134.0, 10122.0, 10120.0, 10207.0, 10232.0, 10214.0, 10202.0, 10184.0, 10172.0, 10163.0],
      "WindowWidth": [22052.0, 21866.0, 21835.0, 21822.0, 21763.0, 21727.0, 21677.0, 21685.0, 21685.0, 21702.0, 21721.0, 21726.0, 21748.0, 21759.0, 21778.0, 21775.0, 21801.0, 21803.0, 21802.0, 21794.0, 21806.0, 21784.0, 21749.0, 21736.0, 21709.0, 21702.0, 21701.0, 21717.0, 21719.0, 21713.0, 21707.0, 21702.0, 21702.0, 21709.0, 21721.0, 21735.0, 21743.0, 21716.0, 21696.0, 21674.0, 21671.0, 21675.0, 21690.0, 21681.0, 21694.0, 21717.0, 21718.0, 21707.0, 21714.0, 21696.0, 21701.0, 21716.0, 21726.0, 21717.0, 21693.0, 21709.0, 21704.0, 21699.0, 21696.0, 21698.0, 21672.0, 21651.0, 21665.0, 21705.0, 21722.0, 21709.0, 21675.0, 21657.0, 21589.0, 21668.0, 21673.0, 21663.0, 21655.0, 21639.0, 21628.0, 21637.0, 21657.0, 21674.0, 21670.0, 21661.0, 21653.0, 21666.0, 21668.0, 21683.0, 21715.0, 21730.0, 21717.0, 21694.0, 21700.0, 21692.0, 21681.0, 21673.0, 21672.0, 21674.0, 21684.0, 21713.0, 21703.0, 21707.0, 21718.0, 21757.0, 21800.0, 21818.0, 21777.0, 21735.0, 21703.0, 21706.0, 21723.0, 21724.0, 21717.0, 21694.0, 21661.0, 21654.0, 21890.0, 21931.0, 21890.0, 21857.0, 21814.0, 21781.0, 21763.0]
    },
    "slices": {}
  }
}