{
  "AcquisitionMatrixPE": 104,
  "AcquisitionNumber": 1,
  "AcquisitionTime": "16:51:30.510000",
  "BandwidthPerPixelPhaseEncode": 17.17,
  "BaseResolution": 104,
  "BodyPartExamined": "BRAIN",
  "CoilString": "HC1-7;NC1_2",
  "ConsistencyInfo": "N4_VE11C_LATEST_20160120",
  "ConversionSoftware": "dcm2niix",
  "ConversionSoftwareVersion": "v1.0.20190720  (JP2:OpenJPEG) GCC7.3.0",
  "DerivedVendorReportedEchoSpacing": 0.000560011,
  "DeviceSerialNumber": "167006",
  "DwellTime": 2.1e-06,
  "EchoTime": 0.037,
  "EchoTrainLength": 104,
  "EffectiveEchoSpacing": 0.000560011,
  "FlipAngle": 52,
  "ImageComments": "Unaliased_MB4_PE3_LB",
  "ImageOrientationPatientDICOM": [0.999321, -0.0352833, -0.0106268, 0.0282627, 0.918951, -0.393359],
  "ImageType": [
    "ORIGINAL",
    "PRIMARY",
    "M",
    "MB",
    "ND",
    "MOSAIC"
],
  "ImagingFrequency": 123.26,
  "InPlanePhaseEncodingDirectionDICOM": "COL",
  "InstitutionAddress": "Chemin_Queen-Mary_4565_Montreal_District_CA_H3W_1W5",
  "InstitutionName": "IUGM",
  "InstitutionalDepartmentName": "Department",
  "MRAcquisitionType": "2D",
  "MagneticFieldStrength": 3,
  "Manufacturer": "Siemens",
  "ManufacturersModelName": "Prisma_fit",
  "Modality": "MR",
  "MultibandAccelerationFactor": 4,
  "PartialFourier": 1,
  "PatientPosition": "HFS",
  "PercentPhaseFOV": 100,
  "PhaseEncodingDirection": "j",
  "PhaseEncodingSteps": 104,
  "PhaseResolution": 1,
  "PixelBandwidth": 2290,
  "ProcedureStepDescription": "hcptrt_generic",
  "ProtocolName": "func_task-wm_run-2",
  "PulseSequenceDetails": "%CustomerSeq%_cmrr_mbep2d_bold",
  "ReceiveCoilActiveElements": "HC1-7;NC1,2",
  "ReceiveCoilName": "HeadNeck_64",
  "ReconMatrixPE": 104,
  "RepetitionTime": 1.49,
  "SAR": 0.0383402,
  "ScanOptions": "FS",
  "ScanningSequence": "EP",
  "SequenceName": "epfid2d1_104",
  "SequenceVariant": "SK_SS",
  "SeriesDescription": "func_task-wm_run-2",
  "SeriesNumber": 33,
  "ShimSetting": [610, -7258, -8859, 332, 20, -424, 27, 16],
  "SliceThickness": 2,
  "SliceTiming": [0, 0.7825, 0.0975, 0.8825, 0.195, 0.98, 0.2925, 1.0775, 0.3925, 1.175, 0.49, 1.2725, 0.5875, 1.3725, 0.685, 0, 0.7825, 0.0975, 0.8825, 0.195, 0.98, 0.2925, 1.0775, 0.3925, 1.175, 0.49, 1.2725, 0.5875, 1.3725, 0.685, 0, 0.7825, 0.0975, 0.8825, 0.195, 0.98, 0.2925, 1.0775, 0.3925, 1.175, 0.49, 1.2725, 0.5875, 1.3725, 0.685, 0, 0.7825, 0.0975, 0.8825, 0.195, 0.98, 0.2925, 1.0775, 0.3925, 1.175, 0.49, 1.2725, 0.5875, 1.3725, 0.685],
  "SoftwareVersions": "syngo_MR_E11",
  "SpacingBetweenSlices": 2,
  "StationName": "MRC35049",
  "TaskName": "wm",
  "TotalReadoutTime": 0.0576811,
  "TxRefAmp": 241.686,
  "WipMemBlock": "53a200f0-fce2-48a0-8765-090e6846bf54||Sequence: R016 ve11c/master r/e634e98; Dec 19 2017 11:00:25 by eja",
  "dcmmeta_affine": [
    [-1.9986417293548584, 0.05652531981468201, -0.047289006412029266, 102.58391571044922],
    [0.07056660950183868, 1.8379011154174805, -0.785582423210144, -63.15861892700195],
    [-0.021253611892461777, 0.7867173552513123, 1.8386473655700684, -71.0588150024414],
    [0.0, 0.0, 0.0, 1.0]
],
  "dcmmeta_reorient_transform": [
    [0.0, -1.0, 0.0, 103.0],
    [1.0, 0.0, 0.0, 0.0],
    [0.0, 0.0, 1.0, 0.0],
    [0.0, 0.0, 0.0, 1.0]
],
  "dcmmeta_shape": [104, 104, 60, 202],
  "dcmmeta_slice_dim": 2,
  "dcmmeta_version": 0.6,
  "global": {
    "const": {
      "AcquisitionMatrix": [104, 0, 0, 104],
      "AngioFlag": "N",
      "BitsAllocated": 16,
      "BitsStored": 16,
      "BodyPartExamined": "BRAIN",
      "Columns": 832,
      "EchoNumbers": 1,
      "EchoTime": 37.0,
      "EchoTrainLength": 104,
      "FlipAngle": 52.0,
      "HighBit": 15,
      "ImageOrientationPatient": [0.99932084913568, -0.0352833032231, -0.0106268055596, 0.02826266015189, 0.91895057702139, -0.3933586900441],
      "ImagePositionPatient": [-856.48682001065, -769.4549767318, 304.07451617409],
      "ImageType": [
        "ORIGINAL",
        "PRIMARY",
        "M",
        "MB",
        "ND",
        "MOSAIC"
],
      "ImagedNucleus": "1H",
      "ImagingFrequency": 123.259608,
      "InPlanePhaseEncodingDirection": "COL",
      "MRAcquisitionType": "2D",
      "MagneticFieldStrength": 3.0,
      "Manufacturer": "SIEMENS",
      "ManufacturerModelName": "Prisma_fit",
      "Modality": "MR",
      "NumberOfAverages": 1.0,
      "NumberOfPhaseEncodingSteps": 104,
      "PercentPhaseFieldOfView": 100.0,
      "PercentSampling": 100.0,
      "PerformedProcedureStepStartTime": "154530.172000",
      "PhotometricInterpretation": "MONOCHROME2",
      "PixelBandwidth": 2290.0,
      "PixelRepresentation": 0,
      "PixelSpacing": [2.0, 2.0],
      "ProtocolName": "func_task-wm_run-2",
      "RepetitionTime": 1490.0,
      "Rows": 832,
      "SAR": 0.03834015376519,
      "SamplesPerPixel": 1,
      "ScanOptions": "FS",
      "ScanningSequence": "EP",
      "SequenceName": "epfid2d1_104",
      "SequenceVariant": [
        "SK",
        "SS"
],
      "SeriesDescription": "func_task-wm_run-2",
      "SeriesNumber": 33,
      "SeriesTime": "165230.786000",
      "SliceLocation": -42.943447156582,
      "SliceThickness": 2.0,
      "SmallestImagePixelValue": 0,
      "SoftwareVersions": "syngo MR E11",
      "SpacingBetweenSlices": 2.0000000608683,
      "SpecificCharacterSet": "ISO_IR 100",
      "StudyID": "1",
      "StudyTime": "154530.095000",
      "TransmitCoilName": "Body",
      "VariableFlipAngleFlag": "N",
      "WindowCenterWidthExplanation": "Algo1",
      "dBdt": 0.0},
    "slices": {}
  },
  "time": {
    "samples": {
      "AcquisitionNumber": [1, 2, 3, 4, 5, 6, 7, 8, 9, 10, 11, 12, 13, 14, 15, 16, 17, 18, 19, 20, 21, 22, 23, 24, 25, 26, 27, 28, 29, 30, 31, 32, 33, 34, 35, 36, 37, 38, 39, 40, 41, 42, 43, 44, 45, 46, 47, 48, 49, 50, 51, 52, 53, 54, 55, 56, 57, 58, 59, 60, 61, 62, 63, 64, 65, 66, 67, 68, 69, 70, 71, 72, 73, 74, 75, 76, 77, 78, 79, 80, 81, 82, 83, 84, 85, 86, 87, 88, 89, 90, 91, 92, 93, 94, 95, 96, 97, 98, 99, 100, 101, 102, 103, 104, 105, 106, 107, 108, 109, 110, 111, 112, 113, 114, 115, 116, 117, 118, 119, 120, 121, 122, 123, 124, 125, 126, 127, 128, 129, 130, 131, 132, 133, 134, 135, 136, 137, 138, 139, 140, 141, 142, 143, 144, 145, 146, 147, 148, 149, 150, 151, 152, 153, 154, 155, 156, 157, 158, 159, 160, 161, 162, 163, 164, 165, 166, 167, 168, 169, 170, 171, 172, 173, 174, 175, 176, 177, 178, 179, 180, 181, 182, 183, 184, 185, 186, 187, 188, 189, 190, 191, 192, 193, 194, 195, 196, 197, 198, 199, 200, 201, 202],
      "AcquisitionTime": ["165130.510000", "165132.000000", "165133.490000", "165134.980000", "165136.470000", "165137.960000", "165139.450000", "165140.940000", "165142.430000", "165143.920000", "165145.410000", "165146.900000", "165148.390000", "165149.880000", "165151.370000", "165152.860000", "165154.350000", "165155.840000", "165157.330000", "165158.820000", "165200.310000", "165201.800000", "165203.290000", "165204.780000", "165206.270000", "165207.760000", "165209.250000", "165210.740000", "165212.230000", "165213.720000", "165215.210000", "165216.700000", "165218.190000", "165219.680000", "165221.170000", "165222.660000", "165224.150000", "165225.640000", "165227.130000", "165228.620000", "165230.110000", "165231.600000", "165233.090000", "165234.580000", "165236.070000", "165237.560000", "165239.050000", "165240.540000", "165242.030000", "165243.520000", "165245.010000", "165246.500000", "165247.990000", "165249.480000", "165250.970000", "165252.460000", "165253.950000", "165255.440000", "165256.930000", "165258.420000", "165259.910000", "165301.400000", "165302.890000", "165304.380000", "165305.870000", "165307.360000", "165308.850000", "165310.340000", "165311.830000", "165313.320000", "165314.810000", "165316.300000", "165317.790000", "165319.280000", "165320.770000", "165322.260000", "165323.750000", "165325.240000", "165326.730000", "165328.220000", "165329.710000", "165331.200000", "165332.690000", "165334.180000", "165335.670000", "165337.160000", "165338.650000", "165340.140000", "165341.630000", "165343.120000", "165344.610000", "165346.100000", "165347.590000", "165349.080000", "165350.570000", "165352.060000", "165353.550000", "165355.040000", "165356.530000", "165358.020000", "165359.510000", "165401.000000", "165402.490000", "165403.980000", "165405.470000", "165406.960000", "165408.450000", "165409.940000", "165411.430000", "165412.920000", "165414.410000", "165415.900000", "165417.390000", "165418.880000", "165420.370000", "165421.860000", "165423.350000", "165424.840000", "165426.330000", "165427.820000", "165429.310000", "165430.800000", "165432.290000", "165433.780000", "165435.270000", "165436.760000", "165438.250000", "165439.740000", "165441.230000", "165442.720000", "165444.210000", "165445.700000", "165447.190000", "165448.680000", "165450.170000", "165451.660000", "165453.150000", "165454.640000", "165456.130000", "165457.620000", "165459.110000", "165500.600000", "165502.090000", "165503.580000", "165505.070000", "165506.560000", "165508.050000", "165509.540000", "165511.030000", "165512.520000", "165514.010000", "165515.500000", "165516.990000", "165518.480000", "165519.970000", "165521.460000", "165522.950000", "165524.440000", "165525.930000", "165527.420000", "165528.910000", "165530.400000", "165531.890000", "165533.380000", "165534.870000", "165536.360000", "165537.850000", "165539.340000", "165540.830000", "165542.320000", "165543.810000", "165545.300000", "165546.790000", "165548.280000", "165549.770000", "165551.260000", "165552.750000", "165554.240000", "165555.730000", "165557.220000", "165558.710000", "165600.200000", "165601.690000", "165603.180000", "165604.670000", "165606.160000", "165607.650000", "165609.140000", "165610.630000", "165612.120000", "165613.610000", "165615.100000", "165616.590000", "165618.080000", "165619.570000", "165621.060000", "165622.550000", "165624.040000", "165625.530000", "165627.020000", "165628.510000", "165630.000000"],
      "ContentTime": ["165230.788000", "165230.792000", "165230.795000", "165230.798000", "165230.800000", "165250.741000", "165250.744000", "165250.747000", "165250.749000", "165250.752000", "165250.755000", "165250.758000", "165250.761000", "165250.764000", "165250.777000", "165250.780000", "165250.782000", "165250.785000", "165250.788000", "165250.791000", "165250.794000", "165250.797000", "165250.799000", "165250.802000", "165250.805000", "165310.741000", "165310.744000", "165310.747000", "165310.749000", "165310.752000", "165310.755000", "165310.758000", "165310.761000", "165310.764000", "165310.766000", "165310.769000", "165310.772000", "165310.775000", "165310.799000", "165310.802000", "165310.804000", "165310.807000", "165310.810000", "165310.813000", "165310.816000", "165330.741000", "165330.744000", "165330.747000", "165330.750000", "165330.753000", "165330.755000", "165330.758000", "165330.762000", "165330.765000", "165330.768000", "165330.785000", "165330.788000", "165330.791000", "165330.793000", "165330.796000", "165330.799000", "165330.802000", "165330.805000", "165330.808000", "165330.810000", "165330.813000", "165350.740000", "165350.749000", "165350.752000", "165350.754000", "165350.757000", "165350.760000", "165350.763000", "165350.766000", "165350.769000", "165350.772000", "165350.775000", "165350.777000", "165350.780000", "165350.784000", "165350.787000", "165350.790000", "165350.793000", "165350.796000", "165350.798000", "165350.801000", "165410.740000", "165410.743000", "165410.746000", "165410.749000", "165410.751000", "165410.754000", "165410.757000", "165410.760000", "165410.763000", "165410.766000", "165410.769000", "165410.772000", "165410.775000", "165410.778000", "165410.780000", "165410.783000", "165410.786000", "165410.789000", "165410.792000", "165410.795000", "165450.741000", "165450.747000", "165450.750000", "165450.753000", "165450.756000", "165450.758000", "165450.761000", "165450.764000", "165450.767000", "165450.770000", "165450.773000", "165450.776000", "165450.779000", "165450.781000", "165450.784000", "165450.787000", "165450.790000", "165450.793000", "165450.796000", "165450.799000", "165450.802000", "165450.804000", "165450.807000", "165450.810000", "165450.813000", "165450.816000", "165450.820000", "165530.741000", "165530.744000", "165530.747000", "165530.750000", "165530.753000", "165530.755000", "165530.758000", "165530.761000", "165530.764000", "165530.767000", "165530.770000", "165530.773000", "165530.776000", "165530.778000", "165530.781000", "165530.784000", "165530.787000", "165530.790000", "165530.793000", "165530.795000", "165530.798000", "165530.801000", "165530.804000", "165530.807000", "165530.810000", "165530.813000", "165530.816000", "165610.740000", "165610.743000", "165610.746000", "165610.749000", "165610.752000", "165610.755000", "165610.757000", "165610.760000", "165610.763000", "165610.766000", "165610.882000", "165610.885000", "165610.887000", "165610.890000", "165610.893000", "165610.896000", "165610.899000", "165610.902000", "165610.905000", "165610.907000", "165610.910000", "165610.913000", "165610.916000", "165610.919000", "165610.922000", "165610.925000", "165610.927000", "165632.325000", "165632.328000", "165632.331000", "165632.334000", "165632.340000", "165632.343000", "165632.346000", "165632.349000", "165632.352000", "165632.355000", "165632.358000", "165632.360000", "165632.364000", "165632.366000", "165632.369000"],
      "InstanceCreationTime": ["165230.788000", "165230.792000", "165230.795000", "165230.798000", "165230.800000", "165250.741000", "165250.744000", "165250.747000", "165250.749000", "165250.752000", "165250.755000", "165250.758000", "165250.761000", "165250.764000", "165250.777000", "165250.780000", "165250.782000", "165250.785000", "165250.788000", "165250.791000", "165250.794000", "165250.797000", "165250.799000", "165250.802000", "165250.805000", "165310.741000", "165310.744000", "165310.747000", "165310.749000", "165310.752000", "165310.755000", "165310.758000", "165310.761000", "165310.764000", "165310.766000", "165310.769000", "165310.772000", "165310.775000", "165310.799000", "165310.802000", "165310.804000", "165310.807000", "165310.810000", "165310.813000", "165310.816000", "165330.741000", "165330.744000", "165330.747000", "165330.750000", "165330.753000", "165330.755000", "165330.758000", "165330.762000", "165330.765000", "165330.768000", "165330.785000", "165330.788000", "165330.791000", "165330.793000", "165330.796000", "165330.799000", "165330.802000", "165330.805000", "165330.808000", "165330.810000", "165330.813000", "165350.740000", "165350.749000", "165350.752000", "165350.754000", "165350.757000", "165350.760000", "165350.763000", "165350.766000", "165350.769000", "165350.772000", "165350.775000", "165350.777000", "165350.780000", "165350.784000", "165350.787000", "165350.790000", "165350.793000", "165350.796000", "165350.798000", "165350.801000", "165410.740000", "165410.743000", "165410.746000", "165410.749000", "165410.751000", "165410.754000", "165410.757000", "165410.760000", "165410.763000", "165410.766000", "165410.769000", "165410.772000", "165410.775000", "165410.778000", "165410.780000", "165410.783000", "165410.786000", "165410.789000", "165410.792000", "165410.795000", "165450.741000", "165450.747000", "165450.750000", "165450.753000", "165450.756000", "165450.758000", "165450.761000", "165450.764000", "165450.767000", "165450.770000", "165450.773000", "165450.776000", "165450.779000", "165450.781000", "165450.784000", "165450.787000", "165450.790000", "165450.793000", "165450.796000", "165450.799000", "165450.802000", "165450.804000", "165450.807000", "165450.810000", "165450.813000", "165450.816000", "165450.820000", "165530.741000", "165530.744000", "165530.747000", "165530.750000", "165530.753000", "165530.755000", "165530.758000", "165530.761000", "165530.764000", "165530.767000", "165530.770000", "165530.773000", "165530.776000", "165530.778000", "165530.781000", "165530.784000", "165530.787000", "165530.790000", "165530.793000", "165530.795000", "165530.798000", "165530.801000", "165530.804000", "165530.807000", "165530.810000", "165530.813000", "165530.816000", "165610.740000", "165610.743000", "165610.746000", "165610.749000", "165610.752000", "165610.755000", "165610.757000", "165610.760000", "165610.763000", "165610.766000", "165610.882000", "165610.885000", "165610.887000", "165610.890000", "165610.893000", "165610.896000", "165610.899000", "165610.902000", "165610.905000", "165610.907000", "165610.910000", "165610.913000", "165610.916000", "165610.919000", "165610.922000", "165610.925000", "165610.927000", "165632.325000", "165632.328000", "165632.331000", "165632.334000", "165632.340000", "165632.343000", "165632.346000", "165632.349000", "165632.352000", "165632.355000", "165632.358000", "165632.360000", "165632.364000", "165632.366000", "165632.369000"],
      "InstanceNumber": [1, 2, 3, 4, 5, 6, 7, 8, 9, 10, 11, 12, 13, 14, 15, 16, 17, 18, 19, 20, 21, 22, 23, 24, 25, 26, 27, 28, 29, 30, 31, 32, 33, 34, 35, 36, 37, 38, 39, 40, 41, 42, 43, 44, 45, 46, 47, 48, 49, 50, 51, 52, 53, 54, 55, 56, 57, 58, 59, 60, 61, 62, 63, 64, 65, 66, 67, 68, 69, 70, 71, 72, 73, 74, 75, 76, 77, 78, 79, 80, 81, 82, 83, 84, 85, 86, 87, 88, 89, 90, 91, 92, 93, 94, 95, 96, 97, 98, 99, 100, 101, 102, 103, 104, 105, 106, 107, 108, 109, 110, 111, 112, 113, 114, 115, 116, 117, 118, 119, 120, 121, 122, 123, 124, 125, 126, 127, 128, 129, 130, 131, 132, 133, 134, 135, 136, 137, 138, 139, 140, 141, 142, 143, 144, 145, 146, 147, 148, 149, 150, 151, 152, 153, 154, 155, 156, 157, 158, 159, 160, 161, 162, 163, 164, 165, 166, 167, 168, 169, 170, 171, 172, 173, 174, 175, 176, 177, 178, 179, 180, 181, 182, 183, 184, 185, 186, 187, 188, 189, 190, 191, 192, 193, 194, 195, 196, 197, 198, 199, 200, 201, 202],
      "LargestImagePixelValue": [57138, 54959, 54366, 53350, 53476, 52772, 53489, 52959, 53041, 53164, 52750, 52854, 52859, 52774, 52488, 52514, 52697, 52695, 52753, 52164, 52210, 52167, 52519, 52521, 52567, 52489, 52192, 52233, 52268, 52372, 51633, 51972, 52107, 51821, 51908, 51425, 51791, 51703, 51733, 51408, 51638, 51252, 51157, 50655, 50857, 51377, 50753, 51199, 50680, 50906, 50577, 50659, 51310, 50040, 51012, 50826, 50176, 50485, 50653, 50168, 50421, 49686, 49514, 49704, 49065, 49405, 48947, 49584, 48663, 49444, 48946, 49154, 48822, 49607, 49005, 49165, 48972, 49019, 48712, 48960, 49194, 48696, 48821, 49533, 49186, 49022, 48747, 49320, 48921, 48620, 49288, 49768, 49746, 48837, 49422, 50526, 49766, 49353, 49124, 48734, 48826, 49143, 48028, 48238, 48469, 48098, 48362, 47857, 48188, 47781, 47969, 48155, 47811, 47773, 48133, 48144, 47892, 47322, 48274, 47954, 47160, 47788, 47609, 47316, 47108, 47180, 47683, 47438, 47459, 47227, 47386, 47716, 47790, 47632, 47237, 47433, 46986, 47292, 46907, 46905, 46708, 47131, 47176, 46597, 46998, 46574, 46787, 46275, 46645, 46142, 46081, 46105, 45877, 45656, 46140, 46332, 45866, 45706, 46073, 45780, 45706, 45956, 46257, 46176, 46023, 47348, 47481, 47591, 47146, 48247, 48989, 48618, 48306, 48132, 48191, 48302, 47892, 47991, 48434, 47589, 47772, 48103, 47833, 47463, 47361, 47487, 47305, 47664, 47338, 48059, 48287, 47861, 47895, 47869, 48058, 47434, 48013, 47791, 48121, 48625, 48735, 48168],
      "WindowCenter": [10275.0, 10213.0, 10188.0, 10169.0, 10158.0, 10158.0, 10171.0, 10173.0, 10182.0, 10175.0, 10174.0, 10174.0, 10180.0, 10190.0, 10200.0, 10195.0, 10192.0, 10183.0, 10176.0, 10161.0, 10160.0, 10165.0, 10173.0, 10174.0, 10166.0, 10164.0, 10166.0, 10165.0, 10156.0, 10154.0, 10143.0, 10158.0, 10166.0, 10154.0, 10140.0, 10123.0, 10121.0, 10128.0, 10136.0, 10130.0, 10122.0, 10106.0, 10105.0, 10115.0, 10117.0, 10121.0, 10113.0, 10122.0, 10107.0, 10111.0, 10125.0, 10134.0, 10126.0, 10104.0, 10103.0, 10089.0, 10095.0, 10112.0, 10129.0, 10134.0, 10126.0, 10121.0, 10121.0, 10113.0, 10097.0, 10095.0, 10097.0, 10105.0, 10108.0, 10119.0, 10123.0, 10125.0, 10118.0, 10121.0, 10116.0, 10131.0, 10134.0, 10133.0, 10117.0, 10108.0, 10104.0, 10105.0, 10107.0, 10127.0, 10123.0, 10113.0, 10105.0, 10103.0, 10096.0, 10104.0, 10111.0, 10127.0, 10128.0, 10129.0, 10115.0, 10115.0, 10110.0, 10114.0, 10131.0, 10120.0, 10117.0, 10098.0, 10081.0, 10073.0, 10080.0, 10096.0, 10099.0, 10098.0, 10104.0, 10100.0, 10109.0, 10111.0, 10119.0, 10114.0, 10105.0, 10108.0, 10099.0, 10095.0, 10106.0, 10104.0, 10098.0, 10117.0, 10118.0, 10112.0, 10098.0, 10094.0, 10099.0, 10095.0, 10094.0, 10085.0, 10087.0, 10094.0, 10085.0, 10073.0, 10064.0, 10072.0, 10075.0, 10077.0, 10070.0, 10069.0, 10077.0, 10092.0, 10095.0, 10088.0, 10086.0, 10072.0, 10070.0, 10076.0, 10085.0, 10083.0, 10090.0, 10092.0, 10084.0, 10074.0, 10086.0, 10087.0, 10083.0, 10073.0, 10062.0, 10046.0, 10054.0, 10070.0, 10074.0, 10065.0, 10068.0, 10073.0, 10074.0, 10089.0, 10084.0, 10098.0, 10108.0, 10095.0, 10086.0, 10084.0, 10084.0, 10085.0, 10078.0, 10085.0, 10076.0, 10061.0, 10058.0, 10066.0, 10069.0, 10077.0, 10077.0, 10064.0, 10068.0, 10077.0, 10088.0, 10104.0, 10113.0, 10113.0, 10113.0, 10104.0, 10094.0, 10080.0, 10147.0, 10142.0, 10140.0, 10102.0, 10052.0, 10020.0],
      "WindowWidth": [22102.0, 21929.0, 21847.0, 21795.0, 21761.0, 21757.0, 21782.0, 21788.0, 21804.0, 21792.0, 21789.0, 21788.0, 21799.0, 21823.0, 21846.0, 21837.0, 21828.0, 21806.0, 21795.0, 21763.0, 21760.0, 21768.0, 21782.0, 21787.0, 21770.0, 21764.0, 21772.0, 21768.0, 21746.0, 21743.0, 21723.0, 21752.0, 21771.0, 21747.0, 21712.0, 21675.0, 21668.0, 21686.0, 21701.0, 21691.0, 21674.0, 21638.0, 21632.0, 21659.0, 21663.0, 21667.0, 21652.0, 21701.0, 21644.0, 21644.0, 21681.0, 21701.0, 21684.0, 21637.0, 21627.0, 21602.0, 21613.0, 21651.0, 21687.0, 21704.0, 21686.0, 21675.0, 21676.0, 21660.0, 21626.0, 21619.0, 21626.0, 21645.0, 21650.0, 21672.0, 21683.0, 21691.0, 21678.0, 21680.0, 21671.0, 21700.0, 21711.0, 21704.0, 21673.0, 21655.0, 21644.0, 21647.0, 21651.0, 21691.0, 21688.0, 21664.0, 21646.0, 21639.0, 21626.0, 21647.0, 21655.0, 21694.0, 21692.0, 21695.0, 21668.0, 21664.0, 21655.0, 21665.0, 21701.0, 21682.0, 21678.0, 21628.0, 21598.0, 21575.0, 21591.0, 21624.0, 21632.0, 21630.0, 21640.0, 21634.0, 21656.0, 21664.0, 21677.0, 21670.0, 21651.0, 21649.0, 21631.0, 21628.0, 21648.0, 21643.0, 21633.0, 21674.0, 21672.0, 21662.0, 21635.0, 21624.0, 21633.0, 21628.0, 21623.0, 21607.0, 21612.0, 21624.0, 21606.0, 21579.0, 21557.0, 21576.0, 21583.0, 21587.0, 21574.0, 21569.0, 21587.0, 21617.0, 21624.0, 21609.0, 21607.0, 21581.0, 21573.0, 21585.0, 21604.0, 21604.0, 21618.0, 21623.0, 21605.0, 21582.0, 21604.0, 21610.0, 21602.0, 21579.0, 21556.0, 21522.0, 21538.0, 21571.0, 21582.0, 21565.0, 21567.0, 21573.0, 21578.0, 21612.0, 21601.0, 21628.0, 21645.0, 21617.0, 21598.0, 21594.0, 21595.0, 21597.0, 21584.0, 21594.0, 21576.0, 21546.0, 21535.0, 21552.0, 21560.0, 21578.0, 21579.0, 21553.0, 21561.0, 21580.0, 21607.0, 21640.0, 21660.0, 21660.0, 21662.0, 21642.0, 21618.0, 21589.0, 21757.0, 21746.0, 21738.0, 21650.0, 21536.0, 21459.0]
    },
    "slices": {}
  }
}