{
  "AcquisitionMatrixPE": 104,
  "AcquisitionNumber": 1,
  "AcquisitionTime": "09:11:33.530000",
  "BandwidthPerPixelPhaseEncode": 17.17,
  "BaseResolution": 104,
  "BodyPartExamined": "BRAIN",
  "CoilString": "HC1-7;NC1_2",
  "ConsistencyInfo": "N4_VE11C_LATEST_20160120",
  "ConversionSoftware": "dcm2niix",
  "ConversionSoftwareVersion": "v1.0.20190720  (JP2:OpenJPEG) GCC7.3.0",
  "DerivedVendorReportedEchoSpacing": 0.000560011,
  "DeviceSerialNumber": "167006",
  "DwellTime": 2.1e-06,
  "EchoTime": 0.037,
  "EchoTrainLength": 104,
  "EffectiveEchoSpacing": 0.000560011,
  "FlipAngle": 52,
  "ImageComments": "Unaliased_MB4_PE3_LB",
  "ImageOrientationPatientDICOM": [0.999918, 0.00982544, 0.00819292, -0.00453746, 0.871164, -0.49097],
  "ImageType": [
    "ORIGINAL",
    "PRIMARY",
    "M",
    "MB",
    "ND",
    "MOSAIC"
],
  "ImagingFrequency": 123.259,
  "InPlanePhaseEncodingDirectionDICOM": "COL",
  "InstitutionAddress": "Chemin_Queen-Mary_4565_Montreal_District_CA_H3W_1W5",
  "InstitutionName": "IUGM",
  "InstitutionalDepartmentName": "Department",
  "MRAcquisitionType": "2D",
  "MagneticFieldStrength": 3,
  "Manufacturer": "Siemens",
  "ManufacturersModelName": "Prisma_fit",
  "Modality": "MR",
  "MultibandAccelerationFactor": 4,
  "PartialFourier": 1,
  "PatientPosition": "HFS",
  "PercentPhaseFOV": 100,
  "PhaseEncodingDirection": "j",
  "PhaseEncodingSteps": 104,
  "PhaseResolution": 1,
  "PixelBandwidth": 2290,
  "ProcedureStepDescription": "hcptrt_generic",
  "ProtocolName": "func_task-restingstate_run-1",
  "PulseSequenceDetails": "%CustomerSeq%_cmrr_mbep2d_bold",
  "ReceiveCoilActiveElements": "HC1-7;NC1,2",
  "ReceiveCoilName": "HeadNeck_64",
  "ReconMatrixPE": 104,
  "RepetitionTime": 1.49,
  "SAR": 0.0372698,
  "ScanOptions": "FS",
  "ScanningSequence": "EP",
  "SequenceName": "epfid2d1_104",
  "SequenceVariant": "SK_SS",
  "SeriesDescription": "func_task-restingstate_run-1",
  "SeriesNumber": 9,
  "ShimSetting": [621, -7198, -8870, 422, -27, -147, 45, -25],
  "SliceThickness": 2,
  "SliceTiming": [0, 0.7825, 0.0975, 0.8825, 0.195, 0.98, 0.2925, 1.0775, 0.3925, 1.175, 0.49, 1.2725, 0.5875, 1.3725, 0.685, 0, 0.7825, 0.0975, 0.8825, 0.195, 0.98, 0.2925, 1.0775, 0.3925, 1.175, 0.49, 1.2725, 0.5875, 1.3725, 0.685, 0, 0.7825, 0.0975, 0.8825, 0.195, 0.98, 0.2925, 1.0775, 0.3925, 1.175, 0.49, 1.2725, 0.5875, 1.3725, 0.685, 0, 0.7825, 0.0975, 0.8825, 0.195, 0.98, 0.2925, 1.0775, 0.3925, 1.175, 0.49, 1.2725, 0.5875, 1.3725, 0.685],
  "SoftwareVersions": "syngo_MR_E11",
  "SpacingBetweenSlices": 2,
  "StationName": "MRC35049",
  "TaskName": "restingstate",
  "TotalReadoutTime": 0.0576811,
  "TxRefAmp": 248.282,
  "WipMemBlock": "bd67e0ab-3858-4b05-80a1-335aaac585aa||Sequence: R016 ve11c/master r/e634e98; Dec 19 2017 11:00:25 by eja",
  "dcmmeta_affine": [
    [-1.9998363256454468, -0.009074920788407326, 0.023922758176922798, 103.22956085205078],
    [-0.01965087093412876, 1.7423288822174072, -0.9817860722541809, -59.23006820678711],
    [0.016385840252041817, 0.9819408059120178, 1.7422754764556885, -93.13334655761719],
    [0.0, 0.0, 0.0, 1.0]
],
  "dcmmeta_reorient_transform": [
    [0.0, -1.0, 0.0, 103.0],
    [1.0, 0.0, 0.0, 0.0],
    [0.0, 0.0, 1.0, 0.0],
    [0.0, 0.0, 0.0, 1.0]
],
  "dcmmeta_shape": [104, 104, 60, 600],
  "dcmmeta_slice_dim": 2,
  "dcmmeta_version": 0.6,
  "global": {
    "const": {
      "AcquisitionMatrix": [104, 0, 0, 104],
      "AngioFlag": "N",
      "BitsAllocated": 16,
      "BitsStored": 16,
      "BodyPartExamined": "BRAIN",
      "Columns": 832,
      "EchoNumbers": 1,
      "EchoTime": 37.0,
      "EchoTrainLength": 104,
      "FlipAngle": 52.0,
      "HighBit": 15,
      "ImageOrientationPatient": [0.99991816508454, 0.00982543579825, 0.00819292044022, -0.0045374601818, 0.87116443912594, -0.4909703977405],
      "ImagePositionPatient": [-826.93199691393, -761.59043705143, 359.46855627377],
      "ImageType": [
        "ORIGINAL",
        "PRIMARY",
        "M",
        "MB",
        "ND",
        "MOSAIC"
],
      "ImagedNucleus": "1H",
      "ImagingFrequency": 123.259439,
      "InPlanePhaseEncodingDirection": "COL",
      "MRAcquisitionType": "2D",
      "MagneticFieldStrength": 3.0,
      "Manufacturer": "SIEMENS",
      "ManufacturerModelName": "Prisma_fit",
      "Modality": "MR",
      "NumberOfAverages": 1.0,
      "NumberOfPhaseEncodingSteps": 104,
      "PercentPhaseFieldOfView": 100.0,
      "PercentSampling": 100.0,
      "PerformedProcedureStepStartTime": "085355.731000",
      "PhotometricInterpretation": "MONOCHROME2",
      "PixelBandwidth": 2290.0,
      "PixelRepresentation": 0,
      "PixelSpacing": [2.0, 2.0],
      "ProtocolName": "func_task-restingstate_run-1",
      "RepetitionTime": 1490.0,
      "Rows": 832,
      "SAR": 0.03726976625292,
      "SamplesPerPixel": 1,
      "ScanOptions": "FS",
      "ScanningSequence": "EP",
      "SequenceName": "epfid2d1_104",
      "SequenceVariant": [
        "SK",
        "SS"
],
      "SeriesDescription": "func_task-restingstate_run-1",
      "SeriesNumber": 9,
      "SeriesTime": "091302.977000",
      "SliceLocation": -50.821578868807,
      "SliceThickness": 2.0,
      "SmallestImagePixelValue": 0,
      "SoftwareVersions": "syngo MR E11",
      "SpacingBetweenSlices": 1.9999999883684,
      "SpecificCharacterSet": "ISO_IR 100",
      "StudyID": "1",
      "StudyTime": "085355.587000",
      "TransmitCoilName": "Body",
      "VariableFlipAngleFlag": "N",
      "WindowCenterWidthExplanation": "Algo1",
      "dBdt": 0.0},
    "slices": {}
  },
  "time": {
    "samples": {
      "AcquisitionNumber": [1, 2, 3, 4, 5, 6, 7, 8, 9, 10, 11, 12, 13, 14, 15, 16, 17, 18, 19, 20, 21, 22, 23, 24, 25, 26, 27, 28, 29, 30, 31, 32, 33, 34, 35, 36, 37, 38, 39, 40, 41, 42, 43, 44, 45, 46, 47, 48, 49, 50, 51, 52, 53, 54, 55, 56, 57, 58, 59, 60, 61, 62, 63, 64, 65, 66, 67, 68, 69, 70, 71, 72, 73, 74, 75, 76, 77, 78, 79, 80, 81, 82, 83, 84, 85, 86, 87, 88, 89, 90, 91, 92, 93, 94, 95, 96, 97, 98, 99, 100, 101, 102, 103, 104, 105, 106, 107, 108, 109, 110, 111, 112, 113, 114, 115, 116, 117, 118, 119, 120, 121, 122, 123, 124, 125, 126, 127, 128, 129, 130, 131, 132, 133, 134, 135, 136, 137, 138, 139, 140, 141, 142, 143, 144, 145, 146, 147, 148, 149, 150, 151, 152, 153, 154, 155, 156, 157, 158, 159, 160, 161, 162, 163, 164, 165, 166, 167, 168, 169, 170, 171, 172, 173, 174, 175, 176, 177, 178, 179, 180, 181, 182, 183, 184, 185, 186, 187, 188, 189, 190, 191, 192, 193, 194, 195, 196, 197, 198, 199, 200, 201, 202, 203, 204, 205, 206, 207, 208, 209, 210, 211, 212, 213, 214, 215, 216, 217, 218, 219, 220, 221, 222, 223, 224, 225, 226, 227, 228, 229, 230, 231, 232, 233, 234, 235, 236, 237, 238, 239, 240, 241, 242, 243, 244, 245, 246, 247, 248, 249, 250, 251, 252, 253, 254, 255, 256, 257, 258, 259, 260, 261, 262, 263, 264, 265, 266, 267, 268, 269, 270, 271, 272, 273, 274, 275, 276, 277, 278, 279, 280, 281, 282, 283, 284, 285, 286, 287, 288, 289, 290, 291, 292, 293, 294, 295, 296, 297, 298, 299, 300, 301, 302, 303, 304, 305, 306, 307, 308, 309, 310, 311, 312, 313, 314, 315, 316, 317, 318, 319, 320, 321, 322, 323, 324, 325, 326, 327, 328, 329, 330, 331, 332, 333, 334, 335, 336, 337, 338, 339, 340, 341, 342, 343, 344, 345, 346, 347, 348, 349, 350, 351, 352, 353, 354, 355, 356, 357, 358, 359, 360, 361, 362, 363, 364, 365, 366, 367, 368, 369, 370, 371, 372, 373, 374, 375, 376, 377, 378, 379, 380, 381, 382, 383, 384, 385, 386, 387, 388, 389, 390, 391, 392, 393, 394, 395, 396, 397, 398, 399, 400, 401, 402, 403, 404, 405, 406, 407, 408, 409, 410, 411, 412, 413, 414, 415, 416, 417, 418, 419, 420, 421, 422, 423, 424, 425, 426, 427, 428, 429, 430, 431, 432, 433, 434, 435, 436, 437, 438, 439, 440, 441, 442, 443, 444, 445, 446, 447, 448, 449, 450, 451, 452, 453, 454, 455, 456, 457, 458, 459, 460, 461, 462, 463, 464, 465, 466, 467, 468, 469, 470, 471, 472, 473, 474, 475, 476, 477, 478, 479, 480, 481, 482, 483, 484, 485, 486, 487, 488, 489, 490, 491, 492, 493, 494, 495, 496, 497, 498, 499, 500, 501, 502, 503, 504, 505, 506, 507, 508, 509, 510, 511, 512, 513, 514, 515, 516, 517, 518, 519, 520, 521, 522, 523, 524, 525, 526, 527, 528, 529, 530, 531, 532, 533, 534, 535, 536, 537, 538, 539, 540, 541, 542, 543, 544, 545, 546, 547, 548, 549, 550, 551, 552, 553, 554, 555, 556, 557, 558, 559, 560, 561, 562, 563, 564, 565, 566, 567, 568, 569, 570, 571, 572, 573, 574, 575, 576, 577, 578, 579, 580, 581, 582, 583, 584, 585, 586, 587, 588, 589, 590, 591, 592, 593, 594, 595, 596, 597, 598, 599, 600],
      "AcquisitionTime": ["091133.530000", "091135.020000", "091136.510000", "091138.000000", "091139.490000", "091140.980000", "091142.470000", "091143.960000", "091145.450000", "091146.940000", "091148.430000", "091149.920000", "091151.410000", "091152.900000", "091154.390000", "091155.880000", "091157.370000", "091158.860000", "091200.350000", "091201.840000", "091203.330000", "091204.820000", "091206.310000", "091207.800000", "091209.290000", "091210.780000", "091212.270000", "091213.760000", "091215.250000", "091216.740000", "091218.230000", "091219.720000", "091221.210000", "091222.700000", "091224.190000", "091225.680000", "091227.170000", "091228.660000", "091230.150000", "091231.640000", "091233.130000", "091234.620000", "091236.110000", "091237.600000", "091239.090000", "091240.580000", "091242.070000", "091243.560000", "091245.050000", "091246.540000", "091248.030000", "091249.520000", "091251.010000", "091252.500000", "091253.990000", "091255.480000", "091256.970000", "091258.460000", "091259.950000", "091301.440000", "091302.930000", "091304.420000", "091305.910000", "091307.400000", "091308.890000", "091310.380000", "091311.870000", "091313.360000", "091314.850000", "091316.340000", "091317.830000", "091319.320000", "091320.810000", "091322.300000", "091323.790000", "091325.280000", "091326.770000", "091328.260000", "091329.750000", "091331.240000", "091332.730000", "091334.220000", "091335.710000", "091337.200000", "091338.690000", "091340.180000", "091341.670000", "091343.160000", "091344.650000", "091346.140000", "091347.630000", "091349.120000", "091350.610000", "091352.100000", "091353.590000", "091355.080000", "091356.570000", "091358.060000", "091359.550000", "091401.040000", "091402.530000", "091404.020000", "091405.510000", "091407.000000", "091408.490000", "091409.980000", "091411.470000", "091412.960000", "091414.450000", "091415.940000", "091417.430000", "091418.920000", "091420.410000", "091421.900000", "091423.390000", "091424.880000", "091426.370000", "091427.860000", "091429.350000", "091430.840000", "091432.330000", "091433.820000", "091435.310000", "091436.800000", "091438.290000", "091439.780000", "091441.270000", "091442.760000", "091444.250000", "091445.740000", "091447.230000", "091448.720000", "091450.210000", "091451.700000", "091453.190000", "091454.680000", "091456.170000", "091457.660000", "091459.150000", "091500.640000", "091502.130000", "091503.620000", "091505.110000", "091506.600000", "091508.090000", "091509.580000", "091511.070000", "091512.560000", "091514.050000", "091515.540000", "091517.030000", "091518.520000", "091520.010000", "091521.500000", "091522.990000", "091524.480000", "091525.970000", "091527.460000", "091528.950000", "091530.440000", "091531.930000", "091533.420000", "091534.910000", "091536.400000", "091537.890000", "091539.380000", "091540.870000", "091542.360000", "091543.850000", "091545.340000", "091546.830000", "091548.320000", "091549.810000", "091551.300000", "091552.790000", "091554.280000", "091555.770000", "091557.260000", "091558.750000", "091600.240000", "091601.730000", "091603.220000", "091604.710000", "091606.200000", "091607.690000", "091609.180000", "091610.670000", "091612.160000", "091613.650000", "091615.140000", "091616.630000", "091618.120000", "091619.610000", "091621.100000", "091622.590000", "091624.080000", "091625.570000", "091627.060000", "091628.550000", "091630.040000", "091631.530000", "091633.020000", "091634.510000", "091636.000000", "091637.490000", "091638.980000", "091640.470000", "091641.960000", "091643.450000", "091644.940000", "091646.430000", "091647.920000", "091649.410000", "091650.900000", "091652.390000", "091653.880000", "091655.370000", "091656.860000", "091658.350000", "091659.840000", "091701.330000", "091702.820000", "091704.310000", "091705.800000", "091707.290000", "091708.780000", "091710.270000", "091711.760000", "091713.250000", "091714.740000", "091716.230000", "091717.720000", "091719.210000", "091720.700000", "091722.190000", "091723.680000", "091725.170000", "091726.660000", "091728.150000", "091729.640000", "091731.130000", "091732.620000", "091734.110000", "091735.600000", "091737.090000", "091738.580000", "091740.070000", "091741.560000", "091743.050000", "091744.540000", "091746.030000", "091747.520000", "091749.010000", "091750.500000", "091751.990000", "091753.480000", "091754.970000", "091756.460000", "091757.950000", "091759.440000", "091800.930000", "091802.420000", "091803.910000", "091805.400000", "091806.890000", "091808.380000", "091809.870000", "091811.360000", "091812.850000", "091814.340000", "091815.830000", "091817.320000", "091818.810000", "091820.300000", "091821.790000", "091823.280000", "091824.770000", "091826.260000", "091827.750000", "091829.240000", "091830.730000", "091832.220000", "091833.710000", "091835.200000", "091836.690000", "091838.180000", "091839.670000", "091841.160000", "091842.650000", "091844.140000", "091845.630000", "091847.120000", "091848.610000", "091850.100000", "091851.590000", "091853.080000", "091854.570000", "091856.060000", "091857.550000", "091859.040000", "091900.530000", "091902.020000", "091903.510000", "091905.000000", "091906.490000", "091907.980000", "091909.470000", "091910.960000", "091912.450000", "091913.940000", "091915.430000", "091916.920000", "091918.410000", "091919.900000", "091921.390000", "091922.880000", "091924.370000", "091925.860000", "091927.350000", "091928.840000", "091930.330000", "091931.820000", "091933.310000", "091934.800000", "091936.290000", "091937.780000", "091939.270000", "091940.760000", "091942.250000", "091943.740000", "091945.230000", "091946.720000", "091948.210000", "091949.700000", "091951.190000", "091952.680000", "091954.170000", "091955.660000", "091957.150000", "091958.640000", "092000.130000", "092001.620000", "092003.110000", "092004.600000", "092006.090000", "092007.580000", "092009.070000", "092010.560000", "092012.050000", "092013.540000", "092015.030000", "092016.520000", "092018.010000", "092019.500000", "092020.990000", "092022.480000", "092023.970000", "092025.460000", "092026.950000", "092028.440000", "092029.930000", "092031.420000", "092032.910000", "092034.400000", "092035.890000", "092037.380000", "092038.870000", "092040.360000", "092041.850000", "092043.340000", "092044.830000", "092046.320000", "092047.810000", "092049.300000", "092050.790000", "092052.280000", "092053.770000", "092055.260000", "092056.750000", "092058.240000", "092059.730000", "092101.220000", "092102.710000", "092104.200000", "092105.690000", "092107.180000", "092108.670000", "092110.160000", "092111.650000", "092113.140000", "092114.630000", "092116.120000", "092117.610000", "092119.100000", "092120.590000", "092122.080000", "092123.570000", "092125.060000", "092126.550000", "092128.040000", "092129.530000", "092131.020000", "092132.510000", "092134.000000", "092135.490000", "092136.980000", "092138.470000", "092139.960000", "092141.450000", "092142.940000", "092144.430000", "092145.920000", "092147.410000", "092148.900000", "092150.390000", "092151.880000", "092153.370000", "092154.860000", "092156.350000", "092157.840000", "092159.330000", "092200.820000", "092202.310000", "092203.800000", "092205.290000", "092206.780000", "092208.270000", "092209.760000", "092211.250000", "092212.740000", "092214.230000", "092215.720000", "092217.210000", "092218.700000", "092220.190000", "092221.680000", "092223.170000", "092224.660000", "092226.150000", "092227.640000", "092229.130000", "092230.620000", "092232.110000", "092233.600000", "092235.090000", "092236.580000", "092238.070000", "092239.560000", "092241.050000", "092242.540000", "092244.030000", "092245.520000", "092247.010000", "092248.500000", "092249.990000", "092251.480000", "092252.970000", "092254.460000", "092255.950000", "092257.440000", "092258.930000", "092300.420000", "092301.910000", "092303.400000", "092304.890000", "092306.380000", "092307.870000", "092309.360000", "092310.850000", "092312.340000", "092313.830000", "092315.320000", "092316.810000", "092318.300000", "092319.790000", "092321.280000", "092322.770000", "092324.260000", "092325.750000", "092327.240000", "092328.730000", "092330.220000", "092331.710000", "092333.200000", "092334.690000", "092336.180000", "092337.670000", "092339.160000", "092340.650000", "092342.140000", "092343.630000", "092345.120000", "092346.610000", "092348.100000", "092349.590000", "092351.080000", "092352.570000", "092354.060000", "092355.550000", "092357.040000", "092358.530000", "092400.020000", "092401.510000", "092403.000000", "092404.490000", "092405.980000", "092407.470000", "092408.960000", "092410.450000", "092411.940000", "092413.430000", "092414.920000", "092416.410000", "092417.900000", "092419.390000", "092420.880000", "092422.370000", "092423.860000", "092425.350000", "092426.840000", "092428.330000", "092429.820000", "092431.310000", "092432.800000", "092434.290000", "092435.780000", "092437.270000", "092438.760000", "092440.250000", "092441.740000", "092443.230000", "092444.720000", "092446.210000", "092447.700000", "092449.190000", "092450.680000", "092452.170000", "092453.660000", "092455.150000", "092456.640000", "092458.130000", "092459.620000", "092501.110000", "092502.600000", "092504.090000", "092505.580000", "092507.070000", "092508.560000", "092510.050000", "092511.540000", "092513.030000", "092514.520000", "092516.010000", "092517.500000", "092518.990000", "092520.480000", "092521.970000", "092523.460000", "092524.950000", "092526.440000", "092527.930000", "092529.420000", "092530.910000", "092532.400000", "092533.890000", "092535.380000", "092536.870000", "092538.360000", "092539.850000", "092541.340000", "092542.830000", "092544.320000", "092545.810000", "092547.300000", "092548.790000", "092550.280000", "092551.770000", "092553.260000", "092554.750000", "092556.240000", "092557.730000", "092559.220000", "092600.710000", "092602.200000", "092603.690000", "092605.180000", "092606.670000", "092608.160000", "092609.650000", "092611.140000", "092612.630000", "092614.120000", "092615.610000", "092617.100000", "092618.590000", "092620.080000", "092621.570000", "092623.060000", "092624.550000", "092626.040000"],
      "ContentTime": ["091302.980000", "091302.983000", "091302.986000", "091302.989000", "091303.001000", "091303.003000", "091303.006000", "091303.009000", "091303.012000", "091303.015000", "091303.017000", "091303.020000", "091303.023000", "091303.026000", "091303.029000", "091303.032000", "091303.035000", "091303.037000", "091303.040000", "091303.043000", "091303.046000", "091303.049000", "091303.052000", "091303.055000", "091303.057000", "091303.060000", "091303.063000", "091303.066000", "091303.069000", "091303.071000", "091303.074000", "091303.077000", "091303.080000", "091303.083000", "091303.085000", "091322.949000", "091322.952000", "091322.955000", "091322.958000", "091322.961000", "091322.963000", "091322.966000", "091322.969000", "091322.972000", "091322.974000", "091322.977000", "091322.980000", "091322.983000", "091322.986000", "091322.989000", "091322.992000", "091322.995000", "091322.997000", "091323.001000", "091323.004000", "091342.949000", "091342.952000", "091342.955000", "091342.957000", "091342.960000", "091342.963000", "091342.976000", "091342.979000", "091342.982000", "091342.984000", "091342.987000", "091342.990000", "091342.993000", "091342.996000", "091342.998000", "091343.002000", "091343.005000", "091343.008000", "091343.011000", "091343.014000", "091402.949000", "091402.952000", "091402.955000", "091402.957000", "091402.960000", "091402.963000", "091402.966000", "091402.969000", "091402.971000", "091402.974000", "091402.977000", "091402.980000", "091402.983000", "091402.985000", "091402.988000", "091402.991000", "091402.994000", "091402.997000", "091403.001000", "091403.003000", "091403.006000", "091442.950000", "091442.953000", "091442.956000", "091442.959000", "091442.961000", "091442.964000", "091442.967000", "091442.970000", "091442.973000", "091442.976000", "091442.978000", "091442.981000", "091442.984000", "091442.987000", "091442.990000", "091442.993000", "091442.996000", "091442.998000", "091443.002000", "091443.005000", "091443.008000", "091443.011000", "091443.014000", "091443.025000", "091443.028000", "091443.031000", "091443.033000", "091443.036000", "091443.039000", "091443.042000", "091522.949000", "091522.952000", "091522.955000", "091522.958000", "091522.961000", "091522.963000", "091522.966000", "091522.969000", "091522.972000", "091522.975000", "091522.977000", "091522.980000", "091522.983000", "091522.986000", "091522.989000", "091522.992000", "091522.995000", "091522.997000", "091523.001000", "091523.004000", "091523.007000", "091523.010000", "091523.013000", "091523.016000", "091523.018000", "091523.021000", "091523.024000", "091602.949000", "091602.952000", "091602.955000", "091602.963000", "091602.966000", "091602.969000", "091602.972000", "091602.975000", "091602.977000", "091602.988000", "091602.991000", "091602.994000", "091602.997000", "091603.007000", "091603.010000", "091603.012000", "091603.015000", "091603.018000", "091603.021000", "091603.024000", "091603.027000", "091603.030000", "091603.033000", "091603.035000", "091603.038000", "091603.041000", "091603.044000", "091642.950000", "091642.953000", "091642.956000", "091642.959000", "091642.961000", "091642.964000", "091642.967000", "091642.970000", "091642.973000", "091642.975000", "091642.978000", "091642.981000", "091642.984000", "091642.987000", "091642.989000", "091642.992000", "091642.995000", "091642.998000", "091643.001000", "091643.004000", "091643.007000", "091643.009000", "091643.012000", "091643.015000", "091643.018000", "091643.021000", "091643.023000", "091722.949000", "091722.952000", "091722.955000", "091722.958000", "091722.961000", "091722.963000", "091722.966000", "091722.969000", "091722.973000", "091722.976000", "091722.979000", "091722.982000", "091722.985000", "091722.988000", "091722.991000", "091722.994000", "091722.996000", "091723.000000", "091723.003000", "091723.006000", "091723.009000", "091723.011000", "091723.014000", "091723.017000", "091723.020000", "091723.027000", "091802.949000", "091802.952000", "091802.955000", "091802.958000", "091802.961000", "091802.963000", "091802.966000", "091802.969000", "091802.972000", "091802.975000", "091802.978000", "091802.980000", "091802.983000", "091802.986000", "091802.989000", "091802.992000", "091802.995000", "091802.997000", "091803.001000", "091803.004000", "091803.007000", "091803.010000", "091803.013000", "091803.016000", "091803.019000", "091803.022000", "091803.025000", "091842.949000", "091842.952000", "091842.955000", "091842.959000", "091842.962000", "091842.966000", "091842.968000", "091842.972000", "091842.975000", "091842.978000", "091842.980000", "091842.983000", "091842.987000", "091842.990000", "091842.993000", "091842.996000", "091843.001000", "091843.005000", "091843.009000", "091843.012000", "091843.017000", "091843.020000", "091843.023000", "091843.026000", "091843.029000", "091843.033000", "091843.036000", "091922.950000", "091922.953000", "091922.956000", "091922.959000", "091922.961000", "091922.964000", "091922.967000", "091922.970000", "091922.973000", "091922.975000", "091922.978000", "091922.981000", "091922.984000", "091922.987000", "091922.990000", "091922.993000", "091922.996000", "091923.000000", "091923.002000", "091923.005000", "091923.008000", "091923.011000", "091923.014000", "091923.017000", "091923.019000", "091923.022000", "091923.025000", "092002.949000", "092002.952000", "092002.955000", "092002.958000", "092002.962000", "092002.965000", "092002.968000", "092002.971000", "092002.974000", "092002.977000", "092002.980000", "092002.983000", "092002.986000", "092002.989000", "092002.994000", "092002.996000", "092003.001000", "092003.004000", "092003.007000", "092003.016000", "092003.019000", "092003.022000", "092003.025000", "092003.028000", "092003.031000", "092003.035000", "092003.038000", "092042.949000", "092042.952000", "092042.955000", "092042.958000", "092042.960000", "092042.963000", "092042.966000", "092042.969000", "092042.972000", "092042.975000", "092042.977000", "092042.980000", "092042.983000", "092042.986000", "092042.989000", "092042.992000", "092042.995000", "092042.997000", "092043.001000", "092043.004000", "092043.007000", "092043.010000", "092043.013000", "092043.016000", "092043.019000", "092043.021000", "092043.024000", "092102.949000", "092102.952000", "092102.955000", "092102.958000", "092102.960000", "092102.963000", "092102.966000", "092102.969000", "092102.972000", "092102.975000", "092102.978000", "092102.980000", "092102.983000", "092142.950000", "092142.967000", "092142.970000", "092142.973000", "092142.976000", "092142.978000", "092142.981000", "092142.984000", "092142.987000", "092142.996000", "092143.000000", "092143.003000", "092143.006000", "092143.009000", "092143.012000", "092143.014000", "092143.017000", "092143.020000", "092143.023000", "092143.026000", "092143.028000", "092143.031000", "092143.034000", "092143.037000", "092143.040000", "092143.043000", "092143.046000", "092222.949000", "092222.952000", "092222.955000", "092222.958000", "092222.961000", "092222.963000", "092222.966000", "092222.969000", "092222.972000", "092222.975000", "092222.978000", "092222.981000", "092222.984000", "092222.986000", "092222.989000", "092222.992000", "092222.995000", "092222.998000", "092223.002000", "092223.012000", "092223.015000", "092223.018000", "092223.021000", "092223.024000", "092223.027000", "092223.030000", "092223.033000", "092302.949000", "092302.952000", "092302.955000", "092302.958000", "092302.961000", "092302.964000", "092302.967000", "092302.970000", "092302.973000", "092302.975000", "092302.978000", "092302.981000", "092302.984000", "092302.987000", "092302.990000", "092302.992000", "092302.995000", "092302.998000", "092303.002000", "092303.005000", "092303.008000", "092303.011000", "092303.014000", "092303.016000", "092303.019000", "092303.022000", "092303.025000", "092342.950000", "092342.953000", "092342.956000", "092342.959000", "092342.962000", "092342.965000", "092342.967000", "092342.970000", "092342.974000", "092342.977000", "092342.979000", "092342.982000", "092342.985000", "092342.988000", "092342.991000", "092342.994000", "092342.996000", "092342.999000", "092343.002000", "092343.005000", "092343.008000", "092343.011000", "092343.014000", "092343.017000", "092343.019000", "092343.022000", "092422.949000", "092422.952000", "092422.955000", "092422.958000", "092422.961000", "092422.964000", "092422.966000", "092422.969000", "092422.972000", "092422.975000", "092422.978000", "092422.981000", "092422.984000", "092422.987000", "092422.990000", "092422.992000", "092422.995000", "092422.998000", "092423.002000", "092423.005000", "092423.007000", "092423.010000", "092423.013000", "092423.016000", "092423.019000", "092423.022000", "092423.024000", "092502.949000", "092502.952000", "092502.955000", "092502.958000", "092502.961000", "092502.963000", "092502.966000", "092502.969000", "092502.982000", "092502.985000", "092502.988000", "092502.991000", "092502.994000", "092502.997000", "092503.001000", "092503.003000", "092503.006000", "092503.009000", "092503.012000", "092503.015000", "092503.017000", "092503.020000", "092503.023000", "092503.026000", "092503.029000", "092503.038000", "092503.041000", "092542.949000", "092542.952000", "092542.955000", "092542.958000", "092542.960000", "092542.963000", "092542.966000", "092542.969000", "092542.972000", "092542.975000", "092542.978000", "092542.981000", "092542.984000", "092542.986000", "092542.989000", "092542.992000", "092542.995000", "092542.998000", "092543.002000", "092543.004000", "092543.007000", "092543.010000", "092543.013000", "092543.016000", "092543.019000", "092543.022000", "092543.025000", "092622.950000", "092622.953000", "092622.956000", "092622.959000", "092622.962000", "092622.964000", "092622.967000", "092622.970000", "092622.973000", "092622.976000", "092622.979000", "092622.982000", "092622.985000", "092622.987000", "092622.990000", "092622.993000", "092622.996000", "092623.000000", "092623.003000", "092623.006000", "092623.008000", "092623.011000", "092623.014000", "092623.017000", "092623.020000", "092623.039000", "092623.042000", "092628.485000", "092628.489000", "092628.493000", "092628.496000"],
