{
  "AcquisitionMatrixPE": 104,
  "AcquisitionNumber": 1,
  "AcquisitionTime": "09:27:43.167500",
  "BandwidthPerPixelPhaseEncode": 17.17,
  "BaseResolution": 104,
  "BodyPartExamined": "BRAIN",
  "CoilString": "HC1-7;NC1_2",
  "ConsistencyInfo": "N4_VE11C_LATEST_20160120",
  "ConversionSoftware": "dcm2niix",
  "ConversionSoftwareVersion": "v1.0.20190720  (JP2:OpenJPEG) GCC7.3.0",
  "DerivedVendorReportedEchoSpacing": 0.000560011,
  "DeviceSerialNumber": "167006",
  "DwellTime": 2.1e-06,
  "EchoTime": 0.037,
  "EchoTrainLength": 104,
  "EffectiveEchoSpacing": 0.000560011,
  "FlipAngle": 52,
  "ImageComments": "Unaliased_MB4_PE3_LB",
  "ImageOrientationPatientDICOM": [0.999918, 0.00982544, 0.00819292, -0.00453746, 0.871164, -0.49097],
  "ImageType": [
    "ORIGINAL",
    "PRIMARY",
    "M",
    "MB",
    "ND",
    "MOSAIC"
],
  "ImagingFrequency": 123.259,
  "InPlanePhaseEncodingDirectionDICOM": "COL",
  "InstitutionAddress": "Chemin_Queen-Mary_4565_Montreal_District_CA_H3W_1W5",
  "InstitutionName": "IUGM",
  "InstitutionalDepartmentName": "Department",
  "MRAcquisitionType": "2D",
  "MagneticFieldStrength": 3,
  "Manufacturer": "Siemens",
  "ManufacturersModelName": "Prisma_fit",
  "Modality": "MR",
  "MultibandAccelerationFactor": 4,
  "PartialFourier": 1,
  "PatientPosition": "HFS",
  "PercentPhaseFOV": 100,
  "PhaseEncodingDirection": "j",
  "PhaseEncodingSteps": 104,
  "PhaseResolution": 1,
  "PixelBandwidth": 2290,
  "ProcedureStepDescription": "hcptrt_generic",
  "ProtocolName": "func_task-wm_run-1",
  "PulseSequenceDetails": "%CustomerSeq%_cmrr_mbep2d_bold",
  "ReceiveCoilActiveElements": "HC1-7;NC1,2",
  "ReceiveCoilName": "HeadNeck_64",
  "ReconMatrixPE": 104,
  "RepetitionTime": 1.49,
  "SAR": 0.0370321,
  "ScanOptions": "FS",
  "ScanningSequence": "EP",
  "SequenceName": "epfid2d1_104",
  "SequenceVariant": "SK_SS",
  "SeriesDescription": "func_task-wm_run-1",
  "SeriesNumber": 11,
  "ShimSetting": [621, -7198, -8870, 422, -27, -147, 45, -25],
  "SliceThickness": 2,
  "SliceTiming": [0, 0.7825, 0.0975, 0.88, 0.195, 0.98, 0.2925, 1.0775, 0.39, 1.175, 0.49, 1.2725, 0.5875, 1.37, 0.685, 0, 0.7825, 0.0975, 0.88, 0.195, 0.98, 0.2925, 1.0775, 0.39, 1.175, 0.49, 1.2725, 0.5875, 1.37, 0.685, 0, 0.7825, 0.0975, 0.88, 0.195, 0.98, 0.2925, 1.0775, 0.39, 1.175, 0.49, 1.2725, 0.5875, 1.37, 0.685, 0, 0.7825, 0.0975, 0.88, 0.195, 0.98, 0.2925, 1.0775, 0.39, 1.175, 0.49, 1.2725, 0.5875, 1.37, 0.685],
  "SoftwareVersions": "syngo_MR_E11",
  "SpacingBetweenSlices": 2,
  "StationName": "MRC35049",
  "TaskName": "wm",
  "TotalReadoutTime": 0.0576811,
  "TxRefAmp": 248.282,
  "WipMemBlock": "5dc5061c-ffa4-4094-8049-62252d435b87||Sequence: R016 ve11c/master r/e634e98; Dec 19 2017 11:00:25 by eja",
  "dcmmeta_affine": [
    [-1.9998363256454468, -0.009074920788407326, 0.023922758176922798, 103.22956085205078],
    [-0.01965087093412876, 1.7423288822174072, -0.9817860722541809, -59.23006820678711],
    [0.016385840252041817, 0.9819408059120178, 1.7422754764556885, -93.13334655761719],
    [0.0, 0.0, 0.0, 1.0]
],
  "dcmmeta_reorient_transform": [
    [0.0, -1.0, 0.0, 103.0],
    [1.0, 0.0, 0.0, 0.0],
    [0.0, 0.0, 1.0, 0.0],
    [0.0, 0.0, 0.0, 1.0]
],
  "dcmmeta_shape": [104, 104, 60, 202],
  "dcmmeta_slice_dim": 2,
  "dcmmeta_version": 0.6,
  "global": {
    "const": {
      "AcquisitionMatrix": [104, 0, 0, 104],
      "AngioFlag": "N",
      "BitsAllocated": 16,
      "BitsStored": 16,
      "BodyPartExamined": "BRAIN",
      "Columns": 832,
      "EchoNumbers": 1,
      "EchoTime": 37.0,
      "EchoTrainLength": 104,
      "FlipAngle": 52.0,
      "HighBit": 15,
      "ImageOrientationPatient": [0.99991816508454, 0.00982543579825, 0.00819292044022, -0.0045374601818, 0.87116443912594, -0.4909703977405],
      "ImagePositionPatient": [-826.93199691393, -761.59043705143, 359.46855627377],
      "ImageType": [
        "ORIGINAL",
        "PRIMARY",
        "M",
        "MB",
        "ND",
        "MOSAIC"
],
      "ImagedNucleus": "1H",
      "ImagingFrequency": 123.25945,
      "InPlanePhaseEncodingDirection": "COL",
      "MRAcquisitionType": "2D",
      "MagneticFieldStrength": 3.0,
      "Manufacturer": "SIEMENS",
      "ManufacturerModelName": "Prisma_fit",
      "Modality": "MR",
      "NumberOfAverages": 1.0,
      "NumberOfPhaseEncodingSteps": 104,
      "PercentPhaseFieldOfView": 100.0,
      "PercentSampling": 100.0,
      "PerformedProcedureStepStartTime": "085355.731000",
      "PhotometricInterpretation": "MONOCHROME2",
      "PixelBandwidth": 2290.0,
      "PixelRepresentation": 0,
      "PixelSpacing": [2.0, 2.0],
      "ProtocolName": "func_task-wm_run-1",
      "RepetitionTime": 1490.0,
      "Rows": 832,
      "SAR": 0.03703205685859,
      "SamplesPerPixel": 1,
      "ScanOptions": "FS",
      "ScanningSequence": "EP",
      "SequenceName": "epfid2d1_104",
      "SequenceVariant": [
        "SK",
        "SS"
],
      "SeriesDescription": "func_task-wm_run-1",
      "SeriesNumber": 11,
      "SeriesTime": "092906.870000",
      "SliceLocation": -50.821578868807,
      "SliceThickness": 2.0,
      "SmallestImagePixelValue": 0,
      "SoftwareVersions": "syngo MR E11",
      "SpacingBetweenSlices": 1.9999999883684,
      "SpecificCharacterSet": "ISO_IR 100",
      "StudyID": "1",
      "StudyTime": "085355.587000",
      "TransmitCoilName": "Body",
      "VariableFlipAngleFlag": "N",
      "WindowCenterWidthExplanation": "Algo1",
      "dBdt": 0.0},
    "slices": {}
  },
  "time": {
    "samples": {
      "AcquisitionNumber": [1, 2, 3, 4, 5, 6, 7, 8, 9, 10, 11, 12, 13, 14, 15, 16, 17, 18, 19, 20, 21, 22, 23, 24, 25, 26, 27, 28, 29, 30, 31, 32, 33, 34, 35, 36, 37, 38, 39, 40, 41, 42, 43, 44, 45, 46, 47, 48, 49, 50, 51, 52, 53, 54, 55, 56, 57, 58, 59, 60, 61, 62, 63, 64, 65, 66, 67, 68, 69, 70, 71, 72, 73, 74, 75, 76, 77, 78, 79, 80, 81, 82, 83, 84, 85, 86, 87, 88, 89, 90, 91, 92, 93, 94, 95, 96, 97, 98, 99, 100, 101, 102, 103, 104, 105, 106, 107, 108, 109, 110, 111, 112, 113, 114, 115, 116, 117, 118, 119, 120, 121, 122, 123, 124, 125, 126, 127, 128, 129, 130, 131, 132, 133, 134, 135, 136, 137, 138, 139, 140, 141, 142, 143, 144, 145, 146, 147, 148, 149, 150, 151, 152, 153, 154, 155, 156, 157, 158, 159, 160, 161, 162, 163, 164, 165, 166, 167, 168, 169, 170, 171, 172, 173, 174, 175, 176, 177, 178, 179, 180, 181, 182, 183, 184, 185, 186, 187, 188, 189, 190, 191, 192, 193, 194, 195, 196, 197, 198, 199, 200, 201, 202],
      "AcquisitionTime": ["092743.167500", "092744.657500", "092746.147500", "092747.637500", "092749.127500", "092750.617500", "092752.107500", "092753.597500", "092755.087500", "092756.577500", "092758.067500", "092759.557500", "092801.047500", "092802.537500", "092804.027500", "092805.517500", "092807.007500", "092808.497500", "092809.987500", "092811.477500", "092812.967500", "092814.457500", "092815.947500", "092817.437500", "092818.927500", "092820.417500", "092821.907500", "092823.397500", "092824.887500", "092826.377500", "092827.867500", "092829.357500", "092830.847500", "092832.337500", "092833.827500", "092835.317500", "092836.807500", "092838.297500", "092839.787500", "092841.277500", "092842.767500", "092844.257500", "092845.747500", "092847.237500", "092848.727500", "092850.217500", "092851.707500", "092853.197500", "092854.687500", "092856.177500", "092857.667500", "092859.157500", "092900.647500", "092902.137500", "092903.627500", "092905.117500", "092906.607500", "092908.097500", "092909.587500", "092911.077500", "092912.567500", "092914.057500", "092915.547500", "092917.037500", "092918.527500", "092920.017500", "092921.507500", "092922.997500", "092924.487500", "092925.977500", "092927.467500", "092928.957500", "092930.447500", "092931.937500", "092933.427500", "092934.917500", "092936.407500", "092937.897500", "092939.387500", "092940.877500", "092942.367500", "092943.857500", "092945.347500", "092946.837500", "092948.327500", "092949.817500", "092951.307500", "092952.797500", "092954.287500", "092955.777500", "092957.267500", "092958.757500", "093000.247500", "093001.737500", "093003.227500", "093004.717500", "093006.207500", "093007.697500", "093009.187500", "093010.677500", "093012.167500", "093013.657500", "093015.147500", "093016.637500", "093018.127500", "093019.617500", "093021.107500", "093022.597500", "093024.087500", "093025.577500", "093027.067500", "093028.557500", "093030.047500", "093031.537500", "093033.027500", "093034.517500", "093036.007500", "093037.497500", "093038.987500", "093040.477500", "093041.967500", "093043.457500", "093044.947500", "093046.437500", "093047.927500", "093049.417500", "093050.907500", "093052.397500", "093053.887500", "093055.377500", "093056.867500", "093058.357500", "093059.847500", "093101.337500", "093102.827500", "093104.317500", "093105.807500", "093107.297500", "093108.787500", "093110.277500", "093111.767500", "093113.257500", "093114.747500", "093116.237500", "093117.727500", "093119.217500", "093120.707500", "093122.197500", "093123.687500", "093125.177500", "093126.667500", "093128.157500", "093129.647500", "093131.137500", "093132.627500", "093134.117500", "093135.607500", "093137.097500", "093138.587500", "093140.077500", "093141.567500", "093143.057500", "093144.547500", "093146.037500", "093147.527500", "093149.017500", "093150.507500", "093151.997500", "093153.487500", "093154.977500", "093156.467500", "093157.957500", "093159.447500", "093200.937500", "093202.427500", "093203.917500", "093205.407500", "093206.897500", "093208.387500", "093209.877500", "093211.367500", "093212.857500", "093214.347500", "093215.837500", "093217.327500", "093218.817500", "093220.307500", "093221.797500", "093223.287500", "093224.777500", "093226.267500", "093227.757500", "093229.247500", "093230.737500", "093232.227500", "093233.717500", "093235.207500", "093236.697500", "093238.187500", "093239.677500", "093241.167500", "093242.657500"],
      "ContentTime": ["092906.873000", "092906.876000", "092906.879000", "092906.882000", "092906.885000", "092906.887000", "092906.890000", "092906.893000", "092906.896000", "092906.899000", "092906.901000", "092906.905000", "092906.907000", "092906.910000", "092906.913000", "092906.916000", "092906.919000", "092906.922000", "092906.924000", "092906.927000", "092906.930000", "092906.933000", "092906.936000", "092906.938000", "092906.941000", "092906.944000", "092906.947000", "092906.962000", "092906.966000", "092926.835000", "092926.838000", "092926.841000", "092926.843000", "092926.846000", "092926.849000", "092926.852000", "092926.855000", "092926.857000", "092926.860000", "092926.873000", "092926.876000", "092926.878000", "092926.882000", "092926.884000", "092926.887000", "092926.890000", "092926.893000", "092926.896000", "092926.899000", "092946.835000", "092946.838000", "092946.840000", "092946.843000", "092946.846000", "092946.849000", "092946.858000", "092946.860000", "092946.863000", "092946.866000", "092946.869000", "092946.872000", "092946.878000", "092946.881000", "092946.884000", "092946.886000", "092946.889000", "092946.892000", "092946.895000", "092946.898000", "093006.835000", "093006.838000", "093006.841000", "093006.843000", "093006.846000", "093006.849000", "093006.852000", "093006.855000", "093006.865000", "093006.868000", "093006.871000", "093006.874000", "093006.876000", "093006.879000", "093006.882000", "093006.885000", "093006.888000", "093006.898000", "093006.901000", "093006.904000", "093026.836000", "093026.839000", "093026.842000", "093026.844000", "093026.847000", "093026.850000", "093026.853000", "093026.856000", "093026.859000", "093026.861000", "093026.864000", "093026.867000", "093026.870000", "093026.873000", "093026.875000", "093026.878000", "093026.881000", "093026.884000", "093026.887000", "093026.889000", "093046.836000", "093046.839000", "093046.842000", "093046.844000", "093046.847000", "093046.850000", "093046.853000", "093046.856000", "093046.859000", "093046.862000", "093046.865000", "093046.868000", "093046.870000", "093126.836000", "093126.839000", "093126.842000", "093126.845000", "093126.848000", "093126.850000", "093126.853000", "093126.856000", "093126.859000", "093126.862000", "093126.865000", "093126.867000", "093126.870000", "093126.873000", "093126.876000", "093126.879000", "093126.882000", "093126.884000", "093126.887000", "093126.890000", "093126.893000", "093126.896000", "093126.899000", "093126.901000", "093126.904000", "093126.907000", "093126.910000", "093206.835000", "093206.838000", "093206.841000", "093206.843000", "093206.846000", "093206.849000", "093206.852000", "093206.855000", "093206.858000", "093206.861000", "093206.864000", "093206.866000", "093206.869000", "093206.872000", "093206.875000", "093206.885000", "093206.888000", "093206.891000", "093206.894000", "093206.897000", "093206.899000", "093206.902000", "093206.905000", "093206.908000", "093206.911000", "093206.914000", "093206.916000", "093244.695000", "093244.698000", "093244.701000", "093244.704000", "093244.714000", "093244.717000", "093244.720000", "093244.723000", "093244.726000", "093244.729000", "093244.732000", "093244.735000", "093244.737000", "093244.741000", "093244.748000", "093244.752000", "093244.755000", "093244.758000", "093244.761000", "093244.764000", "093244.768000", "093244.772000", "093244.775000", "093244.778000", "093244.781000", "093244.784000"],
      "InstanceCreationTime": ["092906.873000", "092906.876000", "092906.879000", "092906.882000", "092906.885000", "092906.887000", "092906.890000", "092906.893000", "092906.896000", "092906.899000", "092906.901000", "092906.905000", "092906.907000", "092906.910000", "092906.913000", "092906.916000", "092906.919000", "092906.922000", "092906.924000", "092906.927000", "092906.930000", "092906.933000", "092906.936000", "092906.938000", "092906.941000", "092906.944000", "092906.947000", "092906.962000", "092906.966000", "092926.835000", "092926.838000", "092926.841000", "092926.843000", "092926.846000", "092926.849000", "092926.852000", "092926.855000", "092926.857000", "092926.860000", "092926.873000", "092926.876000", "092926.878000", "092926.882000", "092926.884000", "092926.887000", "092926.890000", "092926.893000", "092926.896000", "092926.899000", "092946.835000", "092946.838000", "092946.840000", "092946.843000", "092946.846000", "092946.849000", "092946.858000", "092946.860000", "092946.863000", "092946.866000", "092946.869000", "092946.872000", "092946.878000", "092946.881000", "092946.884000", "092946.886000", "092946.889000", "092946.892000", "092946.895000", "092946.898000", "093006.835000", "093006.838000", "093006.841000", "093006.843000", "093006.846000", "093006.849000", "093006.852000", "093006.855000", "093006.865000", "093006.868000", "093006.871000", "093006.874000", "093006.876000", "093006.879000", "093006.882000", "093006.885000", "093006.888000", "093006.898000", "093006.901000", "093006.904000", "093026.836000", "093026.839000", "093026.842000", "093026.844000", "093026.847000", "093026.850000", "093026.853000", "093026.856000", "093026.859000", "093026.861000", "093026.864000", "093026.867000", "093026.870000", "093026.873000", "093026.875000", "093026.878000", "093026.881000", "093026.884000", "093026.887000", "093026.889000", "093046.836000", "093046.839000", "093046.842000", "093046.844000", "093046.847000", "093046.850000", "093046.853000", "093046.856000", "093046.859000", "093046.862000", "093046.865000", "093046.868000", "093046.870000", "093126.836000", "093126.839000", "093126.842000", "093126.845000", "093126.848000", "093126.850000", "093126.853000", "093126.856000", "093126.859000", "093126.862000", "093126.865000", "093126.867000", "093126.870000", "093126.873000", "093126.876000", "093126.879000", "093126.882000", "093126.884000", "093126.887000", "093126.890000", "093126.893000", "093126.896000", "093126.899000", "093126.901000", "093126.904000", "093126.907000", "093126.910000", "093206.835000", "093206.838000", "093206.841000", "093206.843000", "093206.846000", "093206.849000", "093206.852000", "093206.855000", "093206.858000", "093206.861000", "093206.864000", "093206.866000", "093206.869000", "093206.872000", "093206.875000", "093206.885000", "093206.888000", "093206.891000", "093206.894000", "093206.897000", "093206.899000", "093206.902000", "093206.905000", "093206.908000", "093206.911000", "093206.914000", "093206.916000", "093244.695000", "093244.698000", "093244.701000", "093244.704000", "093244.714000", "093244.717000", "093244.720000", "093244.723000", "093244.726000", "093244.729000", "093244.732000", "093244.735000", "093244.737000", "093244.741000", "093244.748000", "093244.752000", "093244.755000", "093244.758000", "093244.761000", "093244.764000", "093244.768000", "093244.772000", "093244.775000", "093244.778000", "093244.781000", "093244.784000"],
      "InstanceNumber": [1, 2, 3, 4, 5, 6, 7, 8, 9, 10, 11, 12, 13, 14, 15, 16, 17, 18, 19, 20, 21, 22, 23, 24, 25, 26, 27, 28, 29, 30, 31, 32, 33, 34, 35, 36, 37, 38, 39, 40, 41, 42, 43, 44, 45, 46, 47, 48, 49, 50, 51, 52, 53, 54, 55, 56, 57, 58, 59, 60, 61, 62, 63, 64, 65, 66, 67, 68, 69, 70, 71, 72, 73, 74, 75, 76, 77, 78, 79, 80, 81, 82, 83, 84, 85, 86, 87, 88, 89, 90, 91, 92, 93, 94, 95, 96, 97, 98, 99, 100, 101, 102, 103, 104, 105, 106, 107, 108, 109, 110, 111, 112, 113, 114, 115, 116, 117, 118, 119, 120, 121, 122, 123, 124, 125, 126, 127, 128, 129, 130, 131, 132, 133, 134, 135, 136, 137, 138, 139, 140, 141, 142, 143, 144, 145, 146, 147, 148, 149, 150, 151, 152, 153, 154, 155, 156, 157, 158, 159, 160, 161, 162, 163, 164, 165, 166, 167, 168, 169, 170, 171, 172, 173, 174, 175, 176, 177, 178, 179, 180, 181, 182, 183, 184, 185, 186, 187, 188, 189, 190, 191, 192, 193, 194, 195, 196, 197, 198, 199, 200, 201, 202],
      "LargestImagePixelValue": [51998, 49831, 49697, 49184, 48291, 48374, 47929, 47779, 47824, 47657, 47629, 47363, 47651, 47234, 47421, 47383, 47797, 47412, 47818, 47280, 47310, 47491, 47493, 47373, 47333, 47621, 47580, 47865, 47155, 47211, 47425, 47350, 47441, 47928, 47569, 47597, 47364, 47074, 47545, 48197, 47441, 47929, 48152, 47594, 47454, 47469, 48108, 47682, 47425, 47802, 47591, 47362, 47354, 47883, 47609, 48150, 47580, 48839, 47798, 48448, 47383, 47846, 47197, 47553, 47106, 47175, 46735, 47465, 47319, 47245, 47580, 47316, 47353, 47450, 47018, 47011, 47539, 47256, 47134, 47383, 47058, 47671, 47127, 47729, 46692, 47117, 47594, 46735, 47630, 46749, 47308, 46981, 47276, 47229, 47113, 47735, 47244, 47261, 46927, 47282, 46452, 46365, 46676, 46773, 46651, 46520, 46394, 46432, 46831, 46563, 46300, 47039, 46745, 46897, 46676, 47037, 46512, 47314, 46604, 47429, 47004, 47347, 47217, 46571, 47072, 46879, 47637, 47094, 47329, 47753, 47380, 47430, 46780, 47510, 47445, 47550, 47253, 47417, 47457, 47792, 47291, 46894, 47580, 47585, 47403, 47468, 47126, 47711, 47474, 46709, 47061, 46856, 47625, 46911, 47143, 46659, 46962, 46588, 46800, 46705, 46786, 46538, 46871, 46360, 47408, 46534, 46490, 46854, 46365, 46199, 45837, 46634, 46111, 46505, 46022, 46349, 46395, 46251, 47020, 47024, 46098, 46492, 46212, 46825, 46240, 48275, 46482, 46890, 46381, 46478, 47142, 46106, 47164, 46848, 46458, 46676, 46522, 46554, 48082, 48377, 47189, 46205],
      "WindowCenter": [11413.0, 11353.0, 11325.0, 11302.0, 11278.0, 11269.0, 11275.0, 11272.0, 11279.0, 11281.0, 11283.0, 11291.0, 11313.0, 11325.0, 11334.0, 11335.0, 11334.0, 11328.0, 11322.0, 11304.0, 11296.0, 11293.0, 11296.0, 11293.0, 11278.0, 11271.0, 11265.0, 11261.0, 11258.0, 11262.0, 11266.0, 11260.0, 11256.0, 11251.0, 11243.0, 11241.0, 11237.0, 11238.0, 11244.0, 11256.0, 11244.0, 11250.0, 11238.0, 11241.0, 11234.0, 11228.0, 11232.0, 11216.0, 11224.0, 11232.0, 11233.0, 11225.0, 11209.0, 11212.0, 11210.0, 11226.0, 11223.0, 11241.0, 11233.0, 11238.0, 11232.0, 11244.0, 11243.0, 11251.0, 11247.0, 11244.0, 11238.0, 11244.0, 11249.0, 11247.0, 11243.0, 11241.0, 11225.0, 11217.0, 11218.0, 11228.0, 11248.0, 11249.0, 11246.0, 11234.0, 11229.0, 11230.0, 11236.0, 11246.0, 11248.0, 11244.0, 11241.0, 11215.0, 11223.0, 11212.0, 11224.0, 11229.0, 11235.0, 11235.0, 11227.0, 11228.0, 11222.0, 11217.0, 11215.0, 11209.0, 11226.0, 11259.0, 11274.0, 11249.0, 11230.0, 11214.0, 11202.0, 11204.0, 11232.0, 11245.0, 11263.0, 11261.0, 11257.0, 11253.0, 11255.0, 11256.0, 11258.0, 11269.0, 11264.0, 11269.0, 11253.0, 11245.0, 11250.0, 11239.0, 11253.0, 11238.0, 11240.0, 11235.0, 11239.0, 11247.0, 11250.0, 11251.0, 11238.0, 11240.0, 11239.0, 11239.0, 11244.0, 11245.0, 11235.0, 11242.0, 11233.0, 11228.0, 11231.0, 11224.0, 11213.0, 11192.0, 11190.0, 11208.0, 11230.0, 11231.0, 11243.0, 11231.0, 11233.0, 11218.0, 11215.0, 11211.0, 11225.0, 11221.0, 11222.0, 11212.0, 11226.0, 11231.0, 11242.0, 11233.0, 11234.0, 11223.0, 11219.0, 11217.0, 11212.0, 11206.0, 11200.0, 11209.0, 11198.0, 11204.0, 11215.0, 11220.0, 11224.0, 11214.0, 11216.0, 11215.0, 11212.0, 11223.0, 11217.0, 11221.0, 11222.0, 11249.0, 11232.0, 11242.0, 11240.0, 11231.0, 11226.0, 11211.0, 11206.0, 11195.0, 11199.0, 11207.0, 11197.0, 11201.0, 11241.0, 11278.0, 11256.0, 11247.0],
      "WindowWidth": [24640.0, 24469.0, 24387.0, 24321.0, 24257.0, 24232.0, 24245.0, 24239.0, 24252.0, 24258.0, 24268.0, 24283.0, 24328.0, 24364.0, 24384.0, 24389.0, 24385.0, 24373.0, 24368.0, 24317.0, 24296.0, 24290.0, 24297.0, 24290.0, 24251.0, 24232.0, 24218.0, 24206.0, 24202.0, 24211.0, 24220.0, 24215.0, 24196.0, 24180.0, 24165.0, 24159.0, 24151.0, 24154.0, 24165.0, 24192.0, 24167.0, 24185.0, 24155.0, 24162.0, 24151.0, 24133.0, 24147.0, 24106.0, 24124.0, 24141.0, 24145.0, 24126.0, 24091.0, 24094.0, 24088.0, 24122.0, 24117.0, 24153.0, 24151.0, 24157.0, 24137.0, 24162.0, 24165.0, 24180.0, 24184.0, 24165.0, 24157.0, 24166.0, 24179.0, 24174.0, 24162.0, 24156.0, 24118.0, 24102.0, 24103.0, 24135.0, 24170.0, 24174.0, 24168.0, 24139.0, 24129.0, 24128.0, 24147.0, 24164.0, 24171.0, 24163.0, 24153.0, 24100.0, 24111.0, 24091.0, 24117.0, 24133.0, 24145.0, 24147.0, 24127.0, 24141.0, 24125.0, 24104.0, 24117.0, 24087.0, 24123.0, 24199.0, 24229.0, 24170.0, 24123.0, 24088.0, 24056.0, 24063.0, 24124.0, 24157.0, 24217.0, 24195.0, 24186.0, 24175.0, 24183.0, 24187.0, 24192.0, 24211.0, 24201.0, 24215.0, 24174.0, 24155.0, 24167.0, 24144.0, 24179.0, 24144.0, 24141.0, 24133.0, 24137.0, 24157.0, 24165.0, 24170.0, 24136.0, 24140.0, 24134.0, 24136.0, 24157.0, 24157.0, 24132.0, 24155.0, 24132.0, 24114.0, 24118.0, 24103.0, 24076.0, 24032.0, 24027.0, 24063.0, 24115.0, 24123.0, 24146.0, 24120.0, 24128.0, 24085.0, 24077.0, 24068.0, 24099.0, 24093.0, 24097.0, 24071.0, 24101.0, 24116.0, 24148.0, 24121.0, 24121.0, 24098.0, 24087.0, 24079.0, 24069.0, 24061.0, 24043.0, 24062.0, 24041.0, 24050.0, 24086.0, 24086.0, 24100.0, 24074.0, 24079.0, 24076.0, 24073.0, 24103.0, 24085.0, 24094.0, 24099.0, 24156.0, 24124.0, 24143.0, 24138.0, 24118.0, 24103.0, 24082.0, 24056.0, 24030.0, 24036.0, 24054.0, 24035.0, 24047.0, 24149.0, 24242.0, 24191.0, 24164.0]
    },
    "slices": {}
  }
}