{
  "AcquisitionMatrixPE": 104,
  "AcquisitionNumber": 1,
  "AcquisitionTime": "09:47:38.102500",
  "BandwidthPerPixelPhaseEncode": 17.17,
  "BaseResolution": 104,
  "BodyPartExamined": "BRAIN",
  "CoilString": "HC1-7;NC1_2",
  "ConsistencyInfo": "N4_VE11C_LATEST_20160120",
  "ConversionSoftware": "dcm2niix",
  "ConversionSoftwareVersion": "v1.0.20190720  (JP2:OpenJPEG) GCC7.3.0",
  "DerivedVendorReportedEchoSpacing": 0.000560011,
  "DeviceSerialNumber": "167006",
  "DwellTime": 2.1e-06,
  "EchoTime": 0.037,
  "EchoTrainLength": 104,
  "EffectiveEchoSpacing": 0.000560011,
  "FlipAngle": 52,
  "ImageComments": "Unaliased_MB4_PE3_LB",
  "ImageOrientationPatientDICOM": [0.999918, 0.00982544, 0.00819292, -0.00453746, 0.871164, -0.49097],
  "ImageType": [
    "ORIGINAL",
    "PRIMARY",
    "M",
    "MB",
    "ND",
    "MOSAIC"
],
  "ImagingFrequency": 123.259,
  "InPlanePhaseEncodingDirectionDICOM": "COL",
  "InstitutionAddress": "Chemin_Queen-Mary_4565_Montreal_District_CA_H3W_1W5",
  "InstitutionName": "IUGM",
  "InstitutionalDepartmentName": "Department",
  "MRAcquisitionType": "2D",
  "MagneticFieldStrength": 3,
  "Manufacturer": "Siemens",
  "ManufacturersModelName": "Prisma_fit",
  "Modality": "MR",
  "MultibandAccelerationFactor": 4,
  "PartialFourier": 1,
  "PatientPosition": "HFS",
  "PercentPhaseFOV": 100,
  "PhaseEncodingDirection": "j",
  "PhaseEncodingSteps": 104,
  "PhaseResolution": 1,
  "PixelBandwidth": 2290,
  "ProcedureStepDescription": "hcptrt_generic",
  "ProtocolName": "func_task-relational_run-1",
  "PulseSequenceDetails": "%CustomerSeq%_cmrr_mbep2d_bold",
  "ReceiveCoilActiveElements": "HC1-7;NC1,2",
  "ReceiveCoilName": "HeadNeck_64",
  "ReconMatrixPE": 104,
  "RepetitionTime": 1.49,
  "SAR": 0.0367933,
  "ScanOptions": "FS",
  "ScanningSequence": "EP",
  "SequenceName": "epfid2d1_104",
  "SequenceVariant": "SK_SS",
  "SeriesDescription": "func_task-relational_run-1",
  "SeriesNumber": 19,
  "ShimSetting": [621, -7198, -8870, 422, -27, -147, 45, -25],
  "SliceThickness": 2,
  "SliceTiming": [0, 0.785, 0.0975, 0.8825, 0.1975, 0.98, 0.295, 1.0775, 0.3925, 1.1775, 0.49, 1.275, 0.5875, 1.3725, 0.6875, 0, 0.785, 0.0975, 0.8825, 0.1975, 0.98, 0.295, 1.0775, 0.3925, 1.1775, 0.49, 1.275, 0.5875, 1.3725, 0.6875, 0, 0.785, 0.0975, 0.8825, 0.1975, 0.98, 0.295, 1.0775, 0.3925, 1.1775, 0.49, 1.275, 0.5875, 1.3725, 0.6875, 0, 0.785, 0.0975, 0.8825, 0.1975, 0.98, 0.295, 1.0775, 0.3925, 1.1775, 0.49, 1.275, 0.5875, 1.3725, 0.6875],
  "SoftwareVersions": "syngo_MR_E11",
  "SpacingBetweenSlices": 2,
  "StationName": "MRC35049",
  "TaskName": "relational",
  "TotalReadoutTime": 0.0576811,
  "TxRefAmp": 248.282,
  "WipMemBlock": "49635595-0ff9-433a-905a-bc7f5c3d891a||Sequence: R016 ve11c/master r/e634e98; Dec 19 2017 11:00:25 by eja",
  "dcmmeta_affine": [
    [-1.9998363256454468, -0.009074920788407326, 0.023922758176922798, 103.22956085205078],
    [-0.01965087093412876, 1.7423288822174072, -0.9817860722541809, -59.23006820678711],
    [0.016385840252041817, 0.9819408059120178, 1.7422754764556885, -93.13334655761719],
    [0.0, 0.0, 0.0, 1.0]
],
  "dcmmeta_reorient_transform": [
    [0.0, -1.0, 0.0, 103.0],
    [1.0, 0.0, 0.0, 0.0],
    [0.0, 0.0, 1.0, 0.0],
    [0.0, 0.0, 0.0, 1.0]
],
  "dcmmeta_shape": [104, 104, 60, 119],
  "dcmmeta_slice_dim": 2,
  "dcmmeta_version": 0.6,
  "global": {
    "const": {
      "AcquisitionMatrix": [104, 0, 0, 104],
      "AngioFlag": "N",
      "BitsAllocated": 16,
      "BitsStored": 16,
      "BodyPartExamined": "BRAIN",
      "Columns": 832,
      "EchoNumbers": 1,
      "EchoTime": 37.0,
      "EchoTrainLength": 104,
      "FlipAngle": 52.0,
      "HighBit": 15,
      "ImageOrientationPatient": [0.99991816508454, 0.00982543579825, 0.00819292044022, -0.0045374601818, 0.87116443912594, -0.4909703977405],
      "ImagePositionPatient": [-826.93199691393, -761.59043705143, 359.46855627377],
      "ImageType": [
        "ORIGINAL",
        "PRIMARY",
        "M",
        "MB",
        "ND",
        "MOSAIC"
],
      "ImagedNucleus": "1H",
      "ImagingFrequency": 123.259463,
      "InPlanePhaseEncodingDirection": "COL",
      "MRAcquisitionType": "2D",
      "MagneticFieldStrength": 3.0,
      "Manufacturer": "SIEMENS",
      "ManufacturerModelName": "Prisma_fit",
      "Modality": "MR",
      "NumberOfAverages": 1.0,
      "NumberOfPhaseEncodingSteps": 104,
      "PercentPhaseFieldOfView": 100.0,
      "PercentSampling": 100.0,
      "PerformedProcedureStepStartTime": "085355.731000",
      "PhotometricInterpretation": "MONOCHROME2",
      "PixelBandwidth": 2290.0,
      "PixelRepresentation": 0,
      "PixelSpacing": [2.0, 2.0],
      "ProtocolName": "func_task-relational_run-1",
      "RepetitionTime": 1490.0,
      "Rows": 832,
      "SAR": 0.03679325129158,
      "SamplesPerPixel": 1,
      "ScanOptions": "FS",
      "ScanningSequence": "EP",
      "SequenceName": "epfid2d1_104",
      "SequenceVariant": [
        "SK",
        "SS"
],
      "SeriesDescription": "func_task-relational_run-1",
      "SeriesNumber": 19,
      "SeriesTime": "094902.992000",
      "SliceLocation": -50.821578868807,
      "SliceThickness": 2.0,
      "SmallestImagePixelValue": 0,
      "SoftwareVersions": "syngo MR E11",
      "SpacingBetweenSlices": 1.9999999883684,
      "SpecificCharacterSet": "ISO_IR 100",
      "StudyID": "1",
      "StudyTime": "085355.587000",
      "TransmitCoilName": "Body",
      "VariableFlipAngleFlag": "N",
      "WindowCenterWidthExplanation": "Algo1",
      "dBdt": 0.0},
    "slices": {}
  },
  "time": {
    "samples": {
      "AcquisitionNumber": [1, 2, 3, 4, 5, 6, 7, 8, 9, 10, 11, 12, 13, 14, 15, 16, 17, 18, 19, 20, 21, 22, 23, 24, 25, 26, 27, 28, 29, 30, 31, 32, 33, 34, 35, 36, 37, 38, 39, 40, 41, 42, 43, 44, 45, 46, 47, 48, 49, 50, 51, 52, 53, 54, 55, 56, 57, 58, 59, 60, 61, 62, 63, 64, 65, 66, 67, 68, 69, 70, 71, 72, 73, 74, 75, 76, 77, 78, 79, 80, 81, 82, 83, 84, 85, 86, 87, 88, 89, 90, 91, 92, 93, 94, 95, 96, 97, 98, 99, 100, 101, 102, 103, 104, 105, 106, 107, 108, 109, 110, 111, 112, 113, 114, 115, 116, 117, 118, 119],
      "AcquisitionTime": ["094738.102500", "094739.592500", "094741.082500", "094742.572500", "094744.062500", "094745.552500", "094747.042500", "094748.532500", "094750.022500", "094751.512500", "094753.002500", "094754.492500", "094755.982500", "094757.472500", "094758.962500", "094800.452500", "094801.942500", "094803.432500", "094804.922500", "094806.412500", "094807.902500", "094809.392500", "094810.882500", "094812.372500", "094813.862500", "094815.352500", "094816.842500", "094818.332500", "094819.822500", "094821.312500", "094822.802500", "094824.292500", "094825.782500", "094827.272500", "094828.762500", "094830.252500", "094831.742500", "094833.232500", "094834.722500", "094836.212500", "094837.702500", "094839.192500", "094840.682500", "094842.172500", "094843.662500", "094845.152500", "094846.642500", "094848.132500", "094849.622500", "094851.112500", "094852.602500", "094854.092500", "094855.582500", "094857.072500", "094858.562500", "094900.052500", "094901.542500", "094903.032500", "094904.522500", "094906.012500", "094907.502500", "094908.992500", "094910.482500", "094911.972500", "094913.462500", "094914.952500", "094916.442500", "094917.932500", "094919.422500", "094920.912500", "094922.402500", "094923.892500", "094925.382500", "094926.872500", "094928.362500", "094929.852500", "094931.342500", "094932.832500", "094934.322500", "094935.812500", "094937.302500", "094938.792500", "094940.282500", "094941.772500", "094943.262500", "094944.752500", "094946.242500", "094947.732500", "094949.222500", "094950.712500", "094952.202500", "094953.692500", "094955.182500", "094956.672500", "094958.162500", "094959.652500", "095001.142500", "095002.632500", "095004.122500", "095005.612500", "095007.102500", "095008.592500", "095010.082500", "095011.572500", "095013.062500", "095014.552500", "095016.042500", "095017.532500", "095019.022500", "095020.512500", "095022.002500", "095023.492500", "095024.982500", "095026.472500", "095027.962500", "095029.452500", "095030.942500", "095032.432500", "095033.922500"],
      "ContentTime": ["094902.994000", "094902.998000", "094903.002000", "094903.004000", "094903.007000", "094903.010000", "094903.013000", "094903.016000", "094903.028000", "094903.031000", "094903.034000", "094903.045000", "094903.048000", "094903.050000", "094903.060000", "094903.063000", "094903.066000", "094903.069000", "094903.072000", "094903.075000", "094903.077000", "094903.080000", "094903.083000", "094903.086000", "094903.089000", "094903.092000", "094903.094000", "094903.097000", "094903.100000", "094903.103000", "094922.950000", "094922.953000", "094922.956000", "094922.959000", "094922.961000", "094922.964000", "094922.967000", "094922.970000", "094922.973000", "094922.975000", "094922.978000", "094922.981000", "094922.984000", "094922.987000", "094922.990000", "094922.992000", "094922.995000", "094922.998000", "094923.002000", "094923.005000", "094942.950000", "094942.953000", "094942.956000", "094942.970000", "094942.973000", "094942.976000", "094942.978000", "094942.981000", "094942.984000", "094942.987000", "094942.990000", "094942.992000", "094942.995000", "094942.998000", "094943.002000", "094943.005000", "094943.008000", "094943.011000", "094943.013000", "094943.016000", "095002.949000", "095002.952000", "095002.955000", "095002.958000", "095002.960000", "095002.963000", "095002.966000", "095002.969000", "095002.972000", "095002.975000", "095002.977000", "095002.980000", "095002.983000", "095002.986000", "095002.988000", "095002.991000", "095002.994000", "095002.997000", "095003.001000", "095003.004000", "095003.007000", "095035.741000", "095035.744000", "095035.747000", "095035.750000", "095035.753000", "095035.756000", "095035.759000", "095035.762000", "095035.765000", "095035.768000", "095035.771000", "095035.774000", "095035.777000", "095035.780000", "095035.784000", "095035.787000", "095035.790000", "095035.793000", "095035.796000", "095035.799000", "095035.802000", "095035.805000", "095035.807000", "095035.811000", "095035.814000", "095035.817000", "095035.820000", "095035.823000"],
      "InstanceCreationTime": ["094902.994000", "094902.998000", "094903.002000", "094903.004000", "094903.007000", "094903.010000", "094903.013000", "094903.016000", "094903.028000", "094903.031000", "094903.034000", "094903.045000", "094903.048000", "094903.050000", "094903.060000", "094903.063000", "094903.066000", "094903.069000", "094903.072000", "094903.075000", "094903.077000", "094903.080000", "094903.083000", "094903.086000", "094903.089000", "094903.092000", "094903.094000", "094903.097000", "094903.100000", "094903.103000", "094922.950000", "094922.953000", "094922.956000", "094922.959000", "094922.961000", "094922.964000", "094922.967000", "094922.970000", "094922.973000", "094922.975000", "094922.978000", "094922.981000", "094922.984000", "094922.987000", "094922.990000", "094922.992000", "094922.995000", "094922.998000", "094923.002000", "094923.005000", "094942.950000", "094942.953000", "094942.956000", "094942.970000", "094942.973000", "094942.976000", "094942.978000", "094942.981000", "094942.984000", "094942.987000", "094942.990000", "094942.992000", "094942.995000", "094942.998000", "094943.002000", "094943.005000", "094943.008000", "094943.011000", "094943.013000", "094943.016000", "095002.949000", "095002.952000", "095002.955000", "095002.958000", "095002.960000", "095002.963000", "095002.966000", "095002.969000", "095002.972000", "095002.975000", "095002.977000", "095002.980000", "095002.983000", "095002.986000", "095002.988000", "095002.991000", "095002.994000", "095002.997000", "095003.001000", "095003.004000", "095003.007000", "095035.741000", "095035.744000", "095035.747000", "095035.750000", "095035.753000", "095035.756000", "095035.759000", "095035.762000", "095035.765000", "095035.768000", "095035.771000", "095035.774000", "095035.777000", "095035.780000", "095035.784000", "095035.787000", "095035.790000", "095035.793000", "095035.796000", "095035.799000", "095035.802000", "095035.805000", "095035.807000", "095035.811000", "095035.814000", "095035.817000", "095035.820000", "095035.823000"],
      "InstanceNumber": [1, 2, 3, 4, 5, 6, 7, 8, 9, 10, 11, 12, 13, 14, 15, 16, 17, 18, 19, 20, 21, 22, 23, 24, 25, 26, 27, 28, 29, 30, 31, 32, 33, 34, 35, 36, 37, 38, 39, 40, 41, 42, 43, 44, 45, 46, 47, 48, 49, 50, 51, 52, 53, 54, 55, 56, 57, 58, 59, 60, 61, 62, 63, 64, 65, 66, 67, 68, 69, 70, 71, 72, 73, 74, 75, 76, 77, 78, 79, 80, 81, 82, 83, 84, 85, 86, 87, 88, 89, 90, 91, 92, 93, 94, 95, 96, 97, 98, 99, 100, 101, 102, 103, 104, 105, 106, 107, 108, 109, 110, 111, 112, 113, 114, 115, 116, 117, 118, 119],
      "LargestImagePixelValue": [51832, 49339, 49587, 48518, 47452, 48392, 47781, 47581, 46932, 45821, 46454, 47329, 48053, 48938, 48417, 48149, 47889, 48291, 47845, 48314, 48060, 48187, 47811, 48516, 48065, 48373, 48138, 48438, 48012, 48212, 48163, 47651, 47776, 48793, 48847, 48554, 49390, 49304, 49908, 48935, 49323, 49303, 49004, 49288, 48630, 49512, 48684, 49419, 49257, 49522, 49367, 49125, 48901, 49319, 48804, 49542, 49695, 49223, 49398, 48886, 48520, 48822, 48549, 48849, 48886, 49429, 49367, 48399, 48850, 49231, 48004, 48434, 48769, 48710, 47425, 46833, 46949, 47742, 47753, 48025, 48324, 48252, 48715, 49026, 48505, 48436, 47557, 48717, 47515, 48828, 48836, 48528, 48845, 48304, 48563, 48329, 48577, 48122, 48848, 48317, 48694, 48078, 48237, 48244, 48069, 48271, 48153, 47937, 47988, 47906, 47950, 48382, 47982, 48366, 48197, 46350, 46419, 48070, 49275],
      "WindowCenter": [11286.0, 11230.0, 11237.0, 11247.0, 11218.0, 11202.0, 11188.0, 11199.0, 11201.0, 11199.0, 11190.0, 11174.0, 11168.0, 11164.0, 11156.0, 11168.0, 11175.0, 11182.0, 11183.0, 11198.0, 11221.0, 11239.0, 11242.0, 11248.0, 11234.0, 11233.0, 11230.0, 11222.0, 11216.0, 11204.0, 11199.0, 11197.0, 11208.0, 11205.0, 11199.0, 11184.0, 11186.0, 11191.0, 11206.0, 11204.0, 11216.0, 11196.0, 11181.0, 11181.0, 11170.0, 11181.0, 11169.0, 11171.0, 11172.0, 11168.0, 11164.0, 11167.0, 11173.0, 11189.0, 11189.0, 11190.0, 11184.0, 11174.0, 11164.0, 11157.0, 11148.0, 11165.0, 11180.0, 11176.0, 11169.0, 11158.0, 11151.0, 11158.0, 11184.0, 11209.0, 11208.0, 11178.0, 11143.0, 11145.0, 11143.0, 11134.0, 11125.0, 11127.0, 11121.0, 11126.0, 11134.0, 11133.0, 11142.0, 11150.0, 11156.0, 11169.0, 11188.0, 11198.0, 11188.0, 11206.0, 11196.0, 11194.0, 11208.0, 11215.0, 11205.0, 11188.0, 11176.0, 11156.0, 11165.0, 11166.0, 11177.0, 11172.0, 11172.0, 11163.0, 11149.0, 11148.0, 11155.0, 11139.0, 11136.0, 11126.0, 11119.0, 11124.0, 11146.0, 11152.0, 11194.0, 11198.0, 11173.0, 11154.0, 11147.0],
      "WindowWidth": [24309.0, 24142.0, 24141.0, 24175.0, 24090.0, 24041.0, 24007.0, 24028.0, 24037.0, 24031.0, 24009.0, 23969.0, 23947.0, 23944.0, 23925.0, 23954.0, 23972.0, 23986.0, 23989.0, 24025.0, 24081.0, 24120.0, 24130.0, 24139.0, 24110.0, 24106.0, 24097.0, 24082.0, 24062.0, 24040.0, 24023.0, 24022.0, 24060.0, 24040.0, 24024.0, 23987.0, 23994.0, 24002.0, 24036.0, 24034.0, 24073.0, 24015.0, 23976.0, 23976.0, 23951.0, 23972.0, 23953.0, 23950.0, 23954.0, 23944.0, 23934.0, 23945.0, 23960.0, 23995.0, 24020.0, 23995.0, 23983.0, 23959.0, 23937.0, 23916.0, 23900.0, 23936.0, 23987.0, 23961.0, 23954.0, 23921.0, 23907.0, 23923.0, 23982.0, 24048.0, 24060.0, 23987.0, 23893.0, 23893.0, 23889.0, 23872.0, 23846.0, 23861.0, 23835.0, 23847.0, 23864.0, 23865.0, 23885.0, 23913.0, 23913.0, 23949.0, 23990.0, 24015.0, 23993.0, 24048.0, 24008.0, 24012.0, 24038.0, 24061.0, 24032.0, 23993.0, 23976.0, 23920.0, 23937.0, 23954.0, 23966.0, 23959.0, 23957.0, 23942.0, 23902.0, 23901.0, 23916.0, 23879.0, 23870.0, 23849.0, 23835.0, 23842.0, 23921.0, 23914.0, 24020.0, 24039.0, 23974.0, 23924.0, 23898.0]
    },
    "slices": {}
  }
}