{
  "AcquisitionMatrixPE": 104,
  "AcquisitionNumber": 1,
  "AcquisitionTime": "16:40:36.000000",
  "BandwidthPerPixelPhaseEncode": 17.17,
  "BaseResolution": 104,
  "BodyPartExamined": "BRAIN",
  "CoilString": "HC1-7;NC1_2",
  "ConsistencyInfo": "N4_VE11C_LATEST_20160120",
  "ConversionSoftware": "dcm2niix",
  "ConversionSoftwareVersion": "v1.0.20190720  (JP2:OpenJPEG) GCC7.3.0",
  "DerivedVendorReportedEchoSpacing": 0.000560011,
  "DeviceSerialNumber": "167006",
  "DwellTime": 2.1e-06,
  "EchoTime": 0.037,
  "EchoTrainLength": 104,
  "EffectiveEchoSpacing": 0.000560011,
  "FlipAngle": 52,
  "ImageComments": "Unaliased_MB4_PE3_LB",
  "ImageOrientationPatientDICOM": [0.999484, -0.0296716, 0.0122806, 0.0321085, 0.929448, -0.367552],
  "ImageType": [
    "ORIGINAL",
    "PRIMARY",
    "M",
    "MB",
    "ND",
    "MOSAIC"
],
  "ImagingFrequency": 123.259,
  "InPlanePhaseEncodingDirectionDICOM": "COL",
  "InstitutionAddress": "Chemin_Queen-Mary_4565_Montreal_District_CA_H3W_1W5",
  "InstitutionName": "IUGM",
  "InstitutionalDepartmentName": "Department",
  "MRAcquisitionType": "2D",
  "MagneticFieldStrength": 3,
  "Manufacturer": "Siemens",
  "ManufacturersModelName": "Prisma_fit",
  "Modality": "MR",
  "MultibandAccelerationFactor": 4,
  "PartialFourier": 1,
  "PatientPosition": "HFS",
  "PercentPhaseFOV": 100,
  "PhaseEncodingDirection": "j",
  "PhaseEncodingSteps": 104,
  "PhaseResolution": 1,
  "PixelBandwidth": 2290,
  "ProcedureStepDescription": "hcptrt_generic",
  "ProtocolName": "func_task-social_run-1",
  "PulseSequenceDetails": "%CustomerSeq%_cmrr_mbep2d_bold",
  "ReceiveCoilActiveElements": "HC1-7;NC1,2",
  "ReceiveCoilName": "HeadNeck_64",
  "ReconMatrixPE": 104,
  "RepetitionTime": 1.49,
  "SAR": 0.029229,
  "ScanOptions": "FS",
  "ScanningSequence": "EP",
  "SequenceName": "epfid2d1_104",
  "SequenceVariant": "SK_SS",
  "SeriesDescription": "func_task-social_run-1",
  "SeriesNumber": 15,
  "ShimSetting": [628, -7147, -8817, 671, 20, 181, 2, 8],
  "SliceThickness": 2,
  "SliceTiming": [0, 0.7825, 0.0975, 0.88, 0.195, 0.98, 0.2925, 1.0775, 0.3925, 1.175, 0.49, 1.2725, 0.5875, 1.37, 0.685, 0, 0.7825, 0.0975, 0.88, 0.195, 0.98, 0.2925, 1.0775, 0.3925, 1.175, 0.49, 1.2725, 0.5875, 1.37, 0.685, 0, 0.7825, 0.0975, 0.88, 0.195, 0.98, 0.2925, 1.0775, 0.3925, 1.175, 0.49, 1.2725, 0.5875, 1.37, 0.685, 0, 0.7825, 0.0975, 0.88, 0.195, 0.98, 0.2925, 1.0775, 0.3925, 1.175, 0.49, 1.2725, 0.5875, 1.37, 0.685],
  "SoftwareVersions": "syngo_MR_E11",
  "SpacingBetweenSlices": 2,
  "StationName": "MRC35049",
  "TaskName": "social",
  "TotalReadoutTime": 0.0576811,
  "TxRefAmp": 209.096,
  "WipMemBlock": "8f5f79e6-5df6-4ba0-a9f1-a9cfed20d3bf||Sequence: R016 ve11c/master r/e634e98; Dec 19 2017 11:00:25 by eja",
  "dcmmeta_affine": [
    [-1.998968482017517, 0.06421700865030289, 0.001016626600176096, 104.96529388427734],
    [0.0593431293964386, 1.8588968515396118, -0.7355138659477234, -68.99702453613281],
    [0.02456115186214447, 0.7351043820381165, 1.8598436117172241, -72.54606628417969],
    [0.0, 0.0, 0.0, 1.0]
],
  "dcmmeta_reorient_transform": [
    [0.0, -1.0, 0.0, 103.0],
    [1.0, 0.0, 0.0, 0.0],
    [0.0, 0.0, 1.0, 0.0],
    [0.0, 0.0, 0.0, 1.0]
],
  "dcmmeta_shape": [104, 104, 60, 139],
  "dcmmeta_slice_dim": 2,
  "dcmmeta_version": 0.6,
  "global": {
    "const": {
      "AcquisitionMatrix": [104, 0, 0, 104],
      "AngioFlag": "N",
      "BitsAllocated": 16,
      "BitsStored": 16,
      "BodyPartExamined": "BRAIN",
      "Columns": 832,
      "EchoNumbers": 1,
      "EchoTime": 37.0,
      "EchoTrainLength": 104,
      "FlipAngle": 52.0,
      "HighBit": 15,
      "ImageOrientationPatient": [0.99948425983277, -0.02967156551, 0.01228057599336, 0.03210850298783, 0.92944845336957, -0.3675521957012],
      "ImagePositionPatient": [-862.579177385, -777.5069297507, 261.80742695852],
      "ImageType": [
        "ORIGINAL",
        "PRIMARY",
        "M",
        "MB",
        "ND",
        "MOSAIC"
],
      "ImagedNucleus": "1H",
      "ImagingFrequency": 123.259372,
      "InPlanePhaseEncodingDirection": "COL",
      "MRAcquisitionType": "2D",
      "MagneticFieldStrength": 3.0,
      "Manufacturer": "SIEMENS",
      "ManufacturerModelName": "Prisma_fit",
      "Modality": "MR",
      "NumberOfAverages": 1.0,
      "NumberOfPhaseEncodingSteps": 104,
      "PercentPhaseFieldOfView": 100.0,
      "PercentSampling": 100.0,
      "PerformedProcedureStepStartTime": "160201.164000",
      "PhotometricInterpretation": "MONOCHROME2",
      "PixelBandwidth": 2290.0,
      "PixelRepresentation": 0,
      "PixelSpacing": [2.0, 2.0],
      "ProtocolName": "func_task-social_run-1",
      "RepetitionTime": 1490.0,
      "Rows": 832,
      "SAR": 0.02922899897982,
      "SamplesPerPixel": 1,
      "ScanOptions": "FS",
      "ScanningSequence": "EP",
      "SequenceName": "epfid2d1_104",
      "SequenceVariant": [
        "SK",
        "SS"
],
      "SeriesDescription": "func_task-social_run-1",
      "SeriesNumber": 15,
      "SeriesTime": "164204.229000",
      "SliceLocation": -42.034676773484,
      "SliceThickness": 2.0,
      "SmallestImagePixelValue": 0,
      "SoftwareVersions": "syngo MR E11",
      "SpacingBetweenSlices": 1.9999999437394,
      "SpecificCharacterSet": "ISO_IR 100",
      "StudyID": "1",
      "StudyTime": "160201.110000",
      "TransmitCoilName": "Body",
      "VariableFlipAngleFlag": "N",
      "WindowCenterWidthExplanation": "Algo1",
      "dBdt": 0.0},
    "slices": {}
  },
  "time": {
    "samples": {
      "AcquisitionNumber": [1, 2, 3, 4, 5, 6, 7, 8, 9, 10, 11, 12, 13, 14, 15, 16, 17, 18, 19, 20, 21, 22, 23, 24, 25, 26, 27, 28, 29, 30, 31, 32, 33, 34, 35, 36, 37, 38, 39, 40, 41, 42, 43, 44, 45, 46, 47, 48, 49, 50, 51, 52, 53, 54, 55, 56, 57, 58, 59, 60, 61, 62, 63, 64, 65, 66, 67, 68, 69, 70, 71, 72, 73, 74, 75, 76, 77, 78, 79, 80, 81, 82, 83, 84, 85, 86, 87, 88, 89, 90, 91, 92, 93, 94, 95, 96, 97, 98, 99, 100, 101, 102, 103, 104, 105, 106, 107, 108, 109, 110, 111, 112, 113, 114, 115, 116, 117, 118, 119, 120, 121, 122, 123, 124, 125, 126, 127, 128, 129, 130, 131, 132, 133, 134, 135, 136, 137, 138, 139],
      "AcquisitionTime": ["164036.000000", "164037.490000", "164038.980000", "164040.470000", "164041.960000", "164043.450000", "164044.940000", "164046.430000", "164047.920000", "164049.410000", "164050.900000", "164052.390000", "164053.880000", "164055.370000", "164056.860000", "164058.350000", "164059.840000", "164101.330000", "164102.820000", "164104.310000", "164105.800000", "164107.290000", "164108.780000", "164110.270000", "164111.760000", "164113.250000", "164114.740000", "164116.230000", "164117.720000", "164119.210000", "164120.700000", "164122.190000", "164123.680000", "164125.170000", "164126.660000", "164128.150000", "164129.640000", "164131.130000", "164132.620000", "164134.110000", "164135.600000", "164137.090000", "164138.580000", "164140.070000", "164141.560000", "164143.050000", "164144.540000", "164146.030000", "164147.520000", "164149.010000", "164150.500000", "164151.990000", "164153.480000", "164154.970000", "164156.460000", "164157.950000", "164159.440000", "164200.930000", "164202.420000", "164203.910000", "164205.400000", "164206.890000", "164208.380000", "164209.870000", "164211.360000", "164212.850000", "164214.340000", "164215.830000", "164217.320000", "164218.810000", "164220.300000", "164221.790000", "164223.280000", "164224.770000", "164226.260000", "164227.750000", "164229.240000", "164230.730000", "164232.220000", "164233.710000", "164235.200000", "164236.690000", "164238.180000", "164239.670000", "164241.160000", "164242.650000", "164244.140000", "164245.630000", "164247.120000", "164248.610000", "164250.100000", "164251.590000", "164253.080000", "164254.570000", "164256.060000", "164257.550000", "164259.040000", "164300.530000", "164302.020000", "164303.510000", "164305.000000", "164306.490000", "164307.980000", "164309.470000", "164310.960000", "164312.450000", "164313.940000", "164315.430000", "164316.920000", "164318.410000", "164319.900000", "164321.390000", "164322.880000", "164324.370000", "164325.860000", "164327.350000", "164328.840000", "164330.330000", "164331.820000", "164333.310000", "164334.800000", "164336.290000", "164337.780000", "164339.270000", "164340.760000", "164342.250000", "164343.740000", "164345.230000", "164346.720000", "164348.210000", "164349.700000", "164351.190000", "164352.680000", "164354.170000", "164355.660000", "164357.150000", "164358.640000", "164400.130000", "164401.620000"],
      "ContentTime": ["164204.231000", "164204.235000", "164204.238000", "164204.240000", "164204.245000", "164204.248000", "164204.251000", "164204.254000", "164204.256000", "164204.259000", "164204.262000", "164204.265000", "164204.268000", "164204.270000", "164204.273000", "164204.276000", "164204.279000", "164204.282000", "164204.284000", "164204.287000", "164204.290000", "164204.293000", "164204.296000", "164204.298000", "164204.301000", "164204.304000", "164204.307000", "164204.310000", "164204.312000", "164204.315000", "164204.318000", "164204.321000", "164204.324000", "164224.203000", "164224.206000", "164224.209000", "164224.211000", "164224.214000", "164224.217000", "164224.220000", "164224.223000", "164224.226000", "164224.228000", "164224.231000", "164224.234000", "164224.237000", "164224.240000", "164224.242000", "164224.245000", "164224.248000", "164224.251000", "164224.253000", "164224.256000", "164244.203000", "164244.206000", "164244.208000", "164244.211000", "164244.214000", "164244.217000", "164244.220000", "164244.222000", "164244.225000", "164244.228000", "164244.231000", "164244.234000", "164244.237000", "164244.239000", "164244.242000", "164244.245000", "164244.248000", "164244.251000", "164244.254000", "164244.257000", "164304.203000", "164304.206000", "164304.209000", "164304.211000", "164304.224000", "164304.227000", "164304.230000", "164304.233000", "164304.236000", "164304.238000", "164304.241000", "164304.244000", "164304.247000", "164304.250000", "164304.252000", "164304.255000", "164304.258000", "164304.261000", "164304.264000", "164304.266000", "164304.269000", "164344.204000", "164344.207000", "164344.210000", "164344.213000", "164344.215000", "164344.218000", "164344.221000", "164344.234000", "164344.237000", "164344.240000", "164344.243000", "164344.246000", "164344.248000", "164344.251000", "164344.254000", "164344.257000", "164344.260000", "164344.262000", "164344.265000", "164344.268000", "164344.271000", "164344.273000", "164344.276000", "164344.279000", "164344.282000", "164344.285000", "164344.288000", "164344.291000", "164344.294000", "164344.297000", "164344.299000", "164403.843000", "164403.846000", "164403.850000", "164403.852000", "164403.855000", "164403.858000", "164403.861000", "164403.864000", "164403.867000", "164403.870000", "164403.872000", "164403.875000", "164403.878000", "164403.881000"],
      "InstanceCreationTime": ["164204.231000", "164204.235000", "164204.238000", "164204.240000", "164204.245000", "164204.248000", "164204.251000", "164204.254000", "164204.256000", "164204.259000", "164204.262000", "164204.265000", "164204.268000", "164204.270000", "164204.273000", "164204.276000", "164204.279000", "164204.282000", "164204.284000", "164204.287000", "164204.290000", "164204.293000", "164204.296000", "164204.298000", "164204.301000", "164204.304000", "164204.307000", "164204.310000", "164204.312000", "164204.315000", "164204.318000", "164204.321000", "164204.324000", "164224.203000", "164224.206000", "164224.209000", "164224.211000", "164224.214000", "164224.217000", "164224.220000", "164224.223000", "164224.226000", "164224.228000", "164224.231000", "164224.234000", "164224.237000", "164224.240000", "164224.242000", "164224.245000", "164224.248000", "164224.251000", "164224.253000", "164224.256000", "164244.203000", "164244.206000", "164244.208000", "164244.211000", "164244.214000", "164244.217000", "164244.220000", "164244.222000", "164244.225000", "164244.228000", "164244.231000", "164244.234000", "164244.237000", "164244.239000", "164244.242000", "164244.245000", "164244.248000", "164244.251000", "164244.254000", "164244.257000", "164304.203000", "164304.206000", "164304.209000", "164304.211000", "164304.224000", "164304.227000", "164304.230000", "164304.233000", "164304.236000", "164304.238000", "164304.241000", "164304.244000", "164304.247000", "164304.250000", "164304.252000", "164304.255000", "164304.258000", "164304.261000", "164304.264000", "164304.266000", "164304.269000", "164344.204000", "164344.207000", "164344.210000", "164344.213000", "164344.215000", "164344.218000", "164344.221000", "164344.234000", "164344.237000", "164344.240000", "164344.243000", "164344.246000", "164344.248000", "164344.251000", "164344.254000", "164344.257000", "164344.260000", "164344.262000", "164344.265000", "164344.268000", "164344.271000", "164344.273000", "164344.276000", "164344.279000", "164344.282000", "164344.285000", "164344.288000", "164344.291000", "164344.294000", "164344.297000", "164344.299000", "164403.843000", "164403.846000", "164403.850000", "164403.852000", "164403.855000", "164403.858000", "164403.861000", "164403.864000", "164403.867000", "164403.870000", "164403.872000", "164403.875000", "164403.878000", "164403.881000"],
      "InstanceNumber": [1, 2, 3, 4, 5, 6, 7, 8, 9, 10, 11, 12, 13, 14, 15, 16, 17, 18, 19, 20, 21, 22, 23, 24, 25, 26, 27, 28, 29, 30, 31, 32, 33, 34, 35, 36, 37, 38, 39, 40, 41, 42, 43, 44, 45, 46, 47, 48, 49, 50, 51, 52, 53, 54, 55, 56, 57, 58, 59, 60, 61, 62, 63, 64, 65, 66, 67, 68, 69, 70, 71, 72, 73, 74, 75, 76, 77, 78, 79, 80, 81, 82, 83, 84, 85, 86, 87, 88, 89, 90, 91, 92, 93, 94, 95, 96, 97, 98, 99, 100, 101, 102, 103, 104, 105, 106, 107, 108, 109, 110, 111, 112, 113, 114, 115, 116, 117, 118, 119, 120, 121, 122, 123, 124, 125, 126, 127, 128, 129, 130, 131, 132, 133, 134, 135, 136, 137, 138, 139],
      "LargestImagePixelValue": [40257, 39459, 39068, 39064, 38374, 38084, 37669, 38070, 38289, 38531, 38370, 38236, 38555, 38521, 38032, 38059, 38225, 38385, 38841, 38320, 38409, 38399, 38210, 38275, 38381, 38128, 38176, 37842, 38364, 37830, 37892, 37990, 37982, 38236, 38840, 37914, 38110, 37657, 37934, 38198, 38145, 38044, 38308, 38190, 37987, 38427, 38347, 38255, 37902, 38268, 38228, 38157, 37750, 37691, 38205, 37770, 37702, 37691, 38434, 38380, 38081, 37960, 37824, 37591, 37876, 38042, 37983, 38025, 37788, 38070, 37545, 38053, 38110, 38063, 38000, 37915, 37700, 37667, 37866, 38136, 38214, 38107, 37994, 38142, 38014, 38161, 37645, 37868, 37984, 38466, 38161, 37948, 37805, 37664, 37498, 38131, 37954, 38048, 38524, 37896, 37714, 37843, 37555, 37282, 37503, 38072, 37956, 37805, 38046, 37839, 37913, 37613, 37981, 38337, 37717, 37854, 38037, 38144, 37749, 37812, 37947, 38325, 37888, 37853, 37593, 37906, 37604, 37960, 38046, 37250, 37270, 37455, 38175, 38232, 37819, 37753, 38019, 37826, 38185],
      "WindowCenter": [9877.0, 9843.0, 9832.0, 9830.0, 9826.0, 9826.0, 9827.0, 9824.0, 9823.0, 9830.0, 9832.0, 9834.0, 9840.0, 9850.0, 9845.0, 9843.0, 9826.0, 9823.0, 9830.0, 9837.0, 9840.0, 9846.0, 9834.0, 9824.0, 9822.0, 9825.0, 9831.0, 9826.0, 9840.0, 9834.0, 9817.0, 9807.0, 9796.0, 9803.0, 9817.0, 9822.0, 9823.0, 9824.0, 9822.0, 9823.0, 9829.0, 9824.0, 9831.0, 9815.0, 9814.0, 9829.0, 9839.0, 9839.0, 9836.0, 9834.0, 9843.0, 9842.0, 9819.0, 9808.0, 9804.0, 9800.0, 9797.0, 9797.0, 9801.0, 9809.0, 9813.0, 9817.0, 9817.0, 9809.0, 9823.0, 9824.0, 9824.0, 9825.0, 9841.0, 9850.0, 9845.0, 9844.0, 9852.0, 9855.0, 9837.0, 9813.0, 9804.0, 9802.0, 9809.0, 9815.0, 9815.0, 9807.0, 9806.0, 9814.0, 9824.0, 9825.0, 9818.0, 9810.0, 9807.0, 9821.0, 9833.0, 9852.0, 9855.0, 9847.0, 9838.0, 9843.0, 9842.0, 9843.0, 9841.0, 9828.0, 9829.0, 9839.0, 9839.0, 9830.0, 9820.0, 9817.0, 9809.0, 9805.0, 9814.0, 9819.0, 9828.0, 9819.0, 9810.0, 9806.0, 9802.0, 9813.0, 9825.0, 9833.0, 9834.0, 9828.0, 9841.0, 9858.0, 9846.0, 9854.0, 9848.0, 9838.0, 9821.0, 9811.0, 9817.0, 9815.0, 9813.0, 9795.0, 9804.0, 9805.0, 9819.0, 9820.0, 9826.0, 9811.0, 9800.0],
      "WindowWidth": [20925.0, 20826.0, 20791.0, 20781.0, 20774.0, 20774.0, 20775.0, 20767.0, 20763.0, 20775.0, 20782.0, 20789.0, 20800.0, 20823.0, 20815.0, 20808.0, 20771.0, 20760.0, 20776.0, 20791.0, 20800.0, 20813.0, 20786.0, 20761.0, 20757.0, 20766.0, 20776.0, 20771.0, 20797.0, 20786.0, 20747.0, 20724.0, 20699.0, 20713.0, 20745.0, 20761.0, 20761.0, 20762.0, 20759.0, 20762.0, 20774.0, 20766.0, 20777.0, 20743.0, 20740.0, 20773.0, 20794.0, 20794.0, 20792.0, 20787.0, 20808.0, 20802.0, 20754.0, 20726.0, 20713.0, 20712.0, 20704.0, 20702.0, 20709.0, 20725.0, 20738.0, 20751.0, 20749.0, 20734.0, 20761.0, 20766.0, 20766.0, 20770.0, 20805.0, 20825.0, 20814.0, 20809.0, 20825.0, 20832.0, 20792.0, 20739.0, 20720.0, 20716.0, 20731.0, 20744.0, 20742.0, 20724.0, 20721.0, 20739.0, 20761.0, 20765.0, 20751.0, 20733.0, 20726.0, 20756.0, 20786.0, 20830.0, 20838.0, 20819.0, 20799.0, 20806.0, 20804.0, 20808.0, 20800.0, 20775.0, 20779.0, 20801.0, 20800.0, 20779.0, 20756.0, 20746.0, 20729.0, 20719.0, 20738.0, 20754.0, 20772.0, 20751.0, 20734.0, 20722.0, 20716.0, 20736.0, 20768.0, 20786.0, 20788.0, 20777.0, 20803.0, 20840.0, 20816.0, 20831.0, 20818.0, 20793.0, 20755.0, 20735.0, 20748.0, 20750.0, 20742.0, 20700.0, 20712.0, 20718.0, 20756.0, 20757.0, 20768.0, 20733.0, 20709.0]
    },
    "slices": {}
  }
}