{
  "AcquisitionMatrixPE": 104,
  "AcquisitionNumber": 1,
  "AcquisitionTime": "16:44:57.455000",
  "BandwidthPerPixelPhaseEncode": 17.17,
  "BaseResolution": 104,
  "BodyPartExamined": "BRAIN",
  "CoilString": "HC1-7;NC1_2",
  "ConsistencyInfo": "N4_VE11C_LATEST_20160120",
  "ConversionSoftware": "dcm2niix",
  "ConversionSoftwareVersion": "v1.0.20190720  (JP2:OpenJPEG) GCC7.3.0",
  "DerivedVendorReportedEchoSpacing": 0.000560011,
  "DeviceSerialNumber": "167006",
  "DwellTime": 2.1e-06,
  "EchoTime": 0.037,
  "EchoTrainLength": 104,
  "EffectiveEchoSpacing": 0.000560011,
  "FlipAngle": 52,
  "ImageComments": "Unaliased_MB4_PE3_LB",
  "ImageOrientationPatientDICOM": [0.999484, -0.0296716, 0.0122806, 0.0321085, 0.929448, -0.367552],
  "ImageType": [
    "ORIGINAL",
    "PRIMARY",
    "M",
    "MB",
    "ND",
    "MOSAIC"
],
  "ImagingFrequency": 123.259,
  "InPlanePhaseEncodingDirectionDICOM": "COL",
  "InstitutionAddress": "Chemin_Queen-Mary_4565_Montreal_District_CA_H3W_1W5",
  "InstitutionName": "IUGM",
  "InstitutionalDepartmentName": "Department",
  "MRAcquisitionType": "2D",
  "MagneticFieldStrength": 3,
  "Manufacturer": "Siemens",
  "ManufacturersModelName": "Prisma_fit",
  "Modality": "MR",
  "MultibandAccelerationFactor": 4,
  "PartialFourier": 1,
  "PatientPosition": "HFS",
  "PercentPhaseFOV": 100,
  "PhaseEncodingDirection": "j",
  "PhaseEncodingSteps": 104,
  "PhaseResolution": 1,
  "PixelBandwidth": 2290,
  "ProcedureStepDescription": "hcptrt_generic",
  "ProtocolName": "func_task-wm_run-1",
  "PulseSequenceDetails": "%CustomerSeq%_cmrr_mbep2d_bold",
  "ReceiveCoilActiveElements": "HC1-7;NC1,2",
  "ReceiveCoilName": "HeadNeck_64",
  "ReconMatrixPE": 104,
  "RepetitionTime": 1.49,
  "SAR": 0.029353,
  "ScanOptions": "FS",
  "ScanningSequence": "EP",
  "SequenceName": "epfid2d1_104",
  "SequenceVariant": "SK_SS",
  "SeriesDescription": "func_task-wm_run-1",
  "SeriesNumber": 17,
  "ShimSetting": [628, -7147, -8817, 671, 20, 181, 2, 8],
  "SliceThickness": 2,
  "SliceTiming": [0, 0.785, 0.0975, 0.8825, 0.1975, 0.98, 0.295, 1.0775, 0.3925, 1.1775, 0.49, 1.275, 0.5875, 1.3725, 0.6875, 0, 0.785, 0.0975, 0.8825, 0.1975, 0.98, 0.295, 1.0775, 0.3925, 1.1775, 0.49, 1.275, 0.5875, 1.3725, 0.6875, 0, 0.785, 0.0975, 0.8825, 0.1975, 0.98, 0.295, 1.0775, 0.3925, 1.1775, 0.49, 1.275, 0.5875, 1.3725, 0.6875, 0, 0.785, 0.0975, 0.8825, 0.1975, 0.98, 0.295, 1.0775, 0.3925, 1.1775, 0.49, 1.275, 0.5875, 1.3725, 0.6875],
  "SoftwareVersions": "syngo_MR_E11",
  "SpacingBetweenSlices": 2,
  "StationName": "MRC35049",
  "TaskName": "wm",
  "TotalReadoutTime": 0.0576811,
  "TxRefAmp": 209.096,
  "WipMemBlock": "c2d5e423-ef53-48bd-82e2-75e57b03b70f||Sequence: R016 ve11c/master r/e634e98; Dec 19 2017 11:00:25 by eja",
  "dcmmeta_affine": [
    [-1.998968482017517, 0.06421700865030289, 0.001016626600176096, 104.96529388427734],
    [0.0593431293964386, 1.8588968515396118, -0.7355138659477234, -68.99702453613281],
    [0.02456115186214447, 0.7351043820381165, 1.8598436117172241, -72.54606628417969],
    [0.0, 0.0, 0.0, 1.0]
],
  "dcmmeta_reorient_transform": [
    [0.0, -1.0, 0.0, 103.0],
    [1.0, 0.0, 0.0, 0.0],
    [0.0, 0.0, 1.0, 0.0],
    [0.0, 0.0, 0.0, 1.0]
],
  "dcmmeta_shape": [104, 104, 60, 202],
  "dcmmeta_slice_dim": 2,
  "dcmmeta_version": 0.6,
  "global": {
    "const": {
      "AcquisitionMatrix": [104, 0, 0, 104],
      "AngioFlag": "N",
      "BitsAllocated": 16,
      "BitsStored": 16,
      "BodyPartExamined": "BRAIN",
      "Columns": 832,
      "EchoNumbers": 1,
      "EchoTime": 37.0,
      "EchoTrainLength": 104,
      "FlipAngle": 52.0,
      "HighBit": 15,
      "ImageOrientationPatient": [0.99948425983277, -0.02967156551, 0.01228057599336, 0.03210850298783, 0.92944845336957, -0.3675521957012],
      "ImagePositionPatient": [-862.579177385, -777.5069297507, 261.80742695852],
      "ImageType": [
        "ORIGINAL",
        "PRIMARY",
        "M",
        "MB",
        "ND",
        "MOSAIC"
],
      "ImagedNucleus": "1H",
      "ImagingFrequency": 123.259372,
      "InPlanePhaseEncodingDirection": "COL",
      "MRAcquisitionType": "2D",
      "MagneticFieldStrength": 3.0,
      "Manufacturer": "SIEMENS",
      "ManufacturerModelName": "Prisma_fit",
      "Modality": "MR",
      "NumberOfAverages": 1.0,
      "NumberOfPhaseEncodingSteps": 104,
      "PercentPhaseFieldOfView": 100.0,
      "PercentSampling": 100.0,
      "PerformedProcedureStepStartTime": "160201.164000",
      "PhotometricInterpretation": "MONOCHROME2",
      "PixelBandwidth": 2290.0,
      "PixelRepresentation": 0,
      "PixelSpacing": [2.0, 2.0],
      "ProtocolName": "func_task-wm_run-1",
      "RepetitionTime": 1490.0,
      "Rows": 832,
      "SAR": 0.029352994158,
      "SamplesPerPixel": 1,
      "ScanOptions": "FS",
      "ScanningSequence": "EP",
      "SequenceName": "epfid2d1_104",
      "SequenceVariant": [
        "SK",
        "SS"
],
      "SeriesDescription": "func_task-wm_run-1",
      "SeriesNumber": 17,
      "SeriesTime": "164625.431000",
      "SliceLocation": -42.034676773484,
      "SliceThickness": 2.0,
      "SmallestImagePixelValue": 0,
      "SoftwareVersions": "syngo MR E11",
      "SpacingBetweenSlices": 1.9999999437394,
      "SpecificCharacterSet": "ISO_IR 100",
      "StudyID": "1",
      "StudyTime": "160201.110000",
      "TransmitCoilName": "Body",
      "VariableFlipAngleFlag": "N",
      "WindowCenterWidthExplanation": "Algo1",
      "dBdt": 0.0},
    "slices": {}
  },
  "time": {
    "samples": {
      "AcquisitionNumber": [1, 2, 3, 4, 5, 6, 7, 8, 9, 10, 11, 12, 13, 14, 15, 16, 17, 18, 19, 20, 21, 22, 23, 24, 25, 26, 27, 28, 29, 30, 31, 32, 33, 34, 35, 36, 37, 38, 39, 40, 41, 42, 43, 44, 45, 46, 47, 48, 49, 50, 51, 52, 53, 54, 55, 56, 57, 58, 59, 60, 61, 62, 63, 64, 65, 66, 67, 68, 69, 70, 71, 72, 73, 74, 75, 76, 77, 78, 79, 80, 81, 82, 83, 84, 85, 86, 87, 88, 89, 90, 91, 92, 93, 94, 95, 96, 97, 98, 99, 100, 101, 102, 103, 104, 105, 106, 107, 108, 109, 110, 111, 112, 113, 114, 115, 116, 117, 118, 119, 120, 121, 122, 123, 124, 125, 126, 127, 128, 129, 130, 131, 132, 133, 134, 135, 136, 137, 138, 139, 140, 141, 142, 143, 144, 145, 146, 147, 148, 149, 150, 151, 152, 153, 154, 155, 156, 157, 158, 159, 160, 161, 162, 163, 164, 165, 166, 167, 168, 169, 170, 171, 172, 173, 174, 175, 176, 177, 178, 179, 180, 181, 182, 183, 184, 185, 186, 187, 188, 189, 190, 191, 192, 193, 194, 195, 196, 197, 198, 199, 200, 201, 202],
      "AcquisitionTime": ["164457.455000", "164458.945000", "164500.435000", "164501.925000", "164503.415000", "164504.905000", "164506.395000", "164507.885000", "164509.375000", "164510.865000", "164512.355000", "164513.845000", "164515.335000", "164516.825000", "164518.315000", "164519.805000", "164521.295000", "164522.785000", "164524.275000", "164525.765000", "164527.255000", "164528.745000", "164530.235000", "164531.725000", "164533.215000", "164534.705000", "164536.195000", "164537.685000", "164539.175000", "164540.665000", "164542.155000", "164543.645000", "164545.135000", "164546.625000", "164548.115000", "164549.605000", "164551.095000", "164552.585000", "164554.075000", "164555.565000", "164557.055000", "164558.545000", "164600.035000", "164601.525000", "164603.015000", "164604.505000", "164605.995000", "164607.485000", "164608.975000", "164610.465000", "164611.955000", "164613.445000", "164614.935000", "164616.425000", "164617.915000", "164619.405000", "164620.895000", "164622.385000", "164623.875000", "164625.365000", "164626.855000", "164628.345000", "164629.835000", "164631.325000", "164632.815000", "164634.305000", "164635.795000", "164637.285000", "164638.775000", "164640.265000", "164641.755000", "164643.245000", "164644.735000", "164646.225000", "164647.715000", "164649.205000", "164650.695000", "164652.185000", "164653.675000", "164655.165000", "164656.655000", "164658.145000", "164659.635000", "164701.125000", "164702.615000", "164704.105000", "164705.595000", "164707.085000", "164708.575000", "164710.065000", "164711.555000", "164713.045000", "164714.535000", "164716.025000", "164717.515000", "164719.005000", "164720.495000", "164721.985000", "164723.475000", "164724.965000", "164726.455000", "164727.945000", "164729.435000", "164730.925000", "164732.415000", "164733.905000", "164735.395000", "164736.885000", "164738.375000", "164739.865000", "164741.355000", "164742.845000", "164744.335000", "164745.825000", "164747.315000", "164748.805000", "164750.295000", "164751.785000", "164753.275000", "164754.765000", "164756.255000", "164757.745000", "164759.235000", "164800.725000", "164802.215000", "164803.705000", "164805.195000", "164806.685000", "164808.175000", "164809.665000", "164811.155000", "164812.645000", "164814.135000", "164815.625000", "164817.115000", "164818.605000", "164820.095000", "164821.585000", "164823.075000", "164824.565000", "164826.055000", "164827.545000", "164829.035000", "164830.525000", "164832.015000", "164833.505000", "164834.995000", "164836.485000", "164837.975000", "164839.465000", "164840.955000", "164842.445000", "164843.935000", "164845.425000", "164846.915000", "164848.405000", "164849.895000", "164851.385000", "164852.875000", "164854.365000", "164855.855000", "164857.345000", "164858.835000", "164900.325000", "164901.815000", "164903.305000", "164904.795000", "164906.285000", "164907.775000", "164909.265000", "164910.755000", "164912.245000", "164913.735000", "164915.225000", "164916.715000", "164918.205000", "164919.695000", "164921.185000", "164922.675000", "164924.165000", "164925.655000", "164927.145000", "164928.635000", "164930.125000", "164931.615000", "164933.105000", "164934.595000", "164936.085000", "164937.575000", "164939.065000", "164940.555000", "164942.045000", "164943.535000", "164945.025000", "164946.515000", "164948.005000", "164949.495000", "164950.985000", "164952.475000", "164953.965000", "164955.455000", "164956.945000"],
      "ContentTime": ["164625.434000", "164625.437000", "164625.440000", "164625.442000", "164625.445000", "164625.448000", "164625.451000", "164625.453000", "164625.456000", "164625.459000", "164625.462000", "164625.465000", "164625.468000", "164625.470000", "164625.473000", "164625.476000", "164625.479000", "164625.481000", "164625.484000", "164625.487000", "164625.490000", "164625.492000", "164625.495000", "164625.498000", "164625.501000", "164625.504000", "164625.506000", "164625.509000", "164625.512000", "164625.515000", "164625.518000", "164625.520000", "164625.523000", "164625.526000", "164645.402000", "164645.405000", "164645.408000", "164645.410000", "164645.413000", "164645.416000", "164645.419000", "164645.422000", "164645.425000", "164645.427000", "164645.430000", "164645.433000", "164645.436000", "164645.439000", "164645.441000", "164645.444000", "164645.447000", "164645.450000", "164645.453000", "164645.455000", "164705.402000", "164705.405000", "164705.408000", "164705.410000", "164705.413000", "164705.416000", "164705.419000", "164705.422000", "164705.424000", "164705.427000", "164705.430000", "164705.433000", "164705.436000", "164705.438000", "164705.441000", "164705.444000", "164705.447000", "164705.449000", "164705.452000", "164705.455000", "164725.402000", "164725.405000", "164725.407000", "164725.410000", "164725.413000", "164725.416000", "164725.419000", "164725.422000", "164725.424000", "164725.427000", "164725.430000", "164725.433000", "164725.436000", "164725.438000", "164725.441000", "164725.444000", "164725.447000", "164725.450000", "164725.452000", "164725.455000", "164805.401000", "164805.404000", "164805.407000", "164805.409000", "164805.412000", "164805.415000", "164805.418000", "164805.421000", "164805.424000", "164805.427000", "164805.430000", "164805.433000", "164805.435000", "164805.438000", "164805.441000", "164805.444000", "164805.446000", "164805.449000", "164805.452000", "164805.455000", "164805.458000", "164805.460000", "164805.463000", "164805.466000", "164805.469000", "164805.472000", "164805.475000", "164805.478000", "164805.480000", "164805.483000", "164805.486000", "164845.402000", "164845.405000", "164845.407000", "164845.410000", "164845.437000", "164845.440000", "164845.443000", "164845.446000", "164845.448000", "164845.451000", "164845.454000", "164845.457000", "164845.460000", "164845.462000", "164845.465000", "164845.468000", "164845.471000", "164845.474000", "164845.476000", "164845.479000", "164845.482000", "164845.485000", "164845.487000", "164845.490000", "164845.493000", "164845.496000", "164845.498000", "164925.402000", "164925.405000", "164925.408000", "164925.410000", "164925.413000", "164925.416000", "164925.419000", "164925.421000", "164925.424000", "164925.427000", "164925.430000", "164925.433000", "164925.435000", "164925.438000", "164925.441000", "164925.444000", "164925.447000", "164925.450000", "164925.453000", "164925.455000", "164925.458000", "164925.461000", "164925.464000", "164925.466000", "164925.469000", "164925.472000", "164925.475000", "164958.790000", "164958.793000", "164958.795000", "164958.798000", "164958.801000", "164958.804000", "164958.807000", "164958.810000", "164958.813000", "164958.816000", "164958.819000", "164958.821000", "164958.824000", "164958.827000", "164958.830000", "164958.833000", "164958.836000", "164958.839000", "164958.842000", "164958.844000", "164958.847000", "164958.850000", "164958.853000"],
      "InstanceCreationTime": ["164625.434000", "164625.437000", "164625.440000", "164625.442000", "164625.445000", "164625.448000", "164625.451000", "164625.453000", "164625.456000", "164625.459000", "164625.462000", "164625.465000", "164625.468000", "164625.470000", "164625.473000", "164625.476000", "164625.479000", "164625.481000", "164625.484000", "164625.487000", "164625.490000", "164625.492000", "164625.495000", "164625.498000", "164625.501000", "164625.504000", "164625.506000", "164625.509000", "164625.512000", "164625.515000", "164625.518000", "164625.520000", "164625.523000", "164625.526000", "164645.402000", "164645.405000", "164645.408000", "164645.410000", "164645.413000", "164645.416000", "164645.419000", "164645.422000", "164645.425000", "164645.427000", "164645.430000", "164645.433000", "164645.436000", "164645.439000", "164645.441000", "164645.444000", "164645.447000", "164645.450000", "164645.453000", "164645.455000", "164705.402000", "164705.405000", "164705.408000", "164705.410000", "164705.413000", "164705.416000", "164705.419000", "164705.422000", "164705.424000", "164705.427000", "164705.430000", "164705.433000", "164705.436000", "164705.438000", "164705.441000", "164705.444000", "164705.447000", "164705.449000", "164705.452000", "164705.455000", "164725.402000", "164725.405000", "164725.407000", "164725.410000", "164725.413000", "164725.416000", "164725.419000", "164725.422000", "164725.424000", "164725.427000", "164725.430000", "164725.433000", "164725.436000", "164725.438000", "164725.441000", "164725.444000", "164725.447000", "164725.450000", "164725.452000", "164725.455000", "164805.401000", "164805.404000", "164805.407000", "164805.409000", "164805.412000", "164805.415000", "164805.418000", "164805.421000", "164805.424000", "164805.427000", "164805.430000", "164805.433000", "164805.435000", "164805.438000", "164805.441000", "164805.444000", "164805.446000", "164805.449000", "164805.452000", "164805.455000", "164805.458000", "164805.460000", "164805.463000", "164805.466000", "164805.469000", "164805.472000", "164805.475000", "164805.478000", "164805.480000", "164805.483000", "164805.486000", "164845.402000", "164845.405000", "164845.407000", "164845.410000", "164845.437000", "164845.440000", "164845.443000", "164845.446000", "164845.448000", "164845.451000", "164845.454000", "164845.457000", "164845.460000", "164845.462000", "164845.465000", "164845.468000", "164845.471000", "164845.474000", "164845.476000", "164845.479000", "164845.482000", "164845.485000", "164845.487000", "164845.490000", "164845.493000", "164845.496000", "164845.498000", "164925.402000", "164925.405000", "164925.408000", "164925.410000", "164925.413000", "164925.416000", "164925.419000", "164925.421000", "164925.424000", "164925.427000", "164925.430000", "164925.433000", "164925.435000", "164925.438000", "164925.441000", "164925.444000", "164925.447000", "164925.450000", "164925.453000", "164925.455000", "164925.458000", "164925.461000", "164925.464000", "164925.466000", "164925.469000", "164925.472000", "164925.475000", "164958.790000", "164958.793000", "164958.795000", "164958.798000", "164958.801000", "164958.804000", "164958.807000", "164958.810000", "164958.813000", "164958.816000", "164958.819000", "164958.821000", "164958.824000", "164958.827000", "164958.830000", "164958.833000", "164958.836000", "164958.839000", "164958.842000", "164958.844000", "164958.847000", "164958.850000", "164958.853000"],
      "InstanceNumber": [1, 2, 3, 4, 5, 6, 7, 8, 9, 10, 11, 12, 13, 14, 15, 16, 17, 18, 19, 20, 21, 22, 23, 24, 25, 26, 27, 28, 29, 30, 31, 32, 33, 34, 35, 36, 37, 38, 39, 40, 41, 42, 43, 44, 45, 46, 47, 48, 49, 50, 51, 52, 53, 54, 55, 56, 57, 58, 59, 60, 61, 62, 63, 64, 65, 66, 67, 68, 69, 70, 71, 72, 73, 74, 75, 76, 77, 78, 79, 80, 81, 82, 83, 84, 85, 86, 87, 88, 89, 90, 91, 92, 93, 94, 95, 96, 97, 98, 99, 100, 101, 102, 103, 104, 105, 106, 107, 108, 109, 110, 111, 112, 113, 114, 115, 116, 117, 118, 119, 120, 121, 122, 123, 124, 125, 126, 127, 128, 129, 130, 131, 132, 133, 134, 135, 136, 137, 138, 139, 140, 141, 142, 143, 144, 145, 146, 147, 148, 149, 150, 151, 152, 153, 154, 155, 156, 157, 158, 159, 160, 161, 162, 163, 164, 165, 166, 167, 168, 169, 170, 171, 172, 173, 174, 175, 176, 177, 178, 179, 180, 181, 182, 183, 184, 185, 186, 187, 188, 189, 190, 191, 192, 193, 194, 195, 196, 197, 198, 199, 200, 201, 202],
      "LargestImagePixelValue": [40625, 39602, 38863, 38423, 37893, 37718, 37576, 37938, 38126, 38005, 37640, 37795, 37696, 37811, 37541, 37944, 38263, 37614, 37693, 37593, 38136, 37792, 38231, 37949, 38115, 38001, 38055, 37867, 38005, 37611, 37983, 37996, 37934, 38066, 38432, 37923, 38134, 38053, 38285, 38204, 38316, 37926, 37914, 37903, 38161, 38174, 38033, 37864, 38162, 37488, 37671, 37780, 38049, 37981, 37708, 37830, 37912, 37779, 38008, 37981, 37660, 38028, 37544, 37811, 38470, 37930, 37895, 37662, 37711, 37906, 38047, 37769, 38146, 38033, 37789, 38182, 38122, 37628, 37581, 37784, 37944, 38142, 37676, 37970, 38200, 38470, 37814, 37930, 38089, 37726, 38318, 37827, 37868, 38059, 37690, 37717, 37476, 37776, 37657, 37709, 37784, 38155, 37669, 37850, 38044, 37716, 38157, 38304, 38569, 37814, 37940, 37755, 37671, 37705, 37908, 37919, 38000, 37848, 37965, 37840, 37845, 37663, 37882, 37437, 37957, 37481, 37816, 37496, 37885, 37498, 37948, 37884, 38291, 37862, 37769, 37621, 37746, 37907, 38001, 37722, 37994, 37650, 37853, 38143, 37554, 37542, 38010, 37636, 37836, 37773, 37717, 37871, 38136, 38161, 37636, 38034, 37949, 37783, 37636, 37968, 38150, 37959, 37803, 37769, 37891, 37881, 37552, 37603, 37904, 37803, 37780, 37678, 37910, 37680, 38122, 38139, 37518, 37962, 37635, 38089, 38298, 38294, 38062, 37776, 37637, 37867, 37996, 38075, 38284, 37999, 38147, 37987, 37996, 37745, 37586, 37757, 38177, 38077, 38086, 38262, 38060, 37568],
      "WindowCenter": [9886.0, 9855.0, 9845.0, 9839.0, 9833.0, 9830.0, 9820.0, 9827.0, 9843.0, 9848.0, 9846.0, 9839.0, 9831.0, 9813.0, 9813.0, 9820.0, 9828.0, 9822.0, 9827.0, 9813.0, 9808.0, 9800.0, 9798.0, 9799.0, 9807.0, 9808.0, 9818.0, 9835.0, 9836.0, 9813.0, 9793.0, 9782.0, 9786.0, 9796.0, 9812.0, 9808.0, 9799.0, 9788.0, 9780.0, 9787.0, 9797.0, 9798.0, 9800.0, 9800.0, 9806.0, 9807.0, 9806.0, 9807.0, 9815.0, 9804.0, 9801.0, 9798.0, 9814.0, 9825.0, 9826.0, 9809.0, 9794.0, 9791.0, 9806.0, 9816.0, 9820.0, 9818.0, 9803.0, 9801.0, 9806.0, 9817.0, 9811.0, 9802.0, 9799.0, 9798.0, 9799.0, 9800.0, 9801.0, 9799.0, 9801.0, 9809.0, 9808.0, 9801.0, 9793.0, 9799.0, 9806.0, 9799.0, 9786.0, 9787.0, 9795.0, 9804.0, 9799.0, 9798.0, 9797.0, 9800.0, 9805.0, 9792.0, 9790.0, 9797.0, 9799.0, 9800.0, 9786.0, 9782.0, 9782.0, 9799.0, 9816.0, 9825.0, 9829.0, 9829.0, 9821.0, 9803.0, 9792.0, 9804.0, 9812.0, 9805.0, 9801.0, 9793.0, 9792.0, 9791.0, 9798.0, 9791.0, 9798.0, 9792.0, 9799.0, 9793.0, 9798.0, 9798.0, 9799.0, 9800.0, 9808.0, 9803.0, 9807.0, 9792.0, 9791.0, 9791.0, 9790.0, 9790.0, 9803.0, 9809.0, 9818.0, 9812.0, 9807.0, 9797.0, 9805.0, 9806.0, 9805.0, 9790.0, 9782.0, 9789.0, 9785.0, 9777.0, 9781.0, 9784.0, 9798.0, 9792.0, 9790.0, 9791.0, 9798.0, 9798.0, 9782.0, 9782.0, 9797.0, 9801.0, 9799.0, 9790.0, 9782.0, 9781.0, 9790.0, 9800.0, 9803.0, 9800.0, 9792.0, 9784.0, 9790.0, 9798.0, 9807.0, 9795.0, 9792.0, 9790.0, 9804.0, 9808.0, 9802.0, 9791.0, 9781.0, 9779.0, 9786.0, 9794.0, 9798.0, 9791.0, 9781.0, 9779.0, 9787.0, 9787.0, 9785.0, 9778.0, 9778.0, 9779.0, 9790.0, 9780.0, 9765.0, 9763.0, 9777.0, 9778.0, 9770.0, 9784.0, 9786.0, 9798.0],
      "WindowWidth": [20938.0, 20852.0, 20821.0, 20806.0, 20791.0, 20779.0, 20756.0, 20771.0, 20805.0, 20816.0, 20810.0, 20795.0, 20779.0, 20738.0, 20739.0, 20755.0, 20773.0, 20761.0, 20770.0, 20739.0, 20724.0, 20707.0, 20703.0, 20705.0, 20721.0, 20726.0, 20751.0, 20786.0, 20786.0, 20739.0, 20691.0, 20667.0, 20672.0, 20695.0, 20730.0, 20724.0, 20704.0, 20677.0, 20662.0, 20678.0, 20703.0, 20705.0, 20709.0, 20709.0, 20719.0, 20721.0, 20715.0, 20720.0, 20737.0, 20719.0, 20709.0, 20701.0, 20737.0, 20762.0, 20762.0, 20723.0, 20692.0, 20687.0, 20718.0, 20742.0, 20753.0, 20748.0, 20717.0, 20709.0, 20718.0, 20746.0, 20735.0, 20716.0, 20707.0, 20702.0, 20706.0, 20708.0, 20712.0, 20705.0, 20711.0, 20731.0, 20727.0, 20712.0, 20693.0, 20704.0, 20718.0, 20706.0, 20680.0, 20676.0, 20692.0, 20712.0, 20706.0, 20703.0, 20699.0, 20706.0, 20714.0, 20690.0, 20684.0, 20696.0, 20702.0, 20705.0, 20679.0, 20667.0, 20669.0, 20706.0, 20744.0, 20763.0, 20773.0, 20774.0, 20753.0, 20714.0, 20689.0, 20712.0, 20731.0, 20725.0, 20711.0, 20696.0, 20693.0, 20691.0, 20703.0, 20691.0, 20701.0, 20691.0, 20707.0, 20695.0, 20702.0, 20703.0, 20704.0, 20706.0, 20724.0, 20714.0, 20720.0, 20688.0, 20685.0, 20687.0, 20683.0, 20684.0, 20712.0, 20728.0, 20749.0, 20736.0, 20721.0, 20697.0, 20715.0, 20719.0, 20715.0, 20683.0, 20667.0, 20682.0, 20675.0, 20659.0, 20664.0, 20672.0, 20699.0, 20688.0, 20683.0, 20687.0, 20702.0, 20700.0, 20667.0, 20668.0, 20700.0, 20710.0, 20704.0, 20684.0, 20666.0, 20664.0, 20683.0, 20707.0, 20718.0, 20708.0, 20690.0, 20673.0, 20684.0, 20700.0, 20720.0, 20697.0, 20691.0, 20683.0, 20715.0, 20728.0, 20714.0, 20687.0, 20661.0, 20658.0, 20672.0, 20691.0, 20704.0, 20691.0, 20665.0, 20659.0, 20677.0, 20674.0, 20668.0, 20653.0, 20653.0, 20658.0, 20683.0, 20658.0, 20628.0, 20621.0, 20651.0, 20653.0, 20638.0, 20664.0, 20671.0, 20701.0]
    },
    "slices": {}
  }
}