{
  "AcquisitionMatrixPE": 104,
  "AcquisitionNumber": 1,
  "AcquisitionTime": "16:36:27.242500",
  "BandwidthPerPixelPhaseEncode": 17.17,
  "BaseResolution": 104,
  "BodyPartExamined": "BRAIN",
  "CoilString": "HC1-7;NC1_2",
  "ConsistencyInfo": "N4_VE11C_LATEST_20160120",
  "ConversionSoftware": "dcm2niix",
  "ConversionSoftwareVersion": "v1.0.20190720  (JP2:OpenJPEG) GCC7.3.0",
  "DerivedVendorReportedEchoSpacing": 0.000560011,
  "DeviceSerialNumber": "167006",
  "DwellTime": 2.1e-06,
  "EchoTime": 0.037,
  "EchoTrainLength": 104,
  "EffectiveEchoSpacing": 0.000560011,
  "FlipAngle": 52,
  "ImageComments": "Unaliased_MB4_PE3_LB",
  "ImageOrientationPatientDICOM": [0.999484, -0.0296716, 0.0122806, 0.0321085, 0.929448, -0.367552],
  "ImageType": [
    "ORIGINAL",
    "PRIMARY",
    "M",
    "MB",
    "ND",
    "MOSAIC"
],
  "ImagingFrequency": 123.259,
  "InPlanePhaseEncodingDirectionDICOM": "COL",
  "InstitutionAddress": "Chemin_Queen-Mary_4565_Montreal_District_CA_H3W_1W5",
  "InstitutionName": "IUGM",
  "InstitutionalDepartmentName": "Department",
  "MRAcquisitionType": "2D",
  "MagneticFieldStrength": 3,
  "Manufacturer": "Siemens",
  "ManufacturersModelName": "Prisma_fit",
  "Modality": "MR",
  "MultibandAccelerationFactor": 4,
  "PartialFourier": 1,
  "PatientPosition": "HFS",
  "PercentPhaseFOV": 100,
  "PhaseEncodingDirection": "j",
  "PhaseEncodingSteps": 104,
  "PhaseResolution": 1,
  "PixelBandwidth": 2290,
  "ProcedureStepDescription": "hcptrt_generic",
  "ProtocolName": "func_task-gambling_run-1",
  "PulseSequenceDetails": "%CustomerSeq%_cmrr_mbep2d_bold",
  "ReceiveCoilActiveElements": "HC1-7;NC1,2",
  "ReceiveCoilName": "HeadNeck_64",
  "ReconMatrixPE": 104,
  "RepetitionTime": 1.49,
  "SAR": 0.0291988,
  "ScanOptions": "FS",
  "ScanningSequence": "EP",
  "SequenceName": "epfid2d1_104",
  "SequenceVariant": "SK_SS",
  "SeriesDescription": "func_task-gambling_run-1",
  "SeriesNumber": 13,
  "ShimSetting": [628, -7147, -8817, 671, 20, 181, 2, 8],
  "SliceThickness": 2,
  "SliceTiming": [0, 0.785, 0.0975, 0.8825, 0.1975, 0.98, 0.295, 1.0775, 0.3925, 1.1775, 0.49, 1.275, 0.5875, 1.3725, 0.6875, 0, 0.785, 0.0975, 0.8825, 0.1975, 0.98, 0.295, 1.0775, 0.3925, 1.1775, 0.49, 1.275, 0.5875, 1.3725, 0.6875, 0, 0.785, 0.0975, 0.8825, 0.1975, 0.98, 0.295, 1.0775, 0.3925, 1.1775, 0.49, 1.275, 0.5875, 1.3725, 0.6875, 0, 0.785, 0.0975, 0.8825, 0.1975, 0.98, 0.295, 1.0775, 0.3925, 1.1775, 0.49, 1.275, 0.5875, 1.3725, 0.6875],
  "SoftwareVersions": "syngo_MR_E11",
  "SpacingBetweenSlices": 2,
  "StationName": "MRC35049",
  "TaskName": "gambling",
  "TotalReadoutTime": 0.0576811,
  "TxRefAmp": 209.096,
  "WipMemBlock": "144e8ae4-cf3c-4233-a0aa-bba1c07e2190||Sequence: R016 ve11c/master r/e634e98; Dec 19 2017 11:00:25 by eja",
  "dcmmeta_affine": [
    [-1.998968482017517, 0.06421700865030289, 0.001016626600176096, 104.96529388427734],
    [0.0593431293964386, 1.8588968515396118, -0.7355138659477234, -68.99702453613281],
    [0.02456115186214447, 0.7351043820381165, 1.8598436117172241, -72.54606628417969],
    [0.0, 0.0, 0.0, 1.0]
],
  "dcmmeta_reorient_transform": [
    [0.0, -1.0, 0.0, 103.0],
    [1.0, 0.0, 0.0, 0.0],
    [0.0, 0.0, 1.0, 0.0],
    [0.0, 0.0, 0.0, 1.0]
],
  "dcmmeta_shape": [104, 104, 60, 129],
  "dcmmeta_slice_dim": 2,
  "dcmmeta_version": 0.6,
  "global": {
    "const": {
      "AcquisitionMatrix": [104, 0, 0, 104],
      "AngioFlag": "N",
      "BitsAllocated": 16,
      "BitsStored": 16,
      "BodyPartExamined": "BRAIN",
      "Columns": 832,
      "EchoNumbers": 1,
      "EchoTime": 37.0,
      "EchoTrainLength": 104,
      "FlipAngle": 52.0,
      "HighBit": 15,
      "ImageOrientationPatient": [0.99948425983277, -0.02967156551, 0.01228057599336, 0.03210850298783, 0.92944845336957, -0.3675521957012],
      "ImagePositionPatient": [-862.579177385, -777.5069297507, 261.80742695852],
      "ImageType": [
        "ORIGINAL",
        "PRIMARY",
        "M",
        "MB",
        "ND",
        "MOSAIC"
],
      "ImagedNucleus": "1H",
      "ImagingFrequency": 123.25937,
      "InPlanePhaseEncodingDirection": "COL",
      "MRAcquisitionType": "2D",
      "MagneticFieldStrength": 3.0,
      "Manufacturer": "SIEMENS",
      "ManufacturerModelName": "Prisma_fit",
      "Modality": "MR",
      "NumberOfAverages": 1.0,
      "NumberOfPhaseEncodingSteps": 104,
      "PercentPhaseFieldOfView": 100.0,
      "PercentSampling": 100.0,
      "PerformedProcedureStepStartTime": "160201.164000",
      "PhotometricInterpretation": "MONOCHROME2",
      "PixelBandwidth": 2290.0,
      "PixelRepresentation": 0,
      "PixelSpacing": [2.0, 2.0],
      "ProtocolName": "func_task-gambling_run-1",
      "RepetitionTime": 1490.0,
      "Rows": 832,
      "SAR": 0.02919875179745,
      "SamplesPerPixel": 1,
      "ScanOptions": "FS",
      "ScanningSequence": "EP",
      "SequenceName": "epfid2d1_104",
      "SequenceVariant": [
        "SK",
        "SS"
],
      "SeriesDescription": "func_task-gambling_run-1",
      "SeriesNumber": 13,
      "SeriesTime": "163750.847000",
      "SliceLocation": -42.034676773484,
      "SliceThickness": 2.0,
      "SmallestImagePixelValue": 0,
      "SoftwareVersions": "syngo MR E11",
      "SpacingBetweenSlices": 1.9999999437394,
      "SpecificCharacterSet": "ISO_IR 100",
      "StudyID": "1",
      "StudyTime": "160201.110000",
      "TransmitCoilName": "Body",
      "VariableFlipAngleFlag": "N",
      "WindowCenterWidthExplanation": "Algo1",
      "dBdt": 0.0},
    "slices": {}
  },
  "time": {
    "samples": {
      "AcquisitionNumber": [1, 2, 3, 4, 5, 6, 7, 8, 9, 10, 11, 12, 13, 14, 15, 16, 17, 18, 19, 20, 21, 22, 23, 24, 25, 26, 27, 28, 29, 30, 31, 32, 33, 34, 35, 36, 37, 38, 39, 40, 41, 42, 43, 44, 45, 46, 47, 48, 49, 50, 51, 52, 53, 54, 55, 56, 57, 58, 59, 60, 61, 62, 63, 64, 65, 66, 67, 68, 69, 70, 71, 72, 73, 74, 75, 76, 77, 78, 79, 80, 81, 82, 83, 84, 85, 86, 87, 88, 89, 90, 91, 92, 93, 94, 95, 96, 97, 98, 99, 100, 101, 102, 103, 104, 105, 106, 107, 108, 109, 110, 111, 112, 113, 114, 115, 116, 117, 118, 119, 120, 121, 122, 123, 124, 125, 126, 127, 128, 129],
      "AcquisitionTime": ["163627.242500", "163628.732500", "163630.222500", "163631.712500", "163633.202500", "163634.692500", "163636.182500", "163637.672500", "163639.162500", "163640.652500", "163642.142500", "163643.632500", "163645.122500", "163646.612500", "163648.102500", "163649.592500", "163651.082500", "163652.572500", "163654.062500", "163655.552500", "163657.042500", "163658.532500", "163700.022500", "163701.512500", "163703.002500", "163704.492500", "163705.982500", "163707.472500", "163708.962500", "163710.452500", "163711.942500", "163713.432500", "163714.922500", "163716.412500", "163717.902500", "163719.392500", "163720.882500", "163722.372500", "163723.862500", "163725.352500", "163726.842500", "163728.332500", "163729.822500", "163731.312500", "163732.802500", "163734.292500", "163735.782500", "163737.272500", "163738.762500", "163740.252500", "163741.742500", "163743.232500", "163744.722500", "163746.212500", "163747.702500", "163749.192500", "163750.682500", "163752.172500", "163753.662500", "163755.152500", "163756.642500", "163758.132500", "163759.622500", "163801.112500", "163802.602500", "163804.092500", "163805.582500", "163807.072500", "163808.562500", "163810.052500", "163811.542500", "163813.032500", "163814.522500", "163816.012500", "163817.502500", "163818.992500", "163820.482500", "163821.972500", "163823.462500", "163824.952500", "163826.442500", "163827.932500", "163829.422500", "163830.912500", "163832.402500", "163833.892500", "163835.382500", "163836.872500", "163838.362500", "163839.852500", "163841.342500", "163842.832500", "163844.322500", "163845.812500", "163847.302500", "163848.792500", "163850.282500", "163851.772500", "163853.262500", "163854.752500", "163856.242500", "163857.732500", "163859.222500", "163900.712500", "163902.202500", "163903.692500", "163905.182500", "163906.672500", "163908.162500", "163909.652500", "163911.142500", "163912.632500", "163914.122500", "163915.612500", "163917.102500", "163918.592500", "163920.082500", "163921.572500", "163923.062500", "163924.552500", "163926.042500", "163927.532500", "163929.022500", "163930.512500", "163932.002500", "163933.492500", "163934.982500", "163936.472500", "163937.962500"],
      "ContentTime": ["163750.849000", "163750.853000", "163750.855000", "163750.858000", "163750.864000", "163750.867000", "163750.870000", "163750.873000", "163750.876000", "163750.879000", "163750.881000", "163750.884000", "163750.887000", "163750.890000", "163750.893000", "163750.896000", "163750.898000", "163750.901000", "163750.904000", "163750.907000", "163750.910000", "163750.912000", "163750.915000", "163750.918000", "163750.921000", "163750.945000", "163750.948000", "163750.951000", "163750.954000", "163810.819000", "163810.822000", "163810.825000", "163810.828000", "163810.830000", "163810.833000", "163810.838000", "163810.840000", "163810.843000", "163810.846000", "163810.849000", "163810.852000", "163810.854000", "163810.857000", "163810.860000", "163810.863000", "163810.865000", "163810.868000", "163810.871000", "163810.874000", "163830.819000", "163830.822000", "163830.825000", "163830.827000", "163830.830000", "163830.833000", "163830.836000", "163830.842000", "163830.845000", "163830.848000", "163830.850000", "163830.853000", "163830.856000", "163830.859000", "163830.862000", "163830.864000", "163830.867000", "163830.870000", "163830.873000", "163830.875000", "163850.819000", "163850.822000", "163850.825000", "163850.827000", "163850.830000", "163850.833000", "163850.836000", "163850.839000", "163850.850000", "163850.853000", "163850.856000", "163850.859000", "163850.862000", "163850.865000", "163850.867000", "163850.870000", "163850.873000", "163850.876000", "163850.879000", "163850.881000", "163910.819000", "163910.822000", "163910.825000", "163910.828000", "163910.830000", "163910.833000", "163910.836000", "163910.839000", "163910.842000", "163910.844000", "163910.848000", "163910.850000", "163910.853000", "163910.856000", "163910.859000", "163910.862000", "163910.864000", "163910.867000", "163910.870000", "163910.873000", "163939.772000", "163939.776000", "163939.779000", "163939.781000", "163939.784000", "163939.787000", "163939.790000", "163939.793000", "163939.796000", "163939.798000", "163939.801000", "163939.804000", "163939.807000", "163939.810000", "163939.813000", "163939.815000", "163939.818000", "163939.821000", "163939.824000", "163939.827000"],
      "InstanceCreationTime": ["163750.849000", "163750.853000", "163750.855000", "163750.858000", "163750.864000", "163750.867000", "163750.870000", "163750.873000", "163750.876000", "163750.879000", "163750.881000", "163750.884000", "163750.887000", "163750.890000", "163750.893000", "163750.896000", "163750.898000", "163750.901000", "163750.904000", "163750.907000", "163750.910000", "163750.912000", "163750.915000", "163750.918000", "163750.921000", "163750.945000", "163750.948000", "163750.951000", "163750.954000", "163810.819000", "163810.822000", "163810.825000", "163810.828000", "163810.830000", "163810.833000", "163810.838000", "163810.840000", "163810.843000", "163810.846000", "163810.849000", "163810.852000", "163810.854000", "163810.857000", "163810.860000", "163810.863000", "163810.865000", "163810.868000", "163810.871000", "163810.874000", "163830.819000", "163830.822000", "163830.825000", "163830.827000", "163830.830000", "163830.833000", "163830.836000", "163830.842000", "163830.845000", "163830.848000", "163830.850000", "163830.853000", "163830.856000", "163830.859000", "163830.862000", "163830.864000", "163830.867000", "163830.870000", "163830.873000", "163830.875000", "163850.819000", "163850.822000", "163850.825000", "163850.827000", "163850.830000", "163850.833000", "163850.836000", "163850.839000", "163850.850000", "163850.853000", "163850.856000", "163850.859000", "163850.862000", "163850.865000", "163850.867000", "163850.870000", "163850.873000", "163850.876000", "163850.879000", "163850.881000", "163910.819000", "163910.822000", "163910.825000", "163910.828000", "163910.830000", "163910.833000", "163910.836000", "163910.839000", "163910.842000", "163910.844000", "163910.848000", "163910.850000", "163910.853000", "163910.856000", "163910.859000", "163910.862000", "163910.864000", "163910.867000", "163910.870000", "163910.873000", "163939.772000", "163939.776000", "163939.779000", "163939.781000", "163939.784000", "163939.787000", "163939.790000", "163939.793000", "163939.796000", "163939.798000", "163939.801000", "163939.804000", "163939.807000", "163939.810000", "163939.813000", "163939.815000", "163939.818000", "163939.821000", "163939.824000", "163939.827000"],
      "InstanceNumber": [1, 2, 3, 4, 5, 6, 7, 8, 9, 10, 11, 12, 13, 14, 15, 16, 17, 18, 19, 20, 21, 22, 23, 24, 25, 26, 27, 28, 29, 30, 31, 32, 33, 34, 35, 36, 37, 38, 39, 40, 41, 42, 43, 44, 45, 46, 47, 48, 49, 50, 51, 52, 53, 54, 55, 56, 57, 58, 59, 60, 61, 62, 63, 64, 65, 66, 67, 68, 69, 70, 71, 72, 73, 74, 75, 76, 77, 78, 79, 80, 81, 82, 83, 84, 85, 86, 87, 88, 89, 90, 91, 92, 93, 94, 95, 96, 97, 98, 99, 100, 101, 102, 103, 104, 105, 106, 107, 108, 109, 110, 111, 112, 113, 114, 115, 116, 117, 118, 119, 120, 121, 122, 123, 124, 125, 126, 127, 128, 129],
      "LargestImagePixelValue": [40556, 39619, 39201, 38850, 38601, 37638, 37913, 38445, 38527, 38574, 37977, 37986, 37923, 38270, 38248, 38367, 38405, 38188, 37916, 38173, 38291, 38176, 37929, 37678, 38241, 38520, 38198, 38134, 38516, 37900, 38347, 38142, 38349, 38443, 37845, 38120, 37708, 37880, 38075, 38142, 37994, 37948, 38245, 38723, 38480, 38085, 37573, 38024, 37443, 38073, 38031, 38044, 37732, 37998, 37804, 37895, 38306, 38247, 37611, 37617, 37695, 38177, 38008, 38177, 38171, 38323, 38398, 38113, 37908, 38305, 37681, 37507, 38108, 38218, 38373, 38277, 38354, 37742, 38164, 38410, 38012, 38077, 37721, 38089, 38239, 38068, 38190, 37639, 37977, 37874, 38063, 38328, 38315, 38163, 38353, 38407, 38371, 37873, 38188, 37929, 38092, 38093, 38541, 37791, 37839, 37360, 37687, 37815, 37923, 38048, 38054, 38260, 37997, 37971, 38104, 38241, 38131, 38157, 37797, 38361, 38334, 37930, 38172, 37807, 37520, 38166, 38147, 37899, 37937],
      "WindowCenter": [9907.0, 9877.0, 9860.0, 9861.0, 9860.0, 9838.0, 9819.0, 9813.0, 9827.0, 9848.0, 9861.0, 9852.0, 9834.0, 9822.0, 9813.0, 9820.0, 9830.0, 9832.0, 9827.0, 9831.0, 9838.0, 9840.0, 9841.0, 9833.0, 9830.0, 9828.0, 9822.0, 9822.0, 9829.0, 9832.0, 9836.0, 9824.0, 9819.0, 9821.0, 9824.0, 9832.0, 9824.0, 9824.0, 9839.0, 9839.0, 9824.0, 9813.0, 9804.0, 9810.0, 9819.0, 9829.0, 9828.0, 9833.0, 9827.0, 9831.0, 9824.0, 9831.0, 9833.0, 9834.0, 9833.0, 9834.0, 9848.0, 9858.0, 9854.0, 9835.0, 9818.0, 9816.0, 9812.0, 9820.0, 9824.0, 9830.0, 9822.0, 9823.0, 9835.0, 9858.0, 9846.0, 9830.0, 9824.0, 9815.0, 9814.0, 9822.0, 9821.0, 9816.0, 9817.0, 9832.0, 9835.0, 9834.0, 9827.0, 9824.0, 9819.0, 9831.0, 9833.0, 9834.0, 9835.0, 9818.0, 9813.0, 9806.0, 9820.0, 9830.0, 9830.0, 9839.0, 9839.0, 9829.0, 9825.0, 9816.0, 9808.0, 9813.0, 9829.0, 9841.0, 9851.0, 9838.0, 9835.0, 9826.0, 9841.0, 9843.0, 9836.0, 9833.0, 9825.0, 9824.0, 9825.0, 9833.0, 9827.0, 9825.0, 9812.0, 9821.0, 9831.0, 9851.0, 9862.0, 9838.0, 9818.0, 9823.0, 9843.0, 9845.0, 9827.0],
      "WindowWidth": [20992.0, 20907.0, 20861.0, 20859.0, 20852.0, 20805.0, 20758.0, 20742.0, 20771.0, 20822.0, 20851.0, 20829.0, 20789.0, 20763.0, 20744.0, 20759.0, 20780.0, 20786.0, 20779.0, 20784.0, 20797.0, 20804.0, 20806.0, 20789.0, 20779.0, 20773.0, 20763.0, 20763.0, 20776.0, 20785.0, 20791.0, 20766.0, 20753.0, 20760.0, 20770.0, 20785.0, 20767.0, 20768.0, 20797.0, 20797.0, 20765.0, 20741.0, 20720.0, 20733.0, 20754.0, 20778.0, 20782.0, 20792.0, 20777.0, 20780.0, 20765.0, 20781.0, 20788.0, 20791.0, 20787.0, 20789.0, 20820.0, 20842.0, 20834.0, 20787.0, 20751.0, 20744.0, 20735.0, 20752.0, 20764.0, 20776.0, 20759.0, 20761.0, 20794.0, 20842.0, 20816.0, 20782.0, 20766.0, 20746.0, 20742.0, 20759.0, 20755.0, 20747.0, 20749.0, 20782.0, 20792.0, 20788.0, 20772.0, 20763.0, 20756.0, 20779.0, 20786.0, 20788.0, 20788.0, 20747.0, 20735.0, 20723.0, 20754.0, 20777.0, 20775.0, 20794.0, 20796.0, 20780.0, 20765.0, 20747.0, 20729.0, 20742.0, 20776.0, 20807.0, 20828.0, 20802.0, 20793.0, 20770.0, 20802.0, 20808.0, 20791.0, 20782.0, 20766.0, 20765.0, 20767.0, 20786.0, 20776.0, 20768.0, 20742.0, 20757.0, 20781.0, 20829.0, 20853.0, 20801.0, 20751.0, 20761.0, 20810.0, 20815.0, 20773.0]
    },
    "slices": {}
  }
}