{
  "AcquisitionMatrixPE": 104,
  "AcquisitionNumber": 1,
  "AcquisitionTime": "16:54:4.512500",
  "BandwidthPerPixelPhaseEncode": 17.17,
  "BaseResolution": 104,
  "BodyPartExamined": "BRAIN",
  "CoilString": "HC1-7;NC1_2",
  "ConsistencyInfo": "N4_VE11C_LATEST_20160120",
  "ConversionSoftware": "dcm2niix",
  "ConversionSoftwareVersion": "v1.0.20190720  (JP2:OpenJPEG) GCC7.3.0",
  "DerivedVendorReportedEchoSpacing": 0.000560011,
  "DeviceSerialNumber": "167006",
  "DwellTime": 2.1e-06,
  "EchoTime": 0.037,
  "EchoTrainLength": 104,
  "EffectiveEchoSpacing": 0.000560011,
  "FlipAngle": 52,
  "ImageComments": "Unaliased_MB4_PE3_LB",
  "ImageOrientationPatientDICOM": [0.999484, -0.0296716, 0.0122806, 0.0321085, 0.929448, -0.367552],
  "ImageType": [
    "ORIGINAL",
    "PRIMARY",
    "M",
    "MB",
    "ND",
    "MOSAIC"
],
  "ImagingFrequency": 123.259,
  "InPlanePhaseEncodingDirectionDICOM": "COL",
  "InstitutionAddress": "Chemin_Queen-Mary_4565_Montreal_District_CA_H3W_1W5",
  "InstitutionName": "IUGM",
  "InstitutionalDepartmentName": "Department",
  "MRAcquisitionType": "2D",
  "MagneticFieldStrength": 3,
  "Manufacturer": "Siemens",
  "ManufacturersModelName": "Prisma_fit",
  "Modality": "MR",
  "MultibandAccelerationFactor": 4,
  "PartialFourier": 1,
  "PatientPosition": "HFS",
  "PercentPhaseFOV": 100,
  "PhaseEncodingDirection": "j",
  "PhaseEncodingSteps": 104,
  "PhaseResolution": 1,
  "PixelBandwidth": 2290,
  "ProcedureStepDescription": "hcptrt_generic",
  "ProtocolName": "func_task-language_run-1",
  "PulseSequenceDetails": "%CustomerSeq%_cmrr_mbep2d_bold",
  "ReceiveCoilActiveElements": "HC1-7;NC1,2",
  "ReceiveCoilName": "HeadNeck_64",
  "ReconMatrixPE": 104,
  "RepetitionTime": 1.49,
  "SAR": 0.0292786,
  "ScanOptions": "FS",
  "ScanningSequence": "EP",
  "SequenceName": "epfid2d1_104",
  "SequenceVariant": "SK_SS",
  "SeriesDescription": "func_task-language_run-1",
  "SeriesNumber": 21,
  "ShimSetting": [628, -7147, -8817, 671, 20, 181, 2, 8],
  "SliceThickness": 2,
  "SliceTiming": [0, 0.7825, 0.0975, 0.8825, 0.195, 0.98, 0.2925, 1.0775, 0.3925, 1.175, 0.49, 1.2725, 0.5875, 1.3725, 0.685, 0, 0.7825, 0.0975, 0.8825, 0.195, 0.98, 0.2925, 1.0775, 0.3925, 1.175, 0.49, 1.2725, 0.5875, 1.3725, 0.685, 0, 0.7825, 0.0975, 0.8825, 0.195, 0.98, 0.2925, 1.0775, 0.3925, 1.175, 0.49, 1.2725, 0.5875, 1.3725, 0.685, 0, 0.7825, 0.0975, 0.8825, 0.195, 0.98, 0.2925, 1.0775, 0.3925, 1.175, 0.49, 1.2725, 0.5875, 1.3725, 0.685],
  "SoftwareVersions": "syngo_MR_E11",
  "SpacingBetweenSlices": 2,
  "StationName": "MRC35049",
  "TaskName": "language",
  "TotalReadoutTime": 0.0576811,
  "TxRefAmp": 209.096,
  "WipMemBlock": "38aa9858-ff2b-43c2-8d17-94a0755eaabe||Sequence: R016 ve11c/master r/e634e98; Dec 19 2017 11:00:25 by eja",
  "dcmmeta_affine": [
    [-1.998968482017517, 0.06421700865030289, 0.001016626600176096, 104.96529388427734],
    [0.0593431293964386, 1.8588968515396118, -0.7355138659477234, -68.99702453613281],
    [0.02456115186214447, 0.7351043820381165, 1.8598436117172241, -72.54606628417969],
    [0.0, 0.0, 0.0, 1.0]
],
  "dcmmeta_reorient_transform": [
    [0.0, -1.0, 0.0, 103.0],
    [1.0, 0.0, 0.0, 0.0],
    [0.0, 0.0, 1.0, 0.0],
    [0.0, 0.0, 0.0, 1.0]
],
  "dcmmeta_shape": [104, 104, 60, 159],
  "dcmmeta_slice_dim": 2,
  "dcmmeta_version": 0.6,
  "global": {
    "const": {
      "AcquisitionMatrix": [104, 0, 0, 104],
      "AngioFlag": "N",
      "BitsAllocated": 16,
      "BitsStored": 16,
      "BodyPartExamined": "BRAIN",
      "Columns": 832,
      "EchoNumbers": 1,
      "EchoTime": 37.0,
      "EchoTrainLength": 104,
      "FlipAngle": 52.0,
      "HighBit": 15,
      "ImageOrientationPatient": [0.99948425983277, -0.02967156551, 0.01228057599336, 0.03210850298783, 0.92944845336957, -0.3675521957012],
      "ImagePositionPatient": [-862.579177385, -777.5069297507, 261.80742695852],
      "ImageType": [
        "ORIGINAL",
        "PRIMARY",
        "M",
        "MB",
        "ND",
        "MOSAIC"
],
      "ImagedNucleus": "1H",
      "ImagingFrequency": 123.259375,
      "InPlanePhaseEncodingDirection": "COL",
      "MRAcquisitionType": "2D",
      "MagneticFieldStrength": 3.0,
      "Manufacturer": "SIEMENS",
      "ManufacturerModelName": "Prisma_fit",
      "Modality": "MR",
      "NumberOfAverages": 1.0,
      "NumberOfPhaseEncodingSteps": 104,
      "PercentPhaseFieldOfView": 100.0,
      "PercentSampling": 100.0,
      "PerformedProcedureStepStartTime": "160201.164000",
      "PhotometricInterpretation": "MONOCHROME2",
      "PixelBandwidth": 2290.0,
      "PixelRepresentation": 0,
      "PixelSpacing": [2.0, 2.0],
      "ProtocolName": "func_task-language_run-1",
      "RepetitionTime": 1490.0,
      "Rows": 832,
      "SAR": 0.02927855741466,
      "SamplesPerPixel": 1,
      "ScanOptions": "FS",
      "ScanningSequence": "EP",
      "SequenceName": "epfid2d1_104",
      "SequenceVariant": [
        "SK",
        "SS"
],
      "SeriesDescription": "func_task-language_run-1",
      "SeriesNumber": 21,
      "SeriesTime": "165524.232000",
      "SliceLocation": -42.034676773484,
      "SliceThickness": 2.0,
      "SmallestImagePixelValue": 0,
      "SoftwareVersions": "syngo MR E11",
      "SpacingBetweenSlices": 1.9999999437394,
      "SpecificCharacterSet": "ISO_IR 100",
      "StudyID": "1",
      "StudyTime": "160201.110000",
      "TransmitCoilName": "Body",
      "VariableFlipAngleFlag": "N",
      "WindowCenterWidthExplanation": "Algo1",
      "dBdt": 0.0},
    "slices": {}
  },
  "time": {
    "samples": {
      "AcquisitionNumber": [1, 2, 3, 4, 5, 6, 7, 8, 9, 10, 11, 12, 13, 14, 15, 16, 17, 18, 19, 20, 21, 22, 23, 24, 25, 26, 27, 28, 29, 30, 31, 32, 33, 34, 35, 36, 37, 38, 39, 40, 41, 42, 43, 44, 45, 46, 47, 48, 49, 50, 51, 52, 53, 54, 55, 56, 57, 58, 59, 60, 61, 62, 63, 64, 65, 66, 67, 68, 69, 70, 71, 72, 73, 74, 75, 76, 77, 78, 79, 80, 81, 82, 83, 84, 85, 86, 87, 88, 89, 90, 91, 92, 93, 94, 95, 96, 97, 98, 99, 100, 101, 102, 103, 104, 105, 106, 107, 108, 109, 110, 111, 112, 113, 114, 115, 116, 117, 118, 119, 120, 121, 122, 123, 124, 125, 126, 127, 128, 129, 130, 131, 132, 133, 134, 135, 136, 137, 138, 139, 140, 141, 142, 143, 144, 145, 146, 147, 148, 149, 150, 151, 152, 153, 154, 155, 156, 157, 158, 159],
      "AcquisitionTime": ["165404.512500", "165406.002500", "165407.492500", "165408.982500", "165410.472500", "165411.962500", "165413.452500", "165414.942500", "165416.432500", "165417.922500", "165419.412500", "165420.902500", "165422.392500", "165423.882500", "165425.372500", "165426.862500", "165428.352500", "165429.842500", "165431.332500", "165432.822500", "165434.312500", "165435.802500", "165437.292500", "165438.782500", "165440.272500", "165441.762500", "165443.252500", "165444.742500", "165446.232500", "165447.722500", "165449.212500", "165450.702500", "165452.192500", "165453.682500", "165455.172500", "165456.662500", "165458.152500", "165459.642500", "165501.132500", "165502.622500", "165504.112500", "165505.602500", "165507.092500", "165508.582500", "165510.072500", "165511.562500", "165513.052500", "165514.542500", "165516.032500", "165517.522500", "165519.012500", "165520.502500", "165521.992500", "165523.482500", "165524.972500", "165526.462500", "165527.952500", "165529.442500", "165530.932500", "165532.422500", "165533.912500", "165535.402500", "165536.892500", "165538.382500", "165539.872500", "165541.362500", "165542.852500", "165544.342500", "165545.832500", "165547.322500", "165548.812500", "165550.302500", "165551.792500", "165553.282500", "165554.772500", "165556.262500", "165557.752500", "165559.242500", "165600.732500", "165602.222500", "165603.712500", "165605.202500", "165606.692500", "165608.182500", "165609.672500", "165611.162500", "165612.652500", "165614.142500", "165615.632500", "165617.122500", "165618.612500", "165620.102500", "165621.592500", "165623.082500", "165624.572500", "165626.062500", "165627.552500", "165629.042500", "165630.532500", "165632.022500", "165633.512500", "165635.002500", "165636.492500", "165637.982500", "165639.472500", "165640.962500", "165642.452500", "165643.942500", "165645.432500", "165646.922500", "165648.412500", "165649.902500", "165651.392500", "165652.882500", "165654.372500", "165655.862500", "165657.352500", "165658.842500", "165700.332500", "165701.822500", "165703.312500", "165704.802500", "165706.292500", "165707.782500", "165709.272500", "165710.762500", "165712.252500", "165713.742500", "165715.232500", "165716.722500", "165718.212500", "165719.702500", "165721.192500", "165722.682500", "165724.172500", "165725.662500", "165727.152500", "165728.642500", "165730.132500", "165731.622500", "165733.112500", "165734.602500", "165736.092500", "165737.582500", "165739.072500", "165740.562500", "165742.052500", "165743.542500", "165745.032500", "165746.522500", "165748.012500", "165749.502500", "165750.992500", "165752.482500", "165753.972500", "165755.462500", "165756.952500", "165758.442500", "165759.932500"],
      "ContentTime": ["165524.235000", "165524.238000", "165524.241000", "165524.250000", "165524.252000", "165524.261000", "165524.264000", "165524.267000", "165524.270000", "165524.273000", "165524.275000", "165524.278000", "165524.281000", "165524.284000", "165524.287000", "165524.290000", "165524.292000", "165524.295000", "165524.298000", "165524.301000", "165524.304000", "165524.306000", "165524.309000", "165524.312000", "165524.315000", "165524.328000", "165544.203000", "165544.206000", "165544.209000", "165544.211000", "165544.214000", "165544.217000", "165544.220000", "165544.223000", "165544.226000", "165544.228000", "165544.231000", "165544.234000", "165544.237000", "165544.240000", "165544.242000", "165544.245000", "165544.248000", "165544.251000", "165544.254000", "165544.256000", "165604.203000", "165604.206000", "165604.209000", "165604.211000", "165604.214000", "165604.217000", "165604.230000", "165604.233000", "165604.236000", "165604.239000", "165604.241000", "165604.244000", "165604.247000", "165604.250000", "165604.253000", "165604.255000", "165604.258000", "165604.261000", "165604.264000", "165604.267000", "165624.203000", "165624.206000", "165624.209000", "165624.211000", "165624.214000", "165624.217000", "165624.220000", "165624.223000", "165624.226000", "165624.228000", "165624.231000", "165624.234000", "165624.237000", "165624.240000", "165624.242000", "165624.245000", "165624.248000", "165624.251000", "165624.254000", "165624.256000", "165644.203000", "165644.206000", "165644.209000", "165644.211000", "165644.214000", "165644.217000", "165644.220000", "165644.223000", "165644.226000", "165644.228000", "165644.231000", "165644.234000", "165644.237000", "165644.240000", "165644.242000", "165644.245000", "165644.248000", "165644.251000", "165644.254000", "165644.257000", "165724.203000", "165724.206000", "165724.218000", "165724.221000", "165724.224000", "165724.227000", "165724.230000", "165724.233000", "165724.235000", "165724.238000", "165724.241000", "165724.244000", "165724.247000", "165724.249000", "165724.252000", "165724.255000", "165724.258000", "165724.261000", "165724.264000", "165724.266000", "165724.269000", "165724.272000", "165724.275000", "165724.278000", "165724.281000", "165724.283000", "165724.286000", "165802.390000", "165802.394000", "165802.397000", "165802.399000", "165802.403000", "165802.406000", "165802.409000", "165802.413000", "165802.416000", "165802.420000", "165802.423000", "165802.427000", "165802.431000", "165802.434000", "165802.437000", "165802.440000", "165802.444000", "165802.447000", "165802.450000", "165802.453000", "165802.457000", "165802.460000", "165802.464000", "165802.467000", "165802.470000", "165802.473000"],
      "InstanceCreationTime": ["165524.235000", "165524.238000", "165524.241000", "165524.250000", "165524.252000", "165524.261000", "165524.264000", "165524.267000", "165524.270000", "165524.273000", "165524.275000", "165524.278000", "165524.281000", "165524.284000", "165524.287000", "165524.290000", "165524.292000", "165524.295000", "165524.298000", "165524.301000", "165524.304000", "165524.306000", "165524.309000", "165524.312000", "165524.315000", "165524.328000", "165544.203000", "165544.206000", "165544.209000", "165544.211000", "165544.214000", "165544.217000", "165544.220000", "165544.223000", "165544.226000", "165544.228000", "165544.231000", "165544.234000", "165544.237000", "165544.240000", "165544.242000", "165544.245000", "165544.248000", "165544.251000", "165544.254000", "165544.256000", "165604.203000", "165604.206000", "165604.209000", "165604.211000", "165604.214000", "165604.217000", "165604.230000", "165604.233000", "165604.236000", "165604.239000", "165604.241000", "165604.244000", "165604.247000", "165604.250000", "165604.253000", "165604.255000", "165604.258000", "165604.261000", "165604.264000", "165604.267000", "165624.203000", "165624.206000", "165624.209000", "165624.211000", "165624.214000", "165624.217000", "165624.220000", "165624.223000", "165624.226000", "165624.228000", "165624.231000", "165624.234000", "165624.237000", "165624.240000", "165624.242000", "165624.245000", "165624.248000", "165624.251000", "165624.254000", "165624.256000", "165644.203000", "165644.206000", "165644.209000", "165644.211000", "165644.214000", "165644.217000", "165644.220000", "165644.223000", "165644.226000", "165644.228000", "165644.231000", "165644.234000", "165644.237000", "165644.240000", "165644.242000", "165644.245000", "165644.248000", "165644.251000", "165644.254000", "165644.257000", "165724.203000", "165724.206000", "165724.218000", "165724.221000", "165724.224000", "165724.227000", "165724.230000", "165724.233000", "165724.235000", "165724.238000", "165724.241000", "165724.244000", "165724.247000", "165724.249000", "165724.252000", "165724.255000", "165724.258000", "165724.261000", "165724.264000", "165724.266000", "165724.269000", "165724.272000", "165724.275000", "165724.278000", "165724.281000", "165724.283000", "165724.286000", "165802.390000", "165802.394000", "165802.397000", "165802.399000", "165802.403000", "165802.406000", "165802.409000", "165802.413000", "165802.416000", "165802.420000", "165802.423000", "165802.427000", "165802.431000", "165802.434000", "165802.437000", "165802.440000", "165802.444000", "165802.447000", "165802.450000", "165802.453000", "165802.457000", "165802.460000", "165802.464000", "165802.467000", "165802.470000", "165802.473000"],
      "InstanceNumber": [1, 2, 3, 4, 5, 6, 7, 8, 9, 10, 11, 12, 13, 14, 15, 16, 17, 18, 19, 20, 21, 22, 23, 24, 25, 26, 27, 28, 29, 30, 31, 32, 33, 34, 35, 36, 37, 38, 39, 40, 41, 42, 43, 44, 45, 46, 47, 48, 49, 50, 51, 52, 53, 54, 55, 56, 57, 58, 59, 60, 61, 62, 63, 64, 65, 66, 67, 68, 69, 70, 71, 72, 73, 74, 75, 76, 77, 78, 79, 80, 81, 82, 83, 84, 85, 86, 87, 88, 89, 90, 91, 92, 93, 94, 95, 96, 97, 98, 99, 100, 101, 102, 103, 104, 105, 106, 107, 108, 109, 110, 111, 112, 113, 114, 115, 116, 117, 118, 119, 120, 121, 122, 123, 124, 125, 126, 127, 128, 129, 130, 131, 132, 133, 134, 135, 136, 137, 138, 139, 140, 141, 142, 143, 144, 145, 146, 147, 148, 149, 150, 151, 152, 153, 154, 155, 156, 157, 158, 159],
      "LargestImagePixelValue": [40659, 39687, 39464, 39393, 38476, 38241, 38135, 38199, 38286, 38212, 38051, 38224, 37842, 37985, 38215, 37572, 38171, 38140, 37910, 37701, 38066, 37643, 37741, 37488, 38176, 37648, 38320, 38000, 38159, 38399, 38161, 37865, 38145, 38724, 38030, 37946, 37481, 37925, 37559, 37767, 37701, 38214, 37589, 37954, 37831, 37671, 37531, 37728, 37708, 37645, 37893, 37907, 37854, 37503, 37775, 37556, 38036, 38061, 38003, 37772, 37718, 37699, 37994, 38117, 37701, 37637, 37843, 38337, 37544, 37770, 38084, 37954, 38218, 38174, 38041, 37972, 38180, 37357, 37398, 37904, 37672, 37364, 37625, 37345, 37644, 37983, 37711, 37708, 37877, 37949, 38127, 38127, 37693, 38185, 37681, 37560, 37386, 38205, 38149, 37953, 38017, 37857, 37856, 37765, 37464, 37884, 37766, 37958, 37804, 38113, 37588, 37729, 37664, 37941, 37760, 37320, 37642, 37761, 37749, 37650, 37767, 37951, 37941, 37499, 37548, 37225, 37259, 37841, 38030, 38604, 38460, 37847, 38649, 38454, 38040, 38127, 37967, 37554, 37928, 38428, 37709, 38102, 37812, 38175, 38205, 37927, 38060, 38475, 38093, 37890, 38292, 38358, 38076, 37908, 37567, 38231, 37560, 37932, 37474],
      "WindowCenter": [9897.0, 9850.0, 9828.0, 9835.0, 9839.0, 9846.0, 9831.0, 9830.0, 9836.0, 9838.0, 9832.0, 9823.0, 9815.0, 9820.0, 9827.0, 9814.0, 9819.0, 9818.0, 9813.0, 9819.0, 9834.0, 9839.0, 9839.0, 9822.0, 9804.0, 9803.0, 9807.0, 9808.0, 9806.0, 9806.0, 9801.0, 9791.0, 9792.0, 9796.0, 9797.0, 9801.0, 9803.0, 9817.0, 9813.0, 9820.0, 9802.0, 9791.0, 9783.0, 9801.0, 9802.0, 9804.0, 9797.0, 9802.0, 9803.0, 9811.0, 9813.0, 9813.0, 9811.0, 9805.0, 9812.0, 9796.0, 9793.0, 9799.0, 9799.0, 9800.0, 9810.0, 9812.0, 9810.0, 9818.0, 9804.0, 9802.0, 9808.0, 9826.0, 9823.0, 9802.0, 9783.0, 9766.0, 9771.0, 9789.0, 9809.0, 9810.0, 9802.0, 9786.0, 9785.0, 9800.0, 9809.0, 9804.0, 9797.0, 9792.0, 9784.0, 9791.0, 9800.0, 9794.0, 9785.0, 9783.0, 9781.0, 9780.0, 9783.0, 9790.0, 9794.0, 9795.0, 9794.0, 9791.0, 9790.0, 9799.0, 9806.0, 9802.0, 9795.0, 9794.0, 9777.0, 9783.0, 9791.0, 9799.0, 9791.0, 9791.0, 9793.0, 9793.0, 9792.0, 9792.0, 9795.0, 9803.0, 9810.0, 9801.0, 9787.0, 9777.0, 9782.0, 9797.0, 9809.0, 9805.0, 9798.0, 9787.0, 9770.0, 9773.0, 9773.0, 9786.0, 9791.0, 9785.0, 9789.0, 9789.0, 9791.0, 9792.0, 9792.0, 9777.0, 9782.0, 9799.0, 9794.0, 9790.0, 9767.0, 9765.0, 9773.0, 9782.0, 9799.0, 9811.0, 9818.0, 9812.0, 9801.0, 9809.0, 9792.0, 9773.0, 9762.0, 9781.0, 9803.0, 9806.0, 9758.0],
      "WindowWidth": [20962.0, 20838.0, 20777.0, 20790.0, 20799.0, 20811.0, 20780.0, 20776.0, 20788.0, 20792.0, 20779.0, 20759.0, 20745.0, 20751.0, 20766.0, 20741.0, 20749.0, 20746.0, 20736.0, 20748.0, 20779.0, 20796.0, 20795.0, 20755.0, 20712.0, 20709.0, 20718.0, 20721.0, 20715.0, 20713.0, 20708.0, 20686.0, 20689.0, 20694.0, 20697.0, 20708.0, 20713.0, 20741.0, 20736.0, 20746.0, 20708.0, 20683.0, 20669.0, 20711.0, 20713.0, 20717.0, 20703.0, 20712.0, 20715.0, 20732.0, 20740.0, 20739.0, 20731.0, 20720.0, 20735.0, 20698.0, 20688.0, 20702.0, 20700.0, 20706.0, 20729.0, 20733.0, 20728.0, 20745.0, 20712.0, 20707.0, 20721.0, 20765.0, 20760.0, 20708.0, 20664.0, 20623.0, 20634.0, 20677.0, 20726.0, 20728.0, 20708.0, 20674.0, 20671.0, 20703.0, 20725.0, 20716.0, 20702.0, 20687.0, 20668.0, 20682.0, 20704.0, 20691.0, 20670.0, 20664.0, 20659.0, 20658.0, 20667.0, 20682.0, 20691.0, 20694.0, 20689.0, 20680.0, 20680.0, 20700.0, 20714.0, 20710.0, 20696.0, 20692.0, 20655.0, 20667.0, 20683.0, 20697.0, 20681.0, 20680.0, 20690.0, 20688.0, 20685.0, 20685.0, 20695.0, 20715.0, 20724.0, 20703.0, 20675.0, 20654.0, 20662.0, 20695.0, 20723.0, 20720.0, 20704.0, 20677.0, 20641.0, 20641.0, 20640.0, 20664.0, 20682.0, 20669.0, 20672.0, 20674.0, 20682.0, 20686.0, 20681.0, 20643.0, 20653.0, 20693.0, 20684.0, 20672.0, 20627.0, 20621.0, 20638.0, 20658.0, 20694.0, 20721.0, 20737.0, 20723.0, 20699.0, 20714.0, 20679.0, 20637.0, 20615.0, 20652.0, 20706.0, 20714.0, 20608.0]
    },
    "slices": {}
  }
}