{
  "AcquisitionMatrixPE": 104,
  "AcquisitionNumber": 1,
  "AcquisitionTime": "16:27:37.232500",
  "BandwidthPerPixelPhaseEncode": 17.17,
  "BaseResolution": 104,
  "BodyPartExamined": "BRAIN",
  "CoilString": "HC1-7;NC1_2",
  "ConsistencyInfo": "N4_VE11C_LATEST_20160120",
  "ConversionSoftware": "dcm2niix",
  "ConversionSoftwareVersion": "v1.0.20190720  (JP2:OpenJPEG) GCC7.3.0",
  "DerivedVendorReportedEchoSpacing": 0.000560011,
  "DeviceSerialNumber": "167006",
  "DwellTime": 2.1e-06,
  "EchoTime": 0.037,
  "EchoTrainLength": 104,
  "EffectiveEchoSpacing": 0.000560011,
  "FlipAngle": 52,
  "ImageComments": "Unaliased_MB4_PE3_LB",
  "ImageOrientationPatientDICOM": [0.999484, -0.0296716, 0.0122806, 0.0321085, 0.929448, -0.367552],
  "ImageType": [
    "ORIGINAL",
    "PRIMARY",
    "M",
    "MB",
    "ND",
    "MOSAIC"
],
  "ImagingFrequency": 123.259,
  "InPlanePhaseEncodingDirectionDICOM": "COL",
  "InstitutionAddress": "Chemin_Queen-Mary_4565_Montreal_District_CA_H3W_1W5",
  "InstitutionName": "IUGM",
  "InstitutionalDepartmentName": "Department",
  "MRAcquisitionType": "2D",
  "MagneticFieldStrength": 3,
  "Manufacturer": "Siemens",
  "ManufacturersModelName": "Prisma_fit",
  "Modality": "MR",
  "MultibandAccelerationFactor": 4,
  "PartialFourier": 1,
  "PatientPosition": "HFS",
  "PercentPhaseFOV": 100,
  "PhaseEncodingDirection": "j",
  "PhaseEncodingSteps": 104,
  "PhaseResolution": 1,
  "PixelBandwidth": 2290,
  "ProcedureStepDescription": "hcptrt_generic",
  "ProtocolName": "func_task-motor_run-1",
  "PulseSequenceDetails": "%CustomerSeq%_cmrr_mbep2d_bold",
  "ReceiveCoilActiveElements": "HC1-7;NC1,2",
  "ReceiveCoilName": "HeadNeck_64",
  "ReconMatrixPE": 104,
  "RepetitionTime": 1.49,
  "SAR": 0.0292426,
  "ScanOptions": "FS",
  "ScanningSequence": "EP",
  "SequenceName": "epfid2d1_104",
  "SequenceVariant": "SK_SS",
  "SeriesDescription": "func_task-motor_run-1",
  "SeriesNumber": 9,
  "ShimSetting": [628, -7147, -8817, 671, 20, 181, 2, 8],
  "SliceThickness": 2,
  "SliceTiming": [0, 0.785, 0.1, 0.8825, 0.1975, 0.98, 0.295, 1.08, 0.3925, 1.1775, 0.49, 1.275, 0.59, 1.3725, 0.6875, 0, 0.785, 0.1, 0.8825, 0.1975, 0.98, 0.295, 1.08, 0.3925, 1.1775, 0.49, 1.275, 0.59, 1.3725, 0.6875, 0, 0.785, 0.1, 0.8825, 0.1975, 0.98, 0.295, 1.08, 0.3925, 1.1775, 0.49, 1.275, 0.59, 1.3725, 0.6875, 0, 0.785, 0.1, 0.8825, 0.1975, 0.98, 0.295, 1.08, 0.3925, 1.1775, 0.49, 1.275, 0.59, 1.3725, 0.6875],
  "SoftwareVersions": "syngo_MR_E11",
  "SpacingBetweenSlices": 2,
  "StationName": "MRC35049",
  "TaskName": "motor",
  "TotalReadoutTime": 0.0576811,
  "TxRefAmp": 209.096,
  "WipMemBlock": "116251b7-7036-41d3-9ef6-28dbc93e7591||Sequence: R016 ve11c/master r/e634e98; Dec 19 2017 11:00:25 by eja",
  "dcmmeta_affine": [
    [-1.998968482017517, 0.06421700865030289, 0.001016626600176096, 104.96529388427734],
    [0.0593431293964386, 1.8588968515396118, -0.7355138659477234, -68.99702453613281],
    [0.02456115186214447, 0.7351043820381165, 1.8598436117172241, -72.54606628417969],
    [0.0, 0.0, 0.0, 1.0]
],
  "dcmmeta_reorient_transform": [
    [0.0, -1.0, 0.0, 103.0],
    [1.0, 0.0, 0.0, 0.0],
    [0.0, 0.0, 1.0, 0.0],
    [0.0, 0.0, 0.0, 1.0]
],
  "dcmmeta_shape": [104, 104, 60, 144],
  "dcmmeta_slice_dim": 2,
  "dcmmeta_version": 0.6,
  "global": {
    "const": {
      "AcquisitionMatrix": [104, 0, 0, 104],
      "AngioFlag": "N",
      "BitsAllocated": 16,
      "BitsStored": 16,
      "BodyPartExamined": "BRAIN",
      "Columns": 832,
      "EchoNumbers": 1,
      "EchoTime": 37.0,
      "EchoTrainLength": 104,
      "FlipAngle": 52.0,
      "HighBit": 15,
      "ImageOrientationPatient": [0.99948425983277, -0.02967156551, 0.01228057599336, 0.03210850298783, 0.92944845336957, -0.3675521957012],
      "ImagePositionPatient": [-862.579177385, -777.5069297507, 261.80742695852],
      "ImageType": [
        "ORIGINAL",
        "PRIMARY",
        "M",
        "MB",
        "ND",
        "MOSAIC"
],
      "ImagedNucleus": "1H",
      "ImagingFrequency": 123.259366,
      "InPlanePhaseEncodingDirection": "COL",
      "MRAcquisitionType": "2D",
      "MagneticFieldStrength": 3.0,
      "Manufacturer": "SIEMENS",
      "ManufacturerModelName": "Prisma_fit",
      "Modality": "MR",
      "NumberOfAverages": 1.0,
      "NumberOfPhaseEncodingSteps": 104,
      "PercentPhaseFieldOfView": 100.0,
      "PercentSampling": 100.0,
      "PerformedProcedureStepStartTime": "160201.164000",
      "PhotometricInterpretation": "MONOCHROME2",
      "PixelBandwidth": 2290.0,
      "PixelRepresentation": 0,
      "PixelSpacing": [2.0, 2.0],
      "ProtocolName": "func_task-motor_run-1",
      "RepetitionTime": 1490.0,
      "Rows": 832,
      "SAR": 0.02924262001908,
      "SamplesPerPixel": 1,
      "ScanOptions": "FS",
      "ScanningSequence": "EP",
      "SequenceName": "epfid2d1_104",
      "SequenceVariant": [
        "SK",
        "SS"
],
      "SeriesDescription": "func_task-motor_run-1",
      "SeriesNumber": 9,
      "SeriesTime": "162904.230000",
      "SliceLocation": -42.034676773484,
      "SliceThickness": 2.0,
      "SmallestImagePixelValue": 0,
      "SoftwareVersions": "syngo MR E11",
      "SpacingBetweenSlices": 1.9999999437394,
      "SpecificCharacterSet": "ISO_IR 100",
      "StudyID": "1",
      "StudyTime": "160201.110000",
      "TransmitCoilName": "Body",
      "VariableFlipAngleFlag": "N",
      "WindowCenterWidthExplanation": "Algo1",
      "dBdt": 0.0},
    "slices": {}
  },
  "time": {
    "samples": {
      "AcquisitionNumber": [1, 2, 3, 4, 5, 6, 7, 8, 9, 10, 11, 12, 13, 14, 15, 16, 17, 18, 19, 20, 21, 22, 23, 24, 25, 26, 27, 28, 29, 30, 31, 32, 33, 34, 35, 36, 37, 38, 39, 40, 41, 42, 43, 44, 45, 46, 47, 48, 49, 50, 51, 52, 53, 54, 55, 56, 57, 58, 59, 60, 61, 62, 63, 64, 65, 66, 67, 68, 69, 70, 71, 72, 73, 74, 75, 76, 77, 78, 79, 80, 81, 82, 83, 84, 85, 86, 87, 88, 89, 90, 91, 92, 93, 94, 95, 96, 97, 98, 99, 100, 101, 102, 103, 104, 105, 106, 107, 108, 109, 110, 111, 112, 113, 114, 115, 116, 117, 118, 119, 120, 121, 122, 123, 124, 125, 126, 127, 128, 129, 130, 131, 132, 133, 134, 135, 136, 137, 138, 139, 140, 141, 142, 143, 144],
      "AcquisitionTime": ["162737.232500", "162738.722500", "162740.212500", "162741.702500", "162743.192500", "162744.682500", "162746.172500", "162747.662500", "162749.152500", "162750.642500", "162752.132500", "162753.622500", "162755.112500", "162756.602500", "162758.092500", "162759.582500", "162801.072500", "162802.562500", "162804.052500", "162805.542500", "162807.032500", "162808.522500", "162810.012500", "162811.502500", "162812.992500", "162814.482500", "162815.972500", "162817.462500", "162818.952500", "162820.442500", "162821.932500", "162823.422500", "162824.912500", "162826.402500", "162827.892500", "162829.382500", "162830.872500", "162832.362500", "162833.852500", "162835.342500", "162836.832500", "162838.322500", "162839.812500", "162841.302500", "162842.792500", "162844.282500", "162845.772500", "162847.262500", "162848.752500", "162850.242500", "162851.732500", "162853.222500", "162854.712500", "162856.202500", "162857.692500", "162859.182500", "162900.672500", "162902.162500", "162903.652500", "162905.142500", "162906.632500", "162908.122500", "162909.612500", "162911.102500", "162912.592500", "162914.082500", "162915.572500", "162917.062500", "162918.552500", "162920.042500", "162921.532500", "162923.022500", "162924.512500", "162926.002500", "162927.492500", "162928.982500", "162930.472500", "162931.962500", "162933.452500", "162934.942500", "162936.432500", "162937.922500", "162939.412500", "162940.902500", "162942.392500", "162943.882500", "162945.372500", "162946.862500", "162948.352500", "162949.842500", "162951.332500", "162952.822500", "162954.312500", "162955.802500", "162957.292500", "162958.782500", "163000.272500", "163001.762500", "163003.252500", "163004.742500", "163006.232500", "163007.722500", "163009.212500", "163010.702500", "163012.192500", "163013.682500", "163015.172500", "163016.662500", "163018.152500", "163019.642500", "163021.132500", "163022.622500", "163024.112500", "163025.602500", "163027.092500", "163028.582500", "163030.072500", "163031.562500", "163033.052500", "163034.542500", "163036.032500", "163037.522500", "163039.012500", "163040.502500", "163041.992500", "163043.482500", "163044.972500", "163046.462500", "163047.952500", "163049.442500", "163050.932500", "163052.422500", "163053.912500", "163055.402500", "163056.892500", "163058.382500", "163059.872500", "163101.362500", "163102.852500", "163104.342500", "163105.832500", "163107.322500", "163108.812500", "163110.302500"],
      "ContentTime": ["162904.232000", "162904.236000", "162904.238000", "162904.241000", "162904.244000", "162904.247000", "162904.250000", "162904.253000", "162904.255000", "162904.258000", "162904.261000", "162904.264000", "162904.266000", "162904.269000", "162904.272000", "162904.275000", "162904.278000", "162904.286000", "162904.288000", "162904.291000", "162904.294000", "162904.297000", "162904.299000", "162904.302000", "162904.305000", "162904.308000", "162904.311000", "162904.314000", "162904.316000", "162904.319000", "162904.322000", "162904.325000", "162904.328000", "162924.203000", "162924.206000", "162924.209000", "162924.211000", "162924.214000", "162924.217000", "162924.220000", "162924.223000", "162924.226000", "162924.228000", "162924.231000", "162924.234000", "162924.237000", "162924.240000", "162924.242000", "162924.245000", "162924.248000", "162924.251000", "162924.253000", "162924.256000", "162944.203000", "162944.206000", "162944.209000", "162944.212000", "162944.214000", "162944.217000", "162944.220000", "162944.223000", "162944.225000", "162944.228000", "162944.231000", "162944.234000", "162944.237000", "162944.239000", "162944.242000", "162944.245000", "162944.248000", "162944.251000", "162944.253000", "162944.256000", "162944.259000", "163004.204000", "163004.207000", "163004.210000", "163004.213000", "163004.216000", "163004.219000", "163004.221000", "163004.224000", "163004.227000", "163004.230000", "163004.232000", "163004.242000", "163004.244000", "163004.247000", "163004.250000", "163004.253000", "163004.256000", "163004.258000", "163004.261000", "163004.264000", "163044.203000", "163044.206000", "163044.209000", "163044.211000", "163044.214000", "163044.217000", "163044.220000", "163044.223000", "163044.225000", "163044.228000", "163044.231000", "163044.234000", "163044.237000", "163044.240000", "163044.242000", "163044.245000", "163044.248000", "163044.251000", "163044.253000", "163044.256000", "163044.259000", "163044.262000", "163044.276000", "163044.279000", "163044.282000", "163044.285000", "163044.288000", "163044.290000", "163044.293000", "163044.296000", "163112.844000", "163112.848000", "163112.851000", "163112.853000", "163112.856000", "163112.859000", "163112.862000", "163112.865000", "163112.868000", "163112.871000", "163112.874000", "163112.877000", "163112.880000", "163112.883000", "163112.886000", "163112.889000", "163112.892000", "163112.895000", "163112.898000", "163112.900000"],
      "InstanceCreationTime": ["162904.232000", "162904.236000", "162904.238000", "162904.241000", "162904.244000", "162904.247000", "162904.250000", "162904.253000", "162904.255000", "162904.258000", "162904.261000", "162904.264000", "162904.266000", "162904.269000", "162904.272000", "162904.275000", "162904.278000", "162904.286000", "162904.288000", "162904.291000", "162904.294000", "162904.297000", "162904.299000", "162904.302000", "162904.305000", "162904.308000", "162904.311000", "162904.314000", "162904.316000", "162904.319000", "162904.322000", "162904.325000", "162904.328000", "162924.203000", "162924.206000", "162924.209000", "162924.211000", "162924.214000", "162924.217000", "162924.220000", "162924.223000", "162924.226000", "162924.228000", "162924.231000", "162924.234000", "162924.237000", "162924.240000", "162924.242000", "162924.245000", "162924.248000", "162924.251000", "162924.253000", "162924.256000", "162944.203000", "162944.206000", "162944.209000", "162944.212000", "162944.214000", "162944.217000", "162944.220000", "162944.223000", "162944.225000", "162944.228000", "162944.231000", "162944.234000", "162944.237000", "162944.239000", "162944.242000", "162944.245000", "162944.248000", "162944.251000", "162944.253000", "162944.256000", "162944.259000", "163004.204000", "163004.207000", "163004.210000", "163004.213000", "163004.216000", "163004.219000", "163004.221000", "163004.224000", "163004.227000", "163004.230000", "163004.232000", "163004.242000", "163004.244000", "163004.247000", "163004.250000", "163004.253000", "163004.256000", "163004.258000", "163004.261000", "163004.264000", "163044.203000", "163044.206000", "163044.209000", "163044.211000", "163044.214000", "163044.217000", "163044.220000", "163044.223000", "163044.225000", "163044.228000", "163044.231000", "163044.234000", "163044.237000", "163044.240000", "163044.242000", "163044.245000", "163044.248000", "163044.251000", "163044.253000", "163044.256000", "163044.259000", "163044.262000", "163044.276000", "163044.279000", "163044.282000", "163044.285000", "163044.288000", "163044.290000", "163044.293000", "163044.296000", "163112.844000", "163112.848000", "163112.851000", "163112.853000", "163112.856000", "163112.859000", "163112.862000", "163112.865000", "163112.868000", "163112.871000", "163112.874000", "163112.877000", "163112.880000", "163112.883000", "163112.886000", "163112.889000", "163112.892000", "163112.895000", "163112.898000", "163112.900000"],
      "InstanceNumber": [1, 2, 3, 4, 5, 6, 7, 8, 9, 10, 11, 12, 13, 14, 15, 16, 17, 18, 19, 20, 21, 22, 23, 24, 25, 26, 27, 28, 29, 30, 31, 32, 33, 34, 35, 36, 37, 38, 39, 40, 41, 42, 43, 44, 45, 46, 47, 48, 49, 50, 51, 52, 53, 54, 55, 56, 57, 58, 59, 60, 61, 62, 63, 64, 65, 66, 67, 68, 69, 70, 71, 72, 73, 74, 75, 76, 77, 78, 79, 80, 81, 82, 83, 84, 85, 86, 87, 88, 89, 90, 91, 92, 93, 94, 95, 96, 97, 98, 99, 100, 101, 102, 103, 104, 105, 106, 107, 108, 109, 110, 111, 112, 113, 114, 115, 116, 117, 118, 119, 120, 121, 122, 123, 124, 125, 126, 127, 128, 129, 130, 131, 132, 133, 134, 135, 136, 137, 138, 139, 140, 141, 142, 143, 144],
      "LargestImagePixelValue": [42074, 40719, 40150, 39399, 39358, 39742, 39109, 39314, 39220, 39534, 39235, 39839, 39290, 39641, 39354, 39372, 39105, 39321, 39336, 39332, 39495, 39459, 39478, 39677, 38819, 38896, 39553, 39765, 39544, 39409, 39460, 39396, 39591, 39813, 39476, 39560, 39095, 39350, 39489, 39800, 39599, 39694, 39655, 39426, 39334, 39070, 39472, 39431, 39738, 39746, 39431, 39143, 39148, 39176, 39676, 39654, 39314, 39411, 39369, 39340, 39592, 39881, 39786, 39845, 39027, 39736, 39651, 39488, 39506, 39117, 39487, 39472, 39251, 39345, 39535, 39299, 39307, 39029, 39424, 39426, 39490, 39148, 39053, 39365, 39443, 38834, 39355, 39037, 39572, 38751, 39345, 39188, 39761, 38889, 39063, 39373, 39054, 39738, 39066, 39053, 39136, 39472, 39561, 39380, 38996, 39086, 38868, 39179, 39614, 39238, 39278, 39230, 39647, 39274, 39303, 39042, 38873, 39407, 38870, 39100, 39047, 39268, 38870, 38824, 38984, 39050, 39337, 38965, 39206, 38919, 38762, 38757, 38865, 39249, 38909, 39224, 39264, 38808, 39185, 38897, 39124, 38875, 39125, 39004],
      "WindowCenter": [9920.0, 9886.0, 9861.0, 9859.0, 9857.0, 9849.0, 9834.0, 9845.0, 9856.0, 9866.0, 9858.0, 9849.0, 9840.0, 9847.0, 9848.0, 9856.0, 9852.0, 9856.0, 9857.0, 9855.0, 9850.0, 9857.0, 9860.0, 9867.0, 9847.0, 9843.0, 9838.0, 9837.0, 9839.0, 9847.0, 9841.0, 9830.0, 9834.0, 9845.0, 9857.0, 9858.0, 9835.0, 9823.0, 9827.0, 9845.0, 9855.0, 9866.0, 9876.0, 9868.0, 9864.0, 9851.0, 9841.0, 9824.0, 9830.0, 9839.0, 9849.0, 9852.0, 9844.0, 9833.0, 9829.0, 9822.0, 9822.0, 9831.0, 9839.0, 9841.0, 9847.0, 9847.0, 9849.0, 9856.0, 9845.0, 9842.0, 9833.0, 9832.0, 9840.0, 9844.0, 9850.0, 9843.0, 9848.0, 9847.0, 9855.0, 9858.0, 9865.0, 9857.0, 9856.0, 9851.0, 9842.0, 9834.0, 9833.0, 9843.0, 9843.0, 9834.0, 9833.0, 9835.0, 9847.0, 9845.0, 9850.0, 9845.0, 9850.0, 9846.0, 9844.0, 9835.0, 9826.0, 9824.0, 9831.0, 9834.0, 9835.0, 9835.0, 9834.0, 9841.0, 9843.0, 9835.0, 9827.0, 9825.0, 9829.0, 9830.0, 9831.0, 9832.0, 9838.0, 9837.0, 9833.0, 9841.0, 9850.0, 9850.0, 9843.0, 9850.0, 9861.0, 9863.0, 9847.0, 9838.0, 9832.0, 9831.0, 9839.0, 9844.0, 9859.0, 9845.0, 9830.0, 9826.0, 9825.0, 9840.0, 9842.0, 9844.0, 9851.0, 9845.0, 9845.0, 9836.0, 9842.0, 9838.0, 9842.0, 9842.0],
      "WindowWidth": [21018.0, 20929.0, 20865.0, 20854.0, 20846.0, 20826.0, 20794.0, 20813.0, 20838.0, 20862.0, 20843.0, 20824.0, 20804.0, 20817.0, 20822.0, 20839.0, 20836.0, 20840.0, 20841.0, 20835.0, 20826.0, 20842.0, 20852.0, 20864.0, 20825.0, 20810.0, 20797.0, 20793.0, 20802.0, 20817.0, 20806.0, 20780.0, 20785.0, 20812.0, 20842.0, 20843.0, 20793.0, 20764.0, 20768.0, 20810.0, 20836.0, 20862.0, 20882.0, 20865.0, 20858.0, 20826.0, 20804.0, 20767.0, 20779.0, 20801.0, 20827.0, 20833.0, 20815.0, 20785.0, 20775.0, 20762.0, 20761.0, 20784.0, 20803.0, 20806.0, 20813.0, 20815.0, 20820.0, 20836.0, 20816.0, 20807.0, 20789.0, 20787.0, 20804.0, 20814.0, 20827.0, 20811.0, 20819.0, 20818.0, 20835.0, 20845.0, 20858.0, 20840.0, 20835.0, 20826.0, 20807.0, 20790.0, 20786.0, 20812.0, 20809.0, 20790.0, 20788.0, 20795.0, 20816.0, 20818.0, 20827.0, 20818.0, 20823.0, 20817.0, 20808.0, 20787.0, 20769.0, 20762.0, 20778.0, 20789.0, 20791.0, 20791.0, 20787.0, 20801.0, 20810.0, 20793.0, 20773.0, 20765.0, 20772.0, 20779.0, 20781.0, 20784.0, 20793.0, 20792.0, 20788.0, 20807.0, 20826.0, 20823.0, 20809.0, 20823.0, 20851.0, 20856.0, 20823.0, 20798.0, 20782.0, 20780.0, 20798.0, 20812.0, 20843.0, 20817.0, 20785.0, 20773.0, 20771.0, 20802.0, 20807.0, 20815.0, 20828.0, 20817.0, 20817.0, 20798.0, 20809.0, 20801.0, 20807.0, 20807.0]
    },
    "slices": {}
  }
}