{
  "AcquisitionMatrixPE": 104,
  "AcquisitionNumber": 1,
  "AcquisitionTime": "10:06:31.935000",
  "BandwidthPerPixelPhaseEncode": 17.17,
  "BaseResolution": 104,
  "BodyPartExamined": "BRAIN",
  "CoilString": "HC1-7;NC1_2",
  "ConsistencyInfo": "N4_VE11C_LATEST_20160120",
  "ConversionSoftware": "dcm2niix",
  "ConversionSoftwareVersion": "v1.0.20190720  (JP2:OpenJPEG) GCC7.3.0",
  "DerivedVendorReportedEchoSpacing": 0.000560011,
  "DeviceSerialNumber": "167006",
  "DwellTime": 2.1e-06,
  "EchoTime": 0.037,
  "EchoTrainLength": 104,
  "EffectiveEchoSpacing": 0.000560011,
  "FlipAngle": 52,
  "ImageComments": "Unaliased_MB4_PE3_LB",
  "ImageOrientationPatientDICOM": [0.999585, -0.0266973, 0.0107864, 0.028794, 0.926799, -0.374451],
  "ImageType": [
    "ORIGINAL",
    "PRIMARY",
    "M",
    "MB",
    "ND",
    "MOSAIC"
],
  "ImagingFrequency": 123.259,
  "InPlanePhaseEncodingDirectionDICOM": "COL",
  "InstitutionAddress": "Chemin_Queen-Mary_4565_Montreal_District_CA_H3W_1W5",
  "InstitutionName": "IUGM",
  "InstitutionalDepartmentName": "Department",
  "MRAcquisitionType": "2D",
  "MagneticFieldStrength": 3,
  "Manufacturer": "Siemens",
  "ManufacturersModelName": "Prisma_fit",
  "Modality": "MR",
  "MultibandAccelerationFactor": 4,
  "PartialFourier": 1,
  "PatientPosition": "HFS",
  "PercentPhaseFOV": 100,
  "PhaseEncodingDirection": "j",
  "PhaseEncodingSteps": 104,
  "PhaseResolution": 1,
  "PixelBandwidth": 2290,
  "ProcedureStepDescription": "hcptrt_generic",
  "ProtocolName": "func_task-relational_run-1",
  "PulseSequenceDetails": "%CustomerSeq%_cmrr_mbep2d_bold",
  "ReceiveCoilActiveElements": "HC1-7;NC1,2",
  "ReceiveCoilName": "HeadNeck_64",
  "ReconMatrixPE": 104,
  "RepetitionTime": 1.49,
  "SAR": 0.0345211,
  "ScanOptions": "FS",
  "ScanningSequence": "EP",
  "SequenceName": "epfid2d1_104",
  "SequenceVariant": "SK_SS",
  "SeriesDescription": "func_task-relational_run-1",
  "SeriesNumber": 11,
  "ShimSetting": [609, -7258, -8868, 381, 42, -480, -9, 30],
  "SliceThickness": 2,
  "SliceTiming": [0, 0.7825, 0.0975, 0.8825, 0.195, 0.98, 0.295, 1.0775, 0.3925, 1.175, 0.49, 1.2725, 0.5875, 1.3725, 0.685, 0, 0.7825, 0.0975, 0.8825, 0.195, 0.98, 0.295, 1.0775, 0.3925, 1.175, 0.49, 1.2725, 0.5875, 1.3725, 0.685, 0, 0.7825, 0.0975, 0.8825, 0.195, 0.98, 0.295, 1.0775, 0.3925, 1.175, 0.49, 1.2725, 0.5875, 1.3725, 0.685, 0, 0.7825, 0.0975, 0.8825, 0.195, 0.98, 0.295, 1.0775, 0.3925, 1.175, 0.49, 1.2725, 0.5875, 1.3725, 0.685],
  "SoftwareVersions": "syngo_MR_E11",
  "SpacingBetweenSlices": 2,
  "StationName": "MRC35049",
  "TaskName": "relational",
  "TotalReadoutTime": 0.0576811,
  "TxRefAmp": 238.96,
  "WipMemBlock": "810ebb1d-cb3c-4e0d-bfd5-faa98cf704ce||Sequence: R016 ve11c/master r/e634e98; Dec 19 2017 11:00:25 by eja",
  "dcmmeta_affine": [
    [-1.9991707801818848, 0.05758797749876976, 1.0379200610088901e-08, 99.09239196777344],
    [0.05339463800191879, 1.8535988330841064, -0.7492132186889648, -69.23971557617188],
    [0.021572845056653023, 0.7489025592803955, 1.854367733001709, -81.56385803222656],
    [0.0, 0.0, 0.0, 1.0]
],
  "dcmmeta_reorient_transform": [
    [0.0, -1.0, 0.0, 103.0],
    [1.0, 0.0, 0.0, 0.0],
    [0.0, 0.0, 1.0, 0.0],
    [0.0, 0.0, 0.0, 1.0]
],
  "dcmmeta_shape": [104, 104, 60, 119],
  "dcmmeta_slice_dim": 2,
  "dcmmeta_version": 0.6,
  "global": {
    "const": {
      "AcquisitionMatrix": [104, 0, 0, 104],
      "AngioFlag": "N",
      "BitsAllocated": 16,
      "BitsStored": 16,
      "BodyPartExamined": "BRAIN",
      "Columns": 832,
      "EchoNumbers": 1,
      "EchoTime": 37.0,
      "EchoTrainLength": 104,
      "FlipAngle": 52.0,
      "HighBit": 15,
      "ImageOrientationPatient": [0.99958536714409, -0.0266973195487, 0.01078642296251, 0.02879398880687, 0.92679941240095, -0.3744512723731],
      "ImagePositionPatient": [-853.68412700269, -776.95528617802, 260.32111164932],
      "ImageType": [
        "ORIGINAL",
        "PRIMARY",
        "M",
        "MB",
        "ND",
        "MOSAIC"
],
      "ImagedNucleus": "1H",
      "ImagingFrequency": 123.259273,
      "InPlanePhaseEncodingDirection": "COL",
      "MRAcquisitionType": "2D",
      "MagneticFieldStrength": 3.0,
      "Manufacturer": "SIEMENS",
      "ManufacturerModelName": "Prisma_fit",
      "Modality": "MR",
      "NumberOfAverages": 1.0,
      "NumberOfPhaseEncodingSteps": 104,
      "PercentPhaseFieldOfView": 100.0,
      "PercentSampling": 100.0,
      "PerformedProcedureStepStartTime": "091553.600000",
      "PhotometricInterpretation": "MONOCHROME2",
      "PixelBandwidth": 2290.0,
      "PixelRepresentation": 0,
      "PixelSpacing": [2.0, 2.0],
      "ProtocolName": "func_task-relational_run-1",
      "RepetitionTime": 1490.0,
      "Rows": 832,
      "SAR": 0.03452105156106,
      "SamplesPerPixel": 1,
      "ScanOptions": "FS",
      "ScanningSequence": "EP",
      "SequenceName": "epfid2d1_104",
      "SequenceVariant": [
        "SK",
        "SS"
],
      "SeriesDescription": "func_task-relational_run-1",
      "SeriesNumber": 11,
      "SeriesTime": "100752.317000",
      "SliceLocation": -49.687039747185,
      "SliceThickness": 2.0,
      "SmallestImagePixelValue": 0,
      "SoftwareVersions": "syngo MR E11",
      "SpacingBetweenSlices": 2.0000000084052,
      "SpecificCharacterSet": "ISO_IR 100",
      "StudyID": "1",
      "StudyTime": "091553.432000",
      "TransmitCoilName": "Body",
      "VariableFlipAngleFlag": "N",
      "WindowCenterWidthExplanation": "Algo1",
      "dBdt": 0.0},
    "slices": {}
  },
  "time": {
    "samples": {
      "AcquisitionNumber": [1, 2, 3, 4, 5, 6, 7, 8, 9, 10, 11, 12, 13, 14, 15, 16, 17, 18, 19, 20, 21, 22, 23, 24, 25, 26, 27, 28, 29, 30, 31, 32, 33, 34, 35, 36, 37, 38, 39, 40, 41, 42, 43, 44, 45, 46, 47, 48, 49, 50, 51, 52, 53, 54, 55, 56, 57, 58, 59, 60, 61, 62, 63, 64, 65, 66, 67, 68, 69, 70, 71, 72, 73, 74, 75, 76, 77, 78, 79, 80, 81, 82, 83, 84, 85, 86, 87, 88, 89, 90, 91, 92, 93, 94, 95, 96, 97, 98, 99, 100, 101, 102, 103, 104, 105, 106, 107, 108, 109, 110, 111, 112, 113, 114, 115, 116, 117, 118, 119],
      "AcquisitionTime": ["100631.935000", "100633.425000", "100634.915000", "100636.405000", "100637.895000", "100639.385000", "100640.875000", "100642.365000", "100643.855000", "100645.345000", "100646.835000", "100648.325000", "100649.815000", "100651.305000", "100652.795000", "100654.285000", "100655.775000", "100657.265000", "100658.755000", "100700.245000", "100701.735000", "100703.225000", "100704.715000", "100706.205000", "100707.695000", "100709.185000", "100710.675000", "100712.165000", "100713.655000", "100715.145000", "100716.635000", "100718.125000", "100719.615000", "100721.105000", "100722.595000", "100724.085000", "100725.575000", "100727.065000", "100728.555000", "100730.045000", "100731.535000", "100733.025000", "100734.515000", "100736.005000", "100737.495000", "100738.985000", "100740.475000", "100741.965000", "100743.455000", "100744.945000", "100746.435000", "100747.925000", "100749.415000", "100750.905000", "100752.395000", "100753.885000", "100755.375000", "100756.865000", "100758.355000", "100759.845000", "100801.335000", "100802.825000", "100804.315000", "100805.805000", "100807.295000", "100808.785000", "100810.275000", "100811.765000", "100813.255000", "100814.745000", "100816.235000", "100817.725000", "100819.215000", "100820.705000", "100822.195000", "100823.685000", "100825.175000", "100826.665000", "100828.155000", "100829.645000", "100831.135000", "100832.625000", "100834.115000", "100835.605000", "100837.095000", "100838.585000", "100840.075000", "100841.565000", "100843.055000", "100844.545000", "100846.035000", "100847.525000", "100849.015000", "100850.505000", "100851.995000", "100853.485000", "100854.975000", "100856.465000", "100857.955000", "100859.445000", "100900.935000", "100902.425000", "100903.915000", "100905.405000", "100906.895000", "100908.385000", "100909.875000", "100911.365000", "100912.855000", "100914.345000", "100915.835000", "100917.325000", "100918.815000", "100920.305000", "100921.795000", "100923.285000", "100924.775000", "100926.265000", "100927.755000"],
      "ContentTime": ["100752.320000", "100752.323000", "100752.326000", "100752.330000", "100752.336000", "100752.339000", "100752.342000", "100752.345000", "100752.348000", "100752.351000", "100752.354000", "100752.357000", "100752.360000", "100752.363000", "100752.366000", "100752.368000", "100752.371000", "100752.374000", "100752.381000", "100752.384000", "100752.387000", "100752.390000", "100752.393000", "100752.396000", "100812.275000", "100812.278000", "100812.281000", "100812.284000", "100812.287000", "100812.290000", "100812.293000", "100812.296000", "100812.298000", "100812.301000", "100812.304000", "100812.307000", "100812.310000", "100812.321000", "100812.324000", "100812.327000", "100812.330000", "100812.333000", "100812.336000", "100812.339000", "100832.275000", "100832.278000", "100832.281000", "100832.284000", "100832.286000", "100832.289000", "100832.292000", "100832.295000", "100832.298000", "100832.301000", "100832.304000", "100832.307000", "100832.310000", "100832.313000", "100832.315000", "100832.318000", "100832.328000", "100832.330000", "100832.333000", "100832.336000", "100832.349000", "100852.274000", "100852.277000", "100852.280000", "100852.283000", "100852.286000", "100852.288000", "100852.291000", "100852.294000", "100852.297000", "100852.300000", "100852.303000", "100852.306000", "100852.309000", "100852.313000", "100852.316000", "100852.319000", "100852.322000", "100852.325000", "100852.328000", "100852.331000", "100912.274000", "100912.277000", "100912.280000", "100912.283000", "100912.285000", "100912.288000", "100912.291000", "100912.294000", "100912.297000", "100912.300000", "100912.303000", "100912.306000", "100912.308000", "100912.311000", "100912.314000", "100912.317000", "100912.320000", "100912.323000", "100912.326000", "100912.329000", "100930.172000", "100930.175000", "100930.178000", "100930.181000", "100930.184000", "100930.187000", "100930.189000", "100930.192000", "100930.195000", "100930.198000", "100930.201000", "100930.204000", "100930.207000", "100930.210000"],
      "InstanceCreationTime": ["100752.320000", "100752.323000", "100752.326000", "100752.330000", "100752.336000", "100752.339000", "100752.342000", "100752.345000", "100752.348000", "100752.351000", "100752.354000", "100752.357000", "100752.360000", "100752.363000", "100752.366000", "100752.368000", "100752.371000", "100752.374000", "100752.381000", "100752.384000", "100752.387000", "100752.390000", "100752.393000", "100752.396000", "100812.275000", "100812.278000", "100812.281000", "100812.284000", "100812.287000", "100812.290000", "100812.293000", "100812.296000", "100812.298000", "100812.301000", "100812.304000", "100812.307000", "100812.310000", "100812.321000", "100812.324000", "100812.327000", "100812.330000", "100812.333000", "100812.336000", "100812.339000", "100832.275000", "100832.278000", "100832.281000", "100832.284000", "100832.286000", "100832.289000", "100832.292000", "100832.295000", "100832.298000", "100832.301000", "100832.304000", "100832.307000", "100832.310000", "100832.313000", "100832.315000", "100832.318000", "100832.328000", "100832.330000", "100832.333000", "100832.336000", "100832.349000", "100852.274000", "100852.277000", "100852.280000", "100852.283000", "100852.286000", "100852.288000", "100852.291000", "100852.294000", "100852.297000", "100852.300000", "100852.303000", "100852.306000", "100852.309000", "100852.313000", "100852.316000", "100852.319000", "100852.322000", "100852.325000", "100852.328000", "100852.331000", "100912.274000", "100912.277000", "100912.280000", "100912.283000", "100912.285000", "100912.288000", "100912.291000", "100912.294000", "100912.297000", "100912.300000", "100912.303000", "100912.306000", "100912.308000", "100912.311000", "100912.314000", "100912.317000", "100912.320000", "100912.323000", "100912.326000", "100912.329000", "100930.172000", "100930.175000", "100930.178000", "100930.181000", "100930.184000", "100930.187000", "100930.189000", "100930.192000", "100930.195000", "100930.198000", "100930.201000", "100930.204000", "100930.207000", "100930.210000"],
      "InstanceNumber": [1, 2, 3, 4, 5, 6, 7, 8, 9, 10, 11, 12, 13, 14, 15, 16, 17, 18, 19, 20, 21, 22, 23, 24, 25, 26, 27, 28, 29, 30, 31, 32, 33, 34, 35, 36, 37, 38, 39, 40, 41, 42, 43, 44, 45, 46, 47, 48, 49, 50, 51, 52, 53, 54, 55, 56, 57, 58, 59, 60, 61, 62, 63, 64, 65, 66, 67, 68, 69, 70, 71, 72, 73, 74, 75, 76, 77, 78, 79, 80, 81, 82, 83, 84, 85, 86, 87, 88, 89, 90, 91, 92, 93, 94, 95, 96, 97, 98, 99, 100, 101, 102, 103, 104, 105, 106, 107, 108, 109, 110, 111, 112, 113, 114, 115, 116, 117, 118, 119],
      "LargestImagePixelValue": [55671, 54030, 53381, 53009, 52799, 53066, 52733, 52611, 52405, 52599, 52110, 51971, 52066, 52389, 52246, 52177, 52545, 52439, 52705, 52012, 52612, 52162, 52685, 52007, 51867, 52544, 52155, 52747, 52330, 52588, 52155, 52359, 52278, 52268, 52899, 52648, 52305, 52616, 52551, 52520, 52483, 52621, 52412, 52363, 52241, 52392, 52592, 52132, 52120, 51940, 52264, 52417, 52770, 52500, 52246, 52079, 52475, 52917, 52381, 52346, 52451, 52321, 52646, 52188, 52304, 52168, 51621, 51805, 51296, 51804, 51599, 51800, 52277, 52225, 52376, 52262, 52338, 52262, 52395, 52069, 51835, 52028, 52271, 51714, 52262, 51882, 51924, 51878, 51617, 52403, 52193, 52416, 52280, 52419, 52036, 51843, 51696, 51846, 51628, 51544, 51753, 51735, 51448, 51760, 51855, 52216, 52361, 52535, 52496, 52566, 52191, 52592, 52728, 52552, 52140, 52040, 52297, 52229, 52704],
      "WindowCenter": [10503.0, 10439.0, 10437.0, 10457.0, 10443.0, 10426.0, 10400.0, 10362.0, 10340.0, 10332.0, 10338.0, 10327.0, 10324.0, 10326.0, 10322.0, 10344.0, 10378.0, 10406.0, 10430.0, 10438.0, 10460.0, 10456.0, 10463.0, 10457.0, 10448.0, 10440.0, 10439.0, 10445.0, 10445.0, 10443.0, 10437.0, 10436.0, 10431.0, 10428.0, 10429.0, 10441.0, 10446.0, 10446.0, 10437.0, 10428.0, 10431.0, 10435.0, 10427.0, 10425.0, 10421.0, 10419.0, 10411.0, 10404.0, 10410.0, 10426.0, 10434.0, 10451.0, 10450.0, 10454.0, 10446.0, 10454.0, 10451.0, 10451.0, 10437.0, 10428.0, 10425.0, 10417.0, 10432.0, 10426.0, 10413.0, 10408.0, 10398.0, 10396.0, 10406.0, 10413.0, 10423.0, 10431.0, 10446.0, 10437.0, 10446.0, 10446.0, 10443.0, 10438.0, 10428.0, 10420.0, 10410.0, 10410.0, 10416.0, 10414.0, 10412.0, 10399.0, 10396.0, 10394.0, 10402.0, 10407.0, 10413.0, 10430.0, 10421.0, 10403.0, 10387.0, 10375.0, 10360.0, 10357.0, 10360.0, 10369.0, 10383.0, 10392.0, 10386.0, 10376.0, 10383.0, 10390.0, 10407.0, 10407.0, 10409.0, 10409.0, 10418.0, 10426.0, 10443.0, 10455.0, 10446.0, 10439.0, 10439.0, 10440.0, 10441.0],
      "WindowWidth": [22697.0, 22513.0, 22482.0, 22518.0, 22478.0, 22435.0, 22373.0, 22289.0, 22232.0, 22213.0, 22226.0, 22207.0, 22197.0, 22201.0, 22194.0, 22244.0, 22322.0, 22384.0, 22437.0, 22460.0, 22507.0, 22501.0, 22513.0, 22503.0, 22482.0, 22463.0, 22462.0, 22473.0, 22473.0, 22468.0, 22455.0, 22451.0, 22445.0, 22437.0, 22437.0, 22462.0, 22477.0, 22476.0, 22456.0, 22434.0, 22447.0, 22449.0, 22431.0, 22423.0, 22415.0, 22411.0, 22395.0, 22381.0, 22393.0, 22428.0, 22447.0, 22487.0, 22485.0, 22494.0, 22479.0, 22496.0, 22485.0, 22484.0, 22454.0, 22435.0, 22425.0, 22409.0, 22439.0, 22431.0, 22401.0, 22391.0, 22371.0, 22370.0, 22394.0, 22407.0, 22429.0, 22449.0, 22482.0, 22457.0, 22480.0, 22481.0, 22468.0, 22458.0, 22433.0, 22413.0, 22392.0, 22392.0, 22405.0, 22402.0, 22398.0, 22373.0, 22365.0, 22358.0, 22378.0, 22388.0, 22400.0, 22438.0, 22419.0, 22377.0, 22342.0, 22317.0, 22284.0, 22276.0, 22280.0, 22305.0, 22331.0, 22353.0, 22339.0, 22312.0, 22327.0, 22345.0, 22383.0, 22382.0, 22388.0, 22389.0, 22416.0, 22430.0, 22470.0, 22502.0, 22479.0, 22467.0, 22466.0, 22469.0, 22465.0]
    },
    "slices": {}
  }
}