{
  "AcquisitionMatrixPE": 104,
  "AcquisitionNumber": 1,
  "AcquisitionTime": "10:14:51.437500",
  "BandwidthPerPixelPhaseEncode": 17.17,
  "BaseResolution": 104,
  "BodyPartExamined": "BRAIN",
  "CoilString": "HC1-7;NC1_2",
  "ConsistencyInfo": "N4_VE11C_LATEST_20160120",
  "ConversionSoftware": "dcm2niix",
  "ConversionSoftwareVersion": "v1.0.20190720  (JP2:OpenJPEG) GCC7.3.0",
  "DerivedVendorReportedEchoSpacing": 0.000560011,
  "DeviceSerialNumber": "167006",
  "DwellTime": 2.1e-06,
  "EchoTime": 0.037,
  "EchoTrainLength": 104,
  "EffectiveEchoSpacing": 0.000560011,
  "FlipAngle": 52,
  "ImageComments": "Unaliased_MB4_PE3_LB",
  "ImageOrientationPatientDICOM": [0.999585, -0.0266973, 0.0107864, 0.028794, 0.926799, -0.374451],
  "ImageType": [
    "ORIGINAL",
    "PRIMARY",
    "M",
    "MB",
    "ND",
    "MOSAIC"
],
  "ImagingFrequency": 123.259,
  "InPlanePhaseEncodingDirectionDICOM": "COL",
  "InstitutionAddress": "Chemin_Queen-Mary_4565_Montreal_District_CA_H3W_1W5",
  "InstitutionName": "IUGM",
  "InstitutionalDepartmentName": "Department",
  "MRAcquisitionType": "2D",
  "MagneticFieldStrength": 3,
  "Manufacturer": "Siemens",
  "ManufacturersModelName": "Prisma_fit",
  "Modality": "MR",
  "MultibandAccelerationFactor": 4,
  "PartialFourier": 1,
  "PatientPosition": "HFS",
  "PercentPhaseFOV": 100,
  "PhaseEncodingDirection": "j",
  "PhaseEncodingSteps": 104,
  "PhaseResolution": 1,
  "PixelBandwidth": 2290,
  "ProcedureStepDescription": "hcptrt_generic",
  "ProtocolName": "func_task-motor_run-1",
  "PulseSequenceDetails": "%CustomerSeq%_cmrr_mbep2d_bold",
  "ReceiveCoilActiveElements": "HC1-7;NC1,2",
  "ReceiveCoilName": "HeadNeck_64",
  "ReconMatrixPE": 104,
  "RepetitionTime": 1.49,
  "SAR": 0.0346145,
  "ScanOptions": "FS",
  "ScanningSequence": "EP",
  "SequenceName": "epfid2d1_104",
  "SequenceVariant": "SK_SS",
  "SeriesDescription": "func_task-motor_run-1",
  "SeriesNumber": 15,
  "ShimSetting": [609, -7258, -8868, 381, 42, -480, -9, 30],
  "SliceThickness": 2,
  "SliceTiming": [0, 0.785, 0.0975, 0.8825, 0.1975, 0.98, 0.295, 1.0775, 0.3925, 1.1775, 0.49, 1.275, 0.5875, 1.3725, 0.6875, 0, 0.785, 0.0975, 0.8825, 0.1975, 0.98, 0.295, 1.0775, 0.3925, 1.1775, 0.49, 1.275, 0.5875, 1.3725, 0.6875, 0, 0.785, 0.0975, 0.8825, 0.1975, 0.98, 0.295, 1.0775, 0.3925, 1.1775, 0.49, 1.275, 0.5875, 1.3725, 0.6875, 0, 0.785, 0.0975, 0.8825, 0.1975, 0.98, 0.295, 1.0775, 0.3925, 1.1775, 0.49, 1.275, 0.5875, 1.3725, 0.6875],
  "SoftwareVersions": "syngo_MR_E11",
  "SpacingBetweenSlices": 2,
  "StationName": "MRC35049",
  "TaskName": "motor",
  "TotalReadoutTime": 0.0576811,
  "TxRefAmp": 238.96,
  "WipMemBlock": "45c748e9-237f-4fa8-b756-bd767338398a||Sequence: R016 ve11c/master r/e634e98; Dec 19 2017 11:00:25 by eja",
  "dcmmeta_affine": [
    [-1.9991707801818848, 0.05758797749876976, 1.0379200610088901e-08, 99.09239196777344],
    [0.05339463800191879, 1.8535988330841064, -0.7492132186889648, -69.23971557617188],
    [0.021572845056653023, 0.7489025592803955, 1.854367733001709, -81.56385803222656],
    [0.0, 0.0, 0.0, 1.0]
],
  "dcmmeta_reorient_transform": [
    [0.0, -1.0, 0.0, 103.0],
    [1.0, 0.0, 0.0, 0.0],
    [0.0, 0.0, 1.0, 0.0],
    [0.0, 0.0, 0.0, 1.0]
],
  "dcmmeta_shape": [104, 104, 60, 144],
  "dcmmeta_slice_dim": 2,
  "dcmmeta_version": 0.6,
  "global": {
    "const": {
      "AcquisitionMatrix": [104, 0, 0, 104],
      "AngioFlag": "N",
      "BitsAllocated": 16,
      "BitsStored": 16,
      "BodyPartExamined": "BRAIN",
      "Columns": 832,
      "EchoNumbers": 1,
      "EchoTime": 37.0,
      "EchoTrainLength": 104,
      "FlipAngle": 52.0,
      "HighBit": 15,
      "ImageOrientationPatient": [0.99958536714409, -0.0266973195487, 0.01078642296251, 0.02879398880687, 0.92679941240095, -0.3744512723731],
      "ImagePositionPatient": [-853.68412700269, -776.95528617802, 260.32111164932],
      "ImageType": [
        "ORIGINAL",
        "PRIMARY",
        "M",
        "MB",
        "ND",
        "MOSAIC"
],
      "ImagedNucleus": "1H",
      "ImagingFrequency": 123.259279,
      "InPlanePhaseEncodingDirection": "COL",
      "MRAcquisitionType": "2D",
      "MagneticFieldStrength": 3.0,
      "Manufacturer": "SIEMENS",
      "ManufacturerModelName": "Prisma_fit",
      "Modality": "MR",
      "NumberOfAverages": 1.0,
      "NumberOfPhaseEncodingSteps": 104,
      "PercentPhaseFieldOfView": 100.0,
      "PercentSampling": 100.0,
      "PerformedProcedureStepStartTime": "091553.600000",
      "PhotometricInterpretation": "MONOCHROME2",
      "PixelBandwidth": 2290.0,
      "PixelRepresentation": 0,
      "PixelSpacing": [2.0, 2.0],
      "ProtocolName": "func_task-motor_run-1",
      "RepetitionTime": 1490.0,
      "Rows": 832,
      "SAR": 0.03461446225351,
      "SamplesPerPixel": 1,
      "ScanOptions": "FS",
      "ScanningSequence": "EP",
      "SequenceName": "epfid2d1_104",
      "SequenceVariant": [
        "SK",
        "SS"
],
      "SeriesDescription": "func_task-motor_run-1",
      "SeriesNumber": 15,
      "SeriesTime": "101552.456000",
      "SliceLocation": -49.687039747185,
      "SliceThickness": 2.0,
      "SmallestImagePixelValue": 0,
      "SoftwareVersions": "syngo MR E11",
      "SpacingBetweenSlices": 2.0000000084052,
      "SpecificCharacterSet": "ISO_IR 100",
      "StudyID": "1",
      "StudyTime": "091553.432000",
      "TransmitCoilName": "Body",
      "VariableFlipAngleFlag": "N",
      "WindowCenterWidthExplanation": "Algo1",
      "dBdt": 0.0},
    "slices": {}
  },
  "time": {
    "samples": {
      "AcquisitionNumber": [1, 2, 3, 4, 5, 6, 7, 8, 9, 10, 11, 12, 13, 14, 15, 16, 17, 18, 19, 20, 21, 22, 23, 24, 25, 26, 27, 28, 29, 30, 31, 32, 33, 34, 35, 36, 37, 38, 39, 40, 41, 42, 43, 44, 45, 46, 47, 48, 49, 50, 51, 52, 53, 54, 55, 56, 57, 58, 59, 60, 61, 62, 63, 64, 65, 66, 67, 68, 69, 70, 71, 72, 73, 74, 75, 76, 77, 78, 79, 80, 81, 82, 83, 84, 85, 86, 87, 88, 89, 90, 91, 92, 93, 94, 95, 96, 97, 98, 99, 100, 101, 102, 103, 104, 105, 106, 107, 108, 109, 110, 111, 112, 113, 114, 115, 116, 117, 118, 119, 120, 121, 122, 123, 124, 125, 126, 127, 128, 129, 130, 131, 132, 133, 134, 135, 136, 137, 138, 139, 140, 141, 142, 143, 144],
      "AcquisitionTime": ["101451.437500", "101452.927500", "101454.417500", "101455.907500", "101457.397500", "101458.887500", "101500.377500", "101501.867500", "101503.357500", "101504.847500", "101506.337500", "101507.827500", "101509.317500", "101510.807500", "101512.297500", "101513.787500", "101515.277500", "101516.767500", "101518.257500", "101519.747500", "101521.237500", "101522.727500", "101524.217500", "101525.707500", "101527.197500", "101528.687500", "101530.177500", "101531.667500", "101533.157500", "101534.647500", "101536.137500", "101537.627500", "101539.117500", "101540.607500", "101542.097500", "101543.587500", "101545.077500", "101546.567500", "101548.057500", "101549.547500", "101551.037500", "101552.527500", "101554.017500", "101555.507500", "101556.997500", "101558.487500", "101559.977500", "101601.467500", "101602.957500", "101604.447500", "101605.937500", "101607.427500", "101608.917500", "101610.407500", "101611.897500", "101613.387500", "101614.877500", "101616.367500", "101617.857500", "101619.347500", "101620.837500", "101622.327500", "101623.817500", "101625.307500", "101626.797500", "101628.287500", "101629.777500", "101631.267500", "101632.757500", "101634.247500", "101635.737500", "101637.227500", "101638.717500", "101640.207500", "101641.697500", "101643.187500", "101644.677500", "101646.167500", "101647.657500", "101649.147500", "101650.637500", "101652.127500", "101653.617500", "101655.107500", "101656.597500", "101658.087500", "101659.577500", "101701.067500", "101702.557500", "101704.047500", "101705.537500", "101707.027500", "101708.517500", "101710.007500", "101711.497500", "101712.987500", "101714.477500", "101715.967500", "101717.457500", "101718.947500", "101720.437500", "101721.927500", "101723.417500", "101724.907500", "101726.397500", "101727.887500", "101729.377500", "101730.867500", "101732.357500", "101733.847500", "101735.337500", "101736.827500", "101738.317500", "101739.807500", "101741.297500", "101742.787500", "101744.277500", "101745.767500", "101747.257500", "101748.747500", "101750.237500", "101751.727500", "101753.217500", "101754.707500", "101756.197500", "101757.687500", "101759.177500", "101800.667500", "101802.157500", "101803.647500", "101805.137500", "101806.627500", "101808.117500", "101809.607500", "101811.097500", "101812.587500", "101814.077500", "101815.567500", "101817.057500", "101818.547500", "101820.037500", "101821.527500", "101823.017500", "101824.507500"],
      "ContentTime": ["101552.460000", "101552.463000", "101552.466000", "101552.472000", "101552.475000", "101552.478000", "101552.480000", "101552.483000", "101612.413000", "101612.416000", "101612.419000", "101612.422000", "101612.425000", "101612.428000", "101612.430000", "101612.437000", "101612.439000", "101612.442000", "101612.445000", "101612.448000", "101612.451000", "101612.454000", "101612.457000", "101612.459000", "101612.462000", "101612.465000", "101612.468000", "101612.471000", "101632.414000", "101632.417000", "101632.420000", "101632.423000", "101632.426000", "101632.428000", "101632.431000", "101632.434000", "101632.437000", "101632.440000", "101632.443000", "101632.446000", "101632.455000", "101632.458000", "101632.460000", "101632.463000", "101632.466000", "101632.469000", "101632.472000", "101632.475000", "101652.414000", "101652.417000", "101652.420000", "101652.423000", "101652.426000", "101652.428000", "101652.431000", "101652.449000", "101652.452000", "101652.461000", "101652.464000", "101652.466000", "101652.469000", "101652.472000", "101652.475000", "101652.478000", "101652.481000", "101652.484000", "101652.487000", "101652.490000", "101712.414000", "101712.417000", "101712.420000", "101712.423000", "101712.426000", "101712.428000", "101712.431000", "101712.434000", "101712.437000", "101712.440000", "101712.443000", "101712.446000", "101712.449000", "101712.451000", "101712.454000", "101712.457000", "101712.460000", "101712.463000", "101712.466000", "101712.468000", "101752.414000", "101752.425000", "101752.428000", "101752.431000", "101752.433000", "101752.436000", "101752.439000", "101752.442000", "101752.445000", "101752.448000", "101752.451000", "101752.454000", "101752.456000", "101752.459000", "101752.462000", "101752.465000", "101752.468000", "101752.471000", "101752.474000", "101752.477000", "101752.480000", "101752.483000", "101752.487000", "101752.490000", "101752.493000", "101752.496000", "101752.501000", "101752.503000", "101752.506000", "101752.509000", "101752.512000", "101752.515000", "101826.941000", "101826.945000", "101826.948000", "101826.951000", "101826.954000", "101826.957000", "101826.963000", "101826.966000", "101826.969000", "101826.972000", "101826.976000", "101826.979000", "101826.983000", "101826.986000", "101826.990000", "101826.994000", "101826.997000", "101827.002000", "101827.006000", "101827.010000", "101827.013000", "101827.017000", "101827.020000", "101827.024000"],
      "InstanceCreationTime": ["101552.460000", "101552.463000", "101552.466000", "101552.472000", "101552.475000", "101552.478000", "101552.480000", "101552.483000", "101612.413000", "101612.416000", "101612.419000", "101612.422000", "101612.425000", "101612.428000", "101612.430000", "101612.437000", "101612.439000", "101612.442000", "101612.445000", "101612.448000", "101612.451000", "101612.454000", "101612.457000", "101612.459000", "101612.462000", "101612.465000", "101612.468000", "101612.471000", "101632.414000", "101632.417000", "101632.420000", "101632.423000", "101632.426000", "101632.428000", "101632.431000", "101632.434000", "101632.437000", "101632.440000", "101632.443000", "101632.446000", "101632.455000", "101632.458000", "101632.460000", "101632.463000", "101632.466000", "101632.469000", "101632.472000", "101632.475000", "101652.414000", "101652.417000", "101652.420000", "101652.423000", "101652.426000", "101652.428000", "101652.431000", "101652.449000", "101652.452000", "101652.461000", "101652.464000", "101652.466000", "101652.469000", "101652.472000", "101652.475000", "101652.478000", "101652.481000", "101652.484000", "101652.487000", "101652.490000", "101712.414000", "101712.417000", "101712.420000", "101712.423000", "101712.426000", "101712.428000", "101712.431000", "101712.434000", "101712.437000", "101712.440000", "101712.443000", "101712.446000", "101712.449000", "101712.451000", "101712.454000", "101712.457000", "101712.460000", "101712.463000", "101712.466000", "101712.468000", "101752.414000", "101752.425000", "101752.428000", "101752.431000", "101752.433000", "101752.436000", "101752.439000", "101752.442000", "101752.445000", "101752.448000", "101752.451000", "101752.454000", "101752.456000", "101752.459000", "101752.462000", "101752.465000", "101752.468000", "101752.471000", "101752.474000", "101752.477000", "101752.480000", "101752.483000", "101752.487000", "101752.490000", "101752.493000", "101752.496000", "101752.501000", "101752.503000", "101752.506000", "101752.509000", "101752.512000", "101752.515000", "101826.941000", "101826.945000", "101826.948000", "101826.951000", "101826.954000", "101826.957000", "101826.963000", "101826.966000", "101826.969000", "101826.972000", "101826.976000", "101826.979000", "101826.983000", "101826.986000", "101826.990000", "101826.994000", "101826.997000", "101827.002000", "101827.006000", "101827.010000", "101827.013000", "101827.017000", "101827.020000", "101827.024000"],
      "InstanceNumber": [1, 2, 3, 4, 5, 6, 7, 8, 9, 10, 11, 12, 13, 14, 15, 16, 17, 18, 19, 20, 21, 22, 23, 24, 25, 26, 27, 28, 29, 30, 31, 32, 33, 34, 35, 36, 37, 38, 39, 40, 41, 42, 43, 44, 45, 46, 47, 48, 49, 50, 51, 52, 53, 54, 55, 56, 57, 58, 59, 60, 61, 62, 63, 64, 65, 66, 67, 68, 69, 70, 71, 72, 73, 74, 75, 76, 77, 78, 79, 80, 81, 82, 83, 84, 85, 86, 87, 88, 89, 90, 91, 92, 93, 94, 95, 96, 97, 98, 99, 100, 101, 102, 103, 104, 105, 106, 107, 108, 109, 110, 111, 112, 113, 114, 115, 116, 117, 118, 119, 120, 121, 122, 123, 124, 125, 126, 127, 128, 129, 130, 131, 132, 133, 134, 135, 136, 137, 138, 139, 140, 141, 142, 143, 144],
      "LargestImagePixelValue": [56028, 54400, 53683, 52963, 52603, 52364, 52020, 51723, 52040, 51954, 51971, 52167, 51758, 52076, 51878, 52023, 52138, 52162, 52164, 52296, 52320, 52186, 51784, 52369, 52439, 52056, 51908, 52506, 52005, 52717, 52879, 52277, 52331, 52189, 52530, 52279, 52692, 52271, 52663, 52238, 52132, 51948, 52270, 52266, 52312, 51897, 52205, 51856, 52411, 52168, 52438, 52331, 51769, 51586, 51063, 52314, 51961, 52500, 52137, 52283, 52229, 51831, 52458, 52346, 52377, 52189, 51628, 52784, 52115, 51966, 52116, 52270, 52072, 52209, 51975, 52286, 51960, 52415, 51786, 52105, 51326, 51684, 52071, 52135, 51731, 51002, 51718, 51947, 51725, 51830, 51985, 51499, 51878, 51398, 51643, 51907, 52049, 51763, 51900, 52205, 51968, 51856, 51960, 51525, 51288, 51847, 51937, 51322, 51621, 51832, 51530, 51460, 51239, 51200, 51148, 51737, 51727, 51434, 51904, 51963, 51670, 51792, 52515, 52095, 52461, 52469, 52502, 53060, 52695, 52780, 53367, 53284, 53408, 53655, 53211, 53190, 53324, 53239, 53507, 53491, 53270, 53458, 53246, 52996],
      "WindowCenter": [10433.0, 10383.0, 10369.0, 10360.0, 10333.0, 10312.0, 10305.0, 10301.0, 10297.0, 10289.0, 10289.0, 10303.0, 10298.0, 10290.0, 10298.0, 10316.0, 10330.0, 10332.0, 10338.0, 10348.0, 10348.0, 10349.0, 10348.0, 10344.0, 10350.0, 10361.0, 10362.0, 10353.0, 10342.0, 10339.0, 10346.0, 10356.0, 10369.0, 10386.0, 10396.0, 10390.0, 10378.0, 10356.0, 10357.0, 10358.0, 10379.0, 10406.0, 10426.0, 10423.0, 10409.0, 10391.0, 10381.0, 10379.0, 10387.0, 10379.0, 10388.0, 10396.0, 10406.0, 10394.0, 10364.0, 10354.0, 10357.0, 10347.0, 10316.0, 10280.0, 10251.0, 10232.0, 10244.0, 10276.0, 10305.0, 10323.0, 10321.0, 10342.0, 10361.0, 10379.0, 10382.0, 10365.0, 10366.0, 10379.0, 10384.0, 10381.0, 10385.0, 10413.0, 10422.0, 10411.0, 10382.0, 10371.0, 10366.0, 10365.0, 10355.0, 10359.0, 10397.0, 10419.0, 10420.0, 10403.0, 10387.0, 10376.0, 10377.0, 10410.0, 10416.0, 10398.0, 10363.0, 10342.0, 10339.0, 10354.0, 10373.0, 10375.0, 10366.0, 10359.0, 10351.0, 10365.0, 10376.0, 10378.0, 10386.0, 10381.0, 10374.0, 10376.0, 10387.0, 10391.0, 10388.0, 10396.0, 10383.0, 10384.0, 10405.0, 10397.0, 10381.0, 10364.0, 10352.0, 10334.0, 10338.0, 10363.0, 10400.0, 10419.0, 10401.0, 10387.0, 10380.0, 10371.0, 10362.0, 10364.0, 10355.0, 10353.0, 10352.0, 10346.0, 10350.0, 10350.0, 10352.0, 10351.0, 10353.0, 10352.0],
      "WindowWidth": [22522.0, 22370.0, 22320.0, 22280.0, 22215.0, 22159.0, 22139.0, 22135.0, 22122.0, 22103.0, 22104.0, 22136.0, 22126.0, 22109.0, 22129.0, 22172.0, 22203.0, 22207.0, 22218.0, 22246.0, 22245.0, 22247.0, 22242.0, 22231.0, 22242.0, 22271.0, 22273.0, 22253.0, 22230.0, 22221.0, 22237.0, 22260.0, 22288.0, 22325.0, 22350.0, 22339.0, 22308.0, 22263.0, 22262.0, 22263.0, 22311.0, 22374.0, 22421.0, 22413.0, 22380.0, 22341.0, 22319.0, 22314.0, 22332.0, 22314.0, 22334.0, 22350.0, 22380.0, 22354.0, 22290.0, 22258.0, 22264.0, 22239.0, 22170.0, 22086.0, 22020.0, 21977.0, 22003.0, 22076.0, 22143.0, 22183.0, 22181.0, 22224.0, 22269.0, 22313.0, 22320.0, 22278.0, 22284.0, 22314.0, 22330.0, 22317.0, 22329.0, 22391.0, 22414.0, 22388.0, 22325.0, 22304.0, 22290.0, 22291.0, 22260.0, 22278.0, 22357.0, 22413.0, 22416.0, 22375.0, 22341.0, 22309.0, 22311.0, 22389.0, 22406.0, 22364.0, 22281.0, 22230.0, 22223.0, 22254.0, 22303.0, 22309.0, 22285.0, 22273.0, 22258.0, 22284.0, 22312.0, 22317.0, 22336.0, 22317.0, 22302.0, 22308.0, 22338.0, 22349.0, 22341.0, 22357.0, 22323.0, 22323.0, 22373.0, 22356.0, 22325.0, 22286.0, 22257.0, 22214.0, 22216.0, 22272.0, 22356.0, 22398.0, 22355.0, 22323.0, 22305.0, 22287.0, 22267.0, 22267.0, 22252.0, 22245.0, 22242.0, 22229.0, 22237.0, 22237.0, 22241.0, 22239.0, 22248.0, 22243.0]
    },
    "slices": {}
  }
}