{
  "AcquisitionMatrixPE": 104,
  "AcquisitionNumber": 1,
  "AcquisitionTime": "10:45:4.770000",
  "BandwidthPerPixelPhaseEncode": 17.17,
  "BaseResolution": 104,
  "BodyPartExamined": "BRAIN",
  "CoilString": "HC1-7;NC1_2",
  "ConsistencyInfo": "N4_VE11C_LATEST_20160120",
  "ConversionSoftware": "dcm2niix",
  "ConversionSoftwareVersion": "v1.0.20190720  (JP2:OpenJPEG) GCC7.3.0",
  "DerivedVendorReportedEchoSpacing": 0.000560011,
  "DeviceSerialNumber": "167006",
  "DwellTime": 2.1e-06,
  "EchoTime": 0.037,
  "EchoTrainLength": 104,
  "EffectiveEchoSpacing": 0.000560011,
  "FlipAngle": 52,
  "ImageComments": "Unaliased_MB4_PE3_LB",
  "ImageOrientationPatientDICOM": [0.999585, -0.0266973, 0.0107864, 0.028794, 0.926799, -0.374451],
  "ImageType": [
    "ORIGINAL",
    "PRIMARY",
    "M",
    "MB",
    "ND",
    "MOSAIC"
],
  "ImagingFrequency": 123.259,
  "InPlanePhaseEncodingDirectionDICOM": "COL",
  "InstitutionAddress": "Chemin_Queen-Mary_4565_Montreal_District_CA_H3W_1W5",
  "InstitutionName": "IUGM",
  "InstitutionalDepartmentName": "Department",
  "MRAcquisitionType": "2D",
  "MagneticFieldStrength": 3,
  "Manufacturer": "Siemens",
  "ManufacturersModelName": "Prisma_fit",
  "Modality": "MR",
  "MultibandAccelerationFactor": 4,
  "PartialFourier": 1,
  "PatientPosition": "HFS",
  "PercentPhaseFOV": 100,
  "PhaseEncodingDirection": "j",
  "PhaseEncodingSteps": 104,
  "PhaseResolution": 1,
  "PixelBandwidth": 2290,
  "ProcedureStepDescription": "hcptrt_generic",
  "ProtocolName": "func_task-language_run-2",
  "PulseSequenceDetails": "%CustomerSeq%_cmrr_mbep2d_bold",
  "ReceiveCoilActiveElements": "HC1-7;NC1,2",
  "ReceiveCoilName": "HeadNeck_64",
  "ReconMatrixPE": 104,
  "RepetitionTime": 1.49,
  "SAR": 0.034657,
  "ScanOptions": "FS",
  "ScanningSequence": "EP",
  "SequenceName": "epfid2d1_104",
  "SequenceVariant": "SK_SS",
  "SeriesDescription": "func_task-language_run-2",
  "SeriesNumber": 29,
  "ShimSetting": [609, -7258, -8868, 381, 42, -480, -9, 30],
  "SliceThickness": 2,
  "SliceTiming": [0, 0.7825, 0.0975, 0.88, 0.195, 0.98, 0.2925, 1.0775, 0.39, 1.175, 0.49, 1.2725, 0.5875, 1.37, 0.685, 0, 0.7825, 0.0975, 0.88, 0.195, 0.98, 0.2925, 1.0775, 0.39, 1.175, 0.49, 1.2725, 0.5875, 1.37, 0.685, 0, 0.7825, 0.0975, 0.88, 0.195, 0.98, 0.2925, 1.0775, 0.39, 1.175, 0.49, 1.2725, 0.5875, 1.37, 0.685, 0, 0.7825, 0.0975, 0.88, 0.195, 0.98, 0.2925, 1.0775, 0.39, 1.175, 0.49, 1.2725, 0.5875, 1.37, 0.685],
  "SoftwareVersions": "syngo_MR_E11",
  "SpacingBetweenSlices": 2,
  "StationName": "MRC35049",
  "TaskName": "language",
  "TotalReadoutTime": 0.0576811,
  "TxRefAmp": 238.96,
  "WipMemBlock": "4fc7b6dd-3a9c-460d-8fbb-8c6e2f6136fd||Sequence: R016 ve11c/master r/e634e98; Dec 19 2017 11:00:25 by eja",
  "dcmmeta_affine": [
    [-1.9991707801818848, 0.05758797749876976, 1.0379200610088901e-08, 99.09239196777344],
    [0.05339463800191879, 1.8535988330841064, -0.7492132186889648, -69.23971557617188],
    [0.021572845056653023, 0.7489025592803955, 1.854367733001709, -81.56385803222656],
    [0.0, 0.0, 0.0, 1.0]
],
  "dcmmeta_reorient_transform": [
    [0.0, -1.0, 0.0, 103.0],
    [1.0, 0.0, 0.0, 0.0],
    [0.0, 0.0, 1.0, 0.0],
    [0.0, 0.0, 0.0, 1.0]
],
  "dcmmeta_shape": [104, 104, 60, 159],
  "dcmmeta_slice_dim": 2,
  "dcmmeta_version": 0.6,
  "global": {
    "const": {
      "AcquisitionMatrix": [104, 0, 0, 104],
      "AngioFlag": "N",
      "BitsAllocated": 16,
      "BitsStored": 16,
      "BodyPartExamined": "BRAIN",
      "Columns": 832,
      "EchoNumbers": 1,
      "EchoTime": 37.0,
      "EchoTrainLength": 104,
      "FlipAngle": 52.0,
      "HighBit": 15,
      "ImageOrientationPatient": [0.99958536714409, -0.0266973195487, 0.01078642296251, 0.02879398880687, 0.92679941240095, -0.3744512723731],
      "ImagePositionPatient": [-853.68412700269, -776.95528617802, 260.32111164932],
      "ImageType": [
        "ORIGINAL",
        "PRIMARY",
        "M",
        "MB",
        "ND",
        "MOSAIC"
],
      "ImagedNucleus": "1H",
      "ImagingFrequency": 123.259287,
      "InPlanePhaseEncodingDirection": "COL",
      "MRAcquisitionType": "2D",
      "MagneticFieldStrength": 3.0,
      "Manufacturer": "SIEMENS",
      "ManufacturerModelName": "Prisma_fit",
      "Modality": "MR",
      "NumberOfAverages": 1.0,
      "NumberOfPhaseEncodingSteps": 104,
      "PercentPhaseFieldOfView": 100.0,
      "PercentSampling": 100.0,
      "PerformedProcedureStepStartTime": "091553.600000",
      "PhotometricInterpretation": "MONOCHROME2",
      "PixelBandwidth": 2290.0,
      "PixelRepresentation": 0,
      "PixelSpacing": [2.0, 2.0],
      "ProtocolName": "func_task-language_run-2",
      "RepetitionTime": 1490.0,
      "Rows": 832,
      "SAR": 0.03465700134548,
      "SamplesPerPixel": 1,
      "ScanOptions": "FS",
      "ScanningSequence": "EP",
      "SequenceName": "epfid2d1_104",
      "SequenceVariant": [
        "SK",
        "SS"
],
      "SeriesDescription": "func_task-language_run-2",
      "SeriesNumber": 29,
      "SeriesTime": "104612.320000",
      "SliceLocation": -49.687039747185,
      "SliceThickness": 2.0,
      "SmallestImagePixelValue": 0,
      "SoftwareVersions": "syngo MR E11",
      "SpacingBetweenSlices": 2.0000000084052,
      "SpecificCharacterSet": "ISO_IR 100",
      "StudyID": "1",
      "StudyTime": "091553.432000",
      "TransmitCoilName": "Body",
      "VariableFlipAngleFlag": "N",
      "WindowCenterWidthExplanation": "Algo1",
      "dBdt": 0.0},
    "slices": {}
  },
  "time": {
    "samples": {
      "AcquisitionNumber": [1, 2, 3, 4, 5, 6, 7, 8, 9, 10, 11, 12, 13, 14, 15, 16, 17, 18, 19, 20, 21, 22, 23, 24, 25, 26, 27, 28, 29, 30, 31, 32, 33, 34, 35, 36, 37, 38, 39, 40, 41, 42, 43, 44, 45, 46, 47, 48, 49, 50, 51, 52, 53, 54, 55, 56, 57, 58, 59, 60, 61, 62, 63, 64, 65, 66, 67, 68, 69, 70, 71, 72, 73, 74, 75, 76, 77, 78, 79, 80, 81, 82, 83, 84, 85, 86, 87, 88, 89, 90, 91, 92, 93, 94, 95, 96, 97, 98, 99, 100, 101, 102, 103, 104, 105, 106, 107, 108, 109, 110, 111, 112, 113, 114, 115, 116, 117, 118, 119, 120, 121, 122, 123, 124, 125, 126, 127, 128, 129, 130, 131, 132, 133, 134, 135, 136, 137, 138, 139, 140, 141, 142, 143, 144, 145, 146, 147, 148, 149, 150, 151, 152, 153, 154, 155, 156, 157, 158, 159],
      "AcquisitionTime": ["104504.770000", "104506.260000", "104507.750000", "104509.240000", "104510.730000", "104512.220000", "104513.710000", "104515.200000", "104516.690000", "104518.180000", "104519.670000", "104521.160000", "104522.650000", "104524.140000", "104525.630000", "104527.120000", "104528.610000", "104530.100000", "104531.590000", "104533.080000", "104534.570000", "104536.060000", "104537.550000", "104539.040000", "104540.530000", "104542.020000", "104543.510000", "104545.000000", "104546.490000", "104547.980000", "104549.470000", "104550.960000", "104552.450000", "104553.940000", "104555.430000", "104556.920000", "104558.410000", "104559.900000", "104601.390000", "104602.880000", "104604.370000", "104605.860000", "104607.350000", "104608.840000", "104610.330000", "104611.820000", "104613.310000", "104614.800000", "104616.290000", "104617.780000", "104619.270000", "104620.760000", "104622.250000", "104623.740000", "104625.230000", "104626.720000", "104628.210000", "104629.700000", "104631.190000", "104632.680000", "104634.170000", "104635.660000", "104637.150000", "104638.640000", "104640.130000", "104641.620000", "104643.110000", "104644.600000", "104646.090000", "104647.580000", "104649.070000", "104650.560000", "104652.050000", "104653.540000", "104655.030000", "104656.520000", "104658.010000", "104659.500000", "104700.990000", "104702.480000", "104703.970000", "104705.460000", "104706.950000", "104708.440000", "104709.930000", "104711.420000", "104712.910000", "104714.400000", "104715.890000", "104717.380000", "104718.870000", "104720.360000", "104721.850000", "104723.340000", "104724.830000", "104726.320000", "104727.810000", "104729.300000", "104730.790000", "104732.280000", "104733.770000", "104735.260000", "104736.750000", "104738.240000", "104739.730000", "104741.220000", "104742.710000", "104744.200000", "104745.690000", "104747.180000", "104748.670000", "104750.160000", "104751.650000", "104753.140000", "104754.630000", "104756.120000", "104757.610000", "104759.100000", "104800.590000", "104802.080000", "104803.570000", "104805.060000", "104806.550000", "104808.040000", "104809.530000", "104811.020000", "104812.510000", "104814.000000", "104815.490000", "104816.980000", "104818.470000", "104819.960000", "104821.450000", "104822.940000", "104824.430000", "104825.920000", "104827.410000", "104828.900000", "104830.390000", "104831.880000", "104833.370000", "104834.860000", "104836.350000", "104837.840000", "104839.330000", "104840.820000", "104842.310000", "104843.800000", "104845.290000", "104846.780000", "104848.270000", "104849.760000", "104851.250000", "104852.740000", "104854.230000", "104855.720000", "104857.210000", "104858.700000", "104900.190000"],
      "ContentTime": ["104612.323000", "104612.326000", "104612.329000", "104612.332000", "104612.335000", "104612.345000", "104612.348000", "104612.351000", "104612.360000", "104612.363000", "104612.366000", "104612.369000", "104632.274000", "104632.277000", "104632.280000", "104632.283000", "104632.286000", "104632.292000", "104632.296000", "104632.299000", "104632.302000", "104632.305000", "104632.308000", "104632.311000", "104632.314000", "104632.317000", "104632.319000", "104632.322000", "104632.325000", "104632.328000", "104632.331000", "104632.334000", "104652.275000", "104652.278000", "104652.281000", "104652.284000", "104652.286000", "104652.289000", "104652.292000", "104652.295000", "104652.298000", "104652.301000", "104652.304000", "104652.307000", "104652.309000", "104652.312000", "104652.315000", "104652.318000", "104652.321000", "104652.324000", "104652.327000", "104652.329000", "104712.275000", "104712.278000", "104712.281000", "104712.284000", "104712.287000", "104712.290000", "104712.293000", "104712.296000", "104712.298000", "104712.301000", "104712.304000", "104712.307000", "104712.310000", "104712.313000", "104712.316000", "104712.319000", "104712.322000", "104712.324000", "104712.327000", "104712.330000", "104732.275000", "104732.278000", "104732.281000", "104732.284000", "104732.287000", "104732.290000", "104732.293000", "104732.296000", "104732.298000", "104732.301000", "104732.304000", "104732.307000", "104732.310000", "104732.313000", "104732.316000", "104732.319000", "104732.322000", "104732.324000", "104732.327000", "104732.330000", "104752.275000", "104752.278000", "104752.281000", "104752.284000", "104752.287000", "104752.290000", "104752.293000", "104752.295000", "104752.298000", "104752.301000", "104752.304000", "104752.307000", "104752.312000", "104752.315000", "104752.318000", "104752.321000", "104752.324000", "104752.327000", "104752.330000", "104752.333000", "104832.274000", "104832.277000", "104832.280000", "104832.283000", "104832.286000", "104832.289000", "104832.292000", "104832.295000", "104832.298000", "104832.301000", "104832.304000", "104832.307000", "104832.310000", "104832.313000", "104832.326000", "104832.329000", "104832.332000", "104832.335000", "104832.337000", "104832.340000", "104832.343000", "104832.346000", "104832.349000", "104832.352000", "104832.355000", "104832.358000", "104902.291000", "104902.294000", "104902.297000", "104902.300000", "104902.303000", "104902.306000", "104902.309000", "104902.312000", "104902.315000", "104902.321000", "104902.324000", "104902.327000", "104902.329000", "104902.332000", "104902.335000", "104902.338000", "104902.341000", "104902.344000", "104902.347000", "104902.350000", "104902.353000"],
      "InstanceCreationTime": ["104612.323000", "104612.326000", "104612.329000", "104612.332000", "104612.335000", "104612.345000", "104612.348000", "104612.351000", "104612.360000", "104612.363000", "104612.366000", "104612.369000", "104632.274000", "104632.277000", "104632.280000", "104632.283000", "104632.286000", "104632.292000", "104632.296000", "104632.299000", "104632.302000", "104632.305000", "104632.308000", "104632.311000", "104632.314000", "104632.317000", "104632.319000", "104632.322000", "104632.325000", "104632.328000", "104632.331000", "104632.334000", "104652.275000", "104652.278000", "104652.281000", "104652.284000", "104652.286000", "104652.289000", "104652.292000", "104652.295000", "104652.298000", "104652.301000", "104652.304000", "104652.307000", "104652.309000", "104652.312000", "104652.315000", "104652.318000", "104652.321000", "104652.324000", "104652.327000", "104652.329000", "104712.275000", "104712.278000", "104712.281000", "104712.284000", "104712.287000", "104712.290000", "104712.293000", "104712.296000", "104712.298000", "104712.301000", "104712.304000", "104712.307000", "104712.310000", "104712.313000", "104712.316000", "104712.319000", "104712.322000", "104712.324000", "104712.327000", "104712.330000", "104732.275000", "104732.278000", "104732.281000", "104732.284000", "104732.287000", "104732.290000", "104732.293000", "104732.296000", "104732.298000", "104732.301000", "104732.304000", "104732.307000", "104732.310000", "104732.313000", "104732.316000", "104732.319000", "104732.322000", "104732.324000", "104732.327000", "104732.330000", "104752.275000", "104752.278000", "104752.281000", "104752.284000", "104752.287000", "104752.290000", "104752.293000", "104752.295000", "104752.298000", "104752.301000", "104752.304000", "104752.307000", "104752.312000", "104752.315000", "104752.318000", "104752.321000", "104752.324000", "104752.327000", "104752.330000", "104752.333000", "104832.274000", "104832.277000", "104832.280000", "104832.283000", "104832.286000", "104832.289000", "104832.292000", "104832.295000", "104832.298000", "104832.301000", "104832.304000", "104832.307000", "104832.310000", "104832.313000", "104832.326000", "104832.329000", "104832.332000", "104832.335000", "104832.337000", "104832.340000", "104832.343000", "104832.346000", "104832.349000", "104832.352000", "104832.355000", "104832.358000", "104902.291000", "104902.294000", "104902.297000", "104902.300000", "104902.303000", "104902.306000", "104902.309000", "104902.312000", "104902.315000", "104902.321000", "104902.324000", "104902.327000", "104902.329000", "104902.332000", "104902.335000", "104902.338000", "104902.341000", "104902.344000", "104902.347000", "104902.350000", "104902.353000"],
      "InstanceNumber": [1, 2, 3, 4, 5, 6, 7, 8, 9, 10, 11, 12, 13, 14, 15, 16, 17, 18, 19, 20, 21, 22, 23, 24, 25, 26, 27, 28, 29, 30, 31, 32, 33, 34, 35, 36, 37, 38, 39, 40, 41, 42, 43, 44, 45, 46, 47, 48, 49, 50, 51, 52, 53, 54, 55, 56, 57, 58, 59, 60, 61, 62, 63, 64, 65, 66, 67, 68, 69, 70, 71, 72, 73, 74, 75, 76, 77, 78, 79, 80, 81, 82, 83, 84, 85, 86, 87, 88, 89, 90, 91, 92, 93, 94, 95, 96, 97, 98, 99, 100, 101, 102, 103, 104, 105, 106, 107, 108, 109, 110, 111, 112, 113, 114, 115, 116, 117, 118, 119, 120, 121, 122, 123, 124, 125, 126, 127, 128, 129, 130, 131, 132, 133, 134, 135, 136, 137, 138, 139, 140, 141, 142, 143, 144, 145, 146, 147, 148, 149, 150, 151, 152, 153, 154, 155, 156, 157, 158, 159],
      "LargestImagePixelValue": [55937, 54389, 54003, 52915, 52280, 52418, 52609, 52335, 52277, 52551, 51871, 52207, 51971, 52073, 52163, 51928, 52224, 52224, 52488, 52164, 51909, 52878, 52205, 52414, 52431, 51924, 52754, 52395, 52549, 52462, 52331, 52216, 51904, 52961, 52588, 52670, 52492, 52666, 52108, 52135, 52472, 52550, 52571, 52238, 52684, 52375, 51687, 52535, 52128, 52048, 52252, 51734, 52507, 51916, 52558, 53009, 51907, 51851, 52374, 52496, 52188, 53384, 54064, 54080, 54916, 54754, 55036, 54710, 54891, 55040, 54700, 54902, 55472, 54940, 55434, 54802, 54583, 55087, 55150, 54522, 54905, 54746, 54288, 55266, 54883, 55043, 54903, 54809, 55367, 55065, 55225, 54687, 55450, 55227, 55742, 55621, 55157, 55313, 55218, 55866, 55181, 55603, 55021, 55505, 55092, 55447, 54318, 55194, 54317, 54828, 54751, 54921, 54579, 54564, 54865, 54748, 54259, 54777, 54534, 54652, 54716, 55074, 54744, 54752, 54225, 53925, 53473, 54711, 54303, 54386, 53719, 54364, 53882, 53933, 54268, 54038, 53582, 53167, 53054, 52264, 52221, 52851, 52387, 53614, 52881, 52274, 52136, 53892, 54892, 54636, 54991, 55281, 55536, 55083, 55218, 55351, 55381, 55192, 55560],
      "WindowCenter": [10393.0, 10334.0, 10336.0, 10357.0, 10376.0, 10371.0, 10354.0, 10331.0, 10333.0, 10346.0, 10343.0, 10336.0, 10339.0, 10344.0, 10346.0, 10329.0, 10319.0, 10316.0, 10324.0, 10322.0, 10343.0, 10373.0, 10373.0, 10360.0, 10330.0, 10303.0, 10301.0, 10299.0, 10314.0, 10350.0, 10370.0, 10374.0, 10338.0, 10326.0, 10310.0, 10314.0, 10349.0, 10390.0, 10383.0, 10366.0, 10346.0, 10312.0, 10300.0, 10299.0, 10319.0, 10324.0, 10319.0, 10326.0, 10333.0, 10339.0, 10362.0, 10356.0, 10363.0, 10381.0, 10389.0, 10400.0, 10362.0, 10331.0, 10328.0, 10333.0, 10354.0, 10392.0, 10400.0, 10390.0, 10371.0, 10345.0, 10339.0, 10324.0, 10329.0, 10337.0, 10332.0, 10331.0, 10332.0, 10331.0, 10325.0, 10318.0, 10324.0, 10330.0, 10332.0, 10325.0, 10324.0, 10319.0, 10314.0, 10321.0, 10328.0, 10329.0, 10339.0, 10330.0, 10335.0, 10328.0, 10327.0, 10335.0, 10345.0, 10345.0, 10343.0, 10333.0, 10329.0, 10334.0, 10349.0, 10366.0, 10361.0, 10362.0, 10364.0, 10371.0, 10359.0, 10349.0, 10317.0, 10319.0, 10316.0, 10340.0, 10366.0, 10370.0, 10352.0, 10342.0, 10332.0, 10338.0, 10334.0, 10343.0, 10336.0, 10331.0, 10315.0, 10338.0, 10372.0, 10384.0, 10365.0, 10339.0, 10304.0, 10298.0, 10302.0, 10328.0, 10343.0, 10360.0, 10339.0, 10321.0, 10324.0, 10351.0, 10345.0, 10346.0, 10357.0, 10347.0, 10339.0, 10350.0, 10353.0, 10358.0, 10360.0, 10372.0, 10381.0, 10405.0, 10417.0, 10419.0, 10417.0, 10405.0, 10388.0, 10372.0, 10359.0, 10345.0, 10322.0, 10296.0, 10283.0],
      "WindowWidth": [22426.0, 22259.0, 22240.0, 22278.0, 22312.0, 22292.0, 22249.0, 22200.0, 22202.0, 22228.0, 22224.0, 22210.0, 22220.0, 22229.0, 22231.0, 22194.0, 22169.0, 22161.0, 22181.0, 22174.0, 22226.0, 22292.0, 22296.0, 22265.0, 22198.0, 22139.0, 22131.0, 22126.0, 22160.0, 22242.0, 22289.0, 22300.0, 22224.0, 22189.0, 22153.0, 22157.0, 22239.0, 22333.0, 22322.0, 22283.0, 22236.0, 22160.0, 22130.0, 22130.0, 22170.0, 22183.0, 22176.0, 22187.0, 22203.0, 22220.0, 22272.0, 22259.0, 22277.0, 22316.0, 22332.0, 22359.0, 22276.0, 22202.0, 22192.0, 22198.0, 22248.0, 22330.0, 22347.0, 22322.0, 22278.0, 22218.0, 22203.0, 22173.0, 22180.0, 22199.0, 22189.0, 22183.0, 22188.0, 22186.0, 22170.0, 22154.0, 22170.0, 22180.0, 22188.0, 22171.0, 22168.0, 22154.0, 22143.0, 22157.0, 22173.0, 22176.0, 22202.0, 22179.0, 22187.0, 22171.0, 22167.0, 22189.0, 22209.0, 22209.0, 22202.0, 22182.0, 22176.0, 22185.0, 22220.0, 22260.0, 22249.0, 22251.0, 22257.0, 22277.0, 22253.0, 22228.0, 22159.0, 22159.0, 22160.0, 22211.0, 22271.0, 22280.0, 22238.0, 22213.0, 22192.0, 22204.0, 22200.0, 22220.0, 22204.0, 22189.0, 22153.0, 22203.0, 22280.0, 22310.0, 22269.0, 22211.0, 22130.0, 22116.0, 22124.0, 22179.0, 22221.0, 22256.0, 22213.0, 22171.0, 22177.0, 22240.0, 22226.0, 22227.0, 22254.0, 22237.0, 22219.0, 22238.0, 22250.0, 22256.0, 22264.0, 22296.0, 22315.0, 22360.0, 22382.0, 22386.0, 22381.0, 22350.0, 22309.0, 22280.0, 22240.0, 22215.0, 22162.0, 22104.0, 22070.0]
    },
    "slices": {}
  }
}