{
  "AcquisitionMatrixPE": 104,
  "AcquisitionNumber": 1,
  "AcquisitionTime": "10:10:26.885000",
  "BandwidthPerPixelPhaseEncode": 17.17,
  "BaseResolution": 104,
  "BodyPartExamined": "BRAIN",
  "CoilString": "HC1-7;NC1_2",
  "ConsistencyInfo": "N4_VE11C_LATEST_20160120",
  "ConversionSoftware": "dcm2niix",
  "ConversionSoftwareVersion": "v1.0.20190720  (JP2:OpenJPEG) GCC7.3.0",
  "DerivedVendorReportedEchoSpacing": 0.000560011,
  "DeviceSerialNumber": "167006",
  "DwellTime": 2.1e-06,
  "EchoTime": 0.037,
  "EchoTrainLength": 104,
  "EffectiveEchoSpacing": 0.000560011,
  "FlipAngle": 52,
  "ImageComments": "Unaliased_MB4_PE3_LB",
  "ImageOrientationPatientDICOM": [0.999585, -0.0266973, 0.0107864, 0.028794, 0.926799, -0.374451],
  "ImageType": [
    "ORIGINAL",
    "PRIMARY",
    "M",
    "MB",
    "ND",
    "MOSAIC"
],
  "ImagingFrequency": 123.259,
  "InPlanePhaseEncodingDirectionDICOM": "COL",
  "InstitutionAddress": "Chemin_Queen-Mary_4565_Montreal_District_CA_H3W_1W5",
  "InstitutionName": "IUGM",
  "InstitutionalDepartmentName": "Department",
  "MRAcquisitionType": "2D",
  "MagneticFieldStrength": 3,
  "Manufacturer": "Siemens",
  "ManufacturersModelName": "Prisma_fit",
  "Modality": "MR",
  "MultibandAccelerationFactor": 4,
  "PartialFourier": 1,
  "PatientPosition": "HFS",
  "PercentPhaseFOV": 100,
  "PhaseEncodingDirection": "j",
  "PhaseEncodingSteps": 104,
  "PhaseResolution": 1,
  "PixelBandwidth": 2290,
  "ProcedureStepDescription": "hcptrt_generic",
  "ProtocolName": "func_task-gambling_run-1",
  "PulseSequenceDetails": "%CustomerSeq%_cmrr_mbep2d_bold",
  "ReceiveCoilActiveElements": "HC1-7;NC1,2",
  "ReceiveCoilName": "HeadNeck_64",
  "ReconMatrixPE": 104,
  "RepetitionTime": 1.49,
  "SAR": 0.0345625,
  "ScanOptions": "FS",
  "ScanningSequence": "EP",
  "SequenceName": "epfid2d1_104",
  "SequenceVariant": "SK_SS",
  "SeriesDescription": "func_task-gambling_run-1",
  "SeriesNumber": 13,
  "ShimSetting": [609, -7258, -8868, 381, 42, -480, -9, 30],
  "SliceThickness": 2,
  "SliceTiming": [0, 0.785, 0.1, 0.8825, 0.1975, 0.98, 0.295, 1.08, 0.3925, 1.1775, 0.49, 1.275, 0.59, 1.3725, 0.6875, 0, 0.785, 0.1, 0.8825, 0.1975, 0.98, 0.295, 1.08, 0.3925, 1.1775, 0.49, 1.275, 0.59, 1.3725, 0.6875, 0, 0.785, 0.1, 0.8825, 0.1975, 0.98, 0.295, 1.08, 0.3925, 1.1775, 0.49, 1.275, 0.59, 1.3725, 0.6875, 0, 0.785, 0.1, 0.8825, 0.1975, 0.98, 0.295, 1.08, 0.3925, 1.1775, 0.49, 1.275, 0.59, 1.3725, 0.6875],
  "SoftwareVersions": "syngo_MR_E11",
  "SpacingBetweenSlices": 2,
  "StationName": "MRC35049",
  "TaskName": "gambling",
  "TotalReadoutTime": 0.0576811,
  "TxRefAmp": 238.96,
  "WipMemBlock": "ed523d88-c51e-4272-8853-6cef9b292b12||Sequence: R016 ve11c/master r/e634e98; Dec 19 2017 11:00:25 by eja",
  "dcmmeta_affine": [
    [-1.9991707801818848, 0.05758797749876976, 1.0379200610088901e-08, 99.09239196777344],
    [0.05339463800191879, 1.8535988330841064, -0.7492132186889648, -69.23971557617188],
    [0.021572845056653023, 0.7489025592803955, 1.854367733001709, -81.56385803222656],
    [0.0, 0.0, 0.0, 1.0]
],
  "dcmmeta_reorient_transform": [
    [0.0, -1.0, 0.0, 103.0],
    [1.0, 0.0, 0.0, 0.0],
    [0.0, 0.0, 1.0, 0.0],
    [0.0, 0.0, 0.0, 1.0]
],
  "dcmmeta_shape": [104, 104, 60, 129],
  "dcmmeta_slice_dim": 2,
  "dcmmeta_version": 0.6,
  "global": {
    "const": {
      "AcquisitionMatrix": [104, 0, 0, 104],
      "AngioFlag": "N",
      "BitsAllocated": 16,
      "BitsStored": 16,
      "BodyPartExamined": "BRAIN",
      "Columns": 832,
      "EchoNumbers": 1,
      "EchoTime": 37.0,
      "EchoTrainLength": 104,
      "FlipAngle": 52.0,
      "HighBit": 15,
      "ImageOrientationPatient": [0.99958536714409, -0.0266973195487, 0.01078642296251, 0.02879398880687, 0.92679941240095, -0.3744512723731],
      "ImagePositionPatient": [-853.68412700269, -776.95528617802, 260.32111164932],
      "ImageType": [
        "ORIGINAL",
        "PRIMARY",
        "M",
        "MB",
        "ND",
        "MOSAIC"
],
      "ImagedNucleus": "1H",
      "ImagingFrequency": 123.259276,
      "InPlanePhaseEncodingDirection": "COL",
      "MRAcquisitionType": "2D",
      "MagneticFieldStrength": 3.0,
      "Manufacturer": "SIEMENS",
      "ManufacturerModelName": "Prisma_fit",
      "Modality": "MR",
      "NumberOfAverages": 1.0,
      "NumberOfPhaseEncodingSteps": 104,
      "PercentPhaseFieldOfView": 100.0,
      "PercentSampling": 100.0,
      "PerformedProcedureStepStartTime": "091553.600000",
      "PhotometricInterpretation": "MONOCHROME2",
      "PixelBandwidth": 2290.0,
      "PixelRepresentation": 0,
      "PixelSpacing": [2.0, 2.0],
      "ProtocolName": "func_task-gambling_run-1",
      "RepetitionTime": 1490.0,
      "Rows": 832,
      "SAR": 0.03456253544344,
      "SamplesPerPixel": 1,
      "ScanOptions": "FS",
      "ScanningSequence": "EP",
      "SequenceName": "epfid2d1_104",
      "SequenceVariant": [
        "SK",
        "SS"
],
      "SeriesDescription": "func_task-gambling_run-1",
      "SeriesNumber": 13,
      "SeriesTime": "101200.811000",
      "SliceLocation": -49.687039747185,
      "SliceThickness": 2.0,
      "SmallestImagePixelValue": 0,
      "SoftwareVersions": "syngo MR E11",
      "SpacingBetweenSlices": 2.0000000084052,
      "SpecificCharacterSet": "ISO_IR 100",
      "StudyID": "1",
      "StudyTime": "091553.432000",
      "TransmitCoilName": "Body",
      "VariableFlipAngleFlag": "N",
      "WindowCenterWidthExplanation": "Algo1",
      "dBdt": 0.0},
    "slices": {}
  },
  "time": {
    "samples": {
      "AcquisitionNumber": [1, 2, 3, 4, 5, 6, 7, 8, 9, 10, 11, 12, 13, 14, 15, 16, 17, 18, 19, 20, 21, 22, 23, 24, 25, 26, 27, 28, 29, 30, 31, 32, 33, 34, 35, 36, 37, 38, 39, 40, 41, 42, 43, 44, 45, 46, 47, 48, 49, 50, 51, 52, 53, 54, 55, 56, 57, 58, 59, 60, 61, 62, 63, 64, 65, 66, 67, 68, 69, 70, 71, 72, 73, 74, 75, 76, 77, 78, 79, 80, 81, 82, 83, 84, 85, 86, 87, 88, 89, 90, 91, 92, 93, 94, 95, 96, 97, 98, 99, 100, 101, 102, 103, 104, 105, 106, 107, 108, 109, 110, 111, 112, 113, 114, 115, 116, 117, 118, 119, 120, 121, 122, 123, 124, 125, 126, 127, 128, 129],
      "AcquisitionTime": ["101026.885000", "101028.375000", "101029.865000", "101031.355000", "101032.845000", "101034.335000", "101035.825000", "101037.315000", "101038.805000", "101040.295000", "101041.785000", "101043.275000", "101044.765000", "101046.255000", "101047.745000", "101049.235000", "101050.725000", "101052.215000", "101053.705000", "101055.195000", "101056.685000", "101058.175000", "101059.665000", "101101.155000", "101102.645000", "101104.135000", "101105.625000", "101107.115000", "101108.605000", "101110.095000", "101111.585000", "101113.075000", "101114.565000", "101116.055000", "101117.545000", "101119.035000", "101120.525000", "101122.015000", "101123.505000", "101124.995000", "101126.485000", "101127.975000", "101129.465000", "101130.955000", "101132.445000", "101133.935000", "101135.425000", "101136.915000", "101138.405000", "101139.895000", "101141.385000", "101142.875000", "101144.365000", "101145.855000", "101147.345000", "101148.835000", "101150.325000", "101151.815000", "101153.305000", "101154.795000", "101156.285000", "101157.775000", "101159.265000", "101200.755000", "101202.245000", "101203.735000", "101205.225000", "101206.715000", "101208.205000", "101209.695000", "101211.185000", "101212.675000", "101214.165000", "101215.655000", "101217.145000", "101218.635000", "101220.125000", "101221.615000", "101223.105000", "101224.595000", "101226.085000", "101227.575000", "101229.065000", "101230.555000", "101232.045000", "101233.535000", "101235.025000", "101236.515000", "101238.005000", "101239.495000", "101240.985000", "101242.475000", "101243.965000", "101245.455000", "101246.945000", "101248.435000", "101249.925000", "101251.415000", "101252.905000", "101254.395000", "101255.885000", "101257.375000", "101258.865000", "101300.355000", "101301.845000", "101303.335000", "101304.825000", "101306.315000", "101307.805000", "101309.295000", "101310.785000", "101312.275000", "101313.765000", "101315.255000", "101316.745000", "101318.235000", "101319.725000", "101321.215000", "101322.705000", "101324.195000", "101325.685000", "101327.175000", "101328.665000", "101330.155000", "101331.645000", "101333.135000", "101334.625000", "101336.115000", "101337.605000"],
      "ContentTime": ["101200.814000", "101200.817000", "101200.820000", "101200.823000", "101200.826000", "101200.828000", "101200.831000", "101200.834000", "101200.837000", "101200.841000", "101200.845000", "101200.849000", "101200.853000", "101200.864000", "101200.867000", "101200.870000", "101200.872000", "101200.875000", "101200.878000", "101200.881000", "101200.884000", "101200.887000", "101200.890000", "101200.893000", "101200.898000", "101200.900000", "101200.903000", "101200.906000", "101200.909000", "101200.912000", "101200.915000", "101200.918000", "101200.921000", "101200.923000", "101200.926000", "101200.929000", "101220.772000", "101220.775000", "101220.778000", "101220.780000", "101220.783000", "101220.786000", "101220.789000", "101220.792000", "101220.795000", "101220.797000", "101220.800000", "101220.803000", "101220.806000", "101220.809000", "101220.816000", "101220.819000", "101220.822000", "101220.825000", "101220.828000", "101220.830000", "101220.833000", "101240.772000", "101240.775000", "101240.778000", "101240.781000", "101240.783000", "101240.786000", "101240.789000", "101240.792000", "101240.795000", "101240.798000", "101240.801000", "101240.804000", "101240.807000", "101240.809000", "101240.812000", "101240.815000", "101240.818000", "101240.821000", "101240.824000", "101240.827000", "101300.772000", "101300.775000", "101300.778000", "101300.781000", "101300.784000", "101300.787000", "101300.789000", "101300.792000", "101300.795000", "101300.798000", "101300.801000", "101300.804000", "101300.807000", "101300.810000", "101300.816000", "101300.819000", "101300.822000", "101300.825000", "101300.827000", "101300.830000", "101340.079000", "101340.082000", "101340.085000", "101340.088000", "101340.091000", "101340.094000", "101340.097000", "101340.100000", "101340.103000", "101340.106000", "101340.109000", "101340.112000", "101340.115000", "101340.118000", "101340.121000", "101340.124000", "101340.128000", "101340.131000", "101340.135000", "101340.139000", "101340.142000", "101340.146000", "101340.150000", "101340.153000", "101340.156000", "101340.159000", "101340.163000", "101340.166000", "101340.170000", "101340.173000", "101340.176000", "101340.179000"],
      "InstanceCreationTime": ["101200.814000", "101200.817000", "101200.820000", "101200.823000", "101200.826000", "101200.828000", "101200.831000", "101200.834000", "101200.837000", "101200.841000", "101200.845000", "101200.849000", "101200.853000", "101200.864000", "101200.867000", "101200.870000", "101200.872000", "101200.875000", "101200.878000", "101200.881000", "101200.884000", "101200.887000", "101200.890000", "101200.893000", "101200.898000", "101200.900000", "101200.903000", "101200.906000", "101200.909000", "101200.912000", "101200.915000", "101200.918000", "101200.921000", "101200.923000", "101200.926000", "101200.929000", "101220.772000", "101220.775000", "101220.778000", "101220.780000", "101220.783000", "101220.786000", "101220.789000", "101220.792000", "101220.795000", "101220.797000", "101220.800000", "101220.803000", "101220.806000", "101220.809000", "101220.816000", "101220.819000", "101220.822000", "101220.825000", "101220.828000", "101220.830000", "101220.833000", "101240.772000", "101240.775000", "101240.778000", "101240.781000", "101240.783000", "101240.786000", "101240.789000", "101240.792000", "101240.795000", "101240.798000", "101240.801000", "101240.804000", "101240.807000", "101240.809000", "101240.812000", "101240.815000", "101240.818000", "101240.821000", "101240.824000", "101240.827000", "101300.772000", "101300.775000", "101300.778000", "101300.781000", "101300.784000", "101300.787000", "101300.789000", "101300.792000", "101300.795000", "101300.798000", "101300.801000", "101300.804000", "101300.807000", "101300.810000", "101300.816000", "101300.819000", "101300.822000", "101300.825000", "101300.827000", "101300.830000", "101340.079000", "101340.082000", "101340.085000", "101340.088000", "101340.091000", "101340.094000", "101340.097000", "101340.100000", "101340.103000", "101340.106000", "101340.109000", "101340.112000", "101340.115000", "101340.118000", "101340.121000", "101340.124000", "101340.128000", "101340.131000", "101340.135000", "101340.139000", "101340.142000", "101340.146000", "101340.150000", "101340.153000", "101340.156000", "101340.159000", "101340.163000", "101340.166000", "101340.170000", "101340.173000", "101340.176000", "101340.179000"],
      "InstanceNumber": [1, 2, 3, 4, 5, 6, 7, 8, 9, 10, 11, 12, 13, 14, 15, 16, 17, 18, 19, 20, 21, 22, 23, 24, 25, 26, 27, 28, 29, 30, 31, 32, 33, 34, 35, 36, 37, 38, 39, 40, 41, 42, 43, 44, 45, 46, 47, 48, 49, 50, 51, 52, 53, 54, 55, 56, 57, 58, 59, 60, 61, 62, 63, 64, 65, 66, 67, 68, 69, 70, 71, 72, 73, 74, 75, 76, 77, 78, 79, 80, 81, 82, 83, 84, 85, 86, 87, 88, 89, 90, 91, 92, 93, 94, 95, 96, 97, 98, 99, 100, 101, 102, 103, 104, 105, 106, 107, 108, 109, 110, 111, 112, 113, 114, 115, 116, 117, 118, 119, 120, 121, 122, 123, 124, 125, 126, 127, 128, 129],
      "LargestImagePixelValue": [55148, 53556, 53052, 52187, 52064, 51906, 52164, 51824, 52193, 51861, 51900, 52135, 52171, 51554, 52140, 51725, 51653, 52179, 51511, 52099, 51758, 52117, 51753, 52317, 51998, 51828, 51541, 52348, 51745, 51530, 51886, 51853, 52388, 52204, 51975, 52047, 52318, 51814, 51939, 51755, 52350, 52021, 51528, 51571, 51587, 52242, 51945, 51710, 51536, 51827, 51681, 52182, 51365, 52065, 51657, 51554, 51199, 51669, 52165, 52125, 52232, 51866, 51872, 52091, 52041, 51956, 52260, 52263, 51914, 52019, 52138, 52819, 52099, 52731, 52801, 52907, 52922, 52909, 52259, 52687, 52268, 52943, 52499, 52513, 52362, 52625, 52788, 52140, 53023, 52904, 52411, 53022, 52609, 52591, 52710, 52511, 53778, 53129, 53061, 52640, 53471, 52916, 53033, 52519, 52715, 52372, 52711, 53089, 52894, 52715, 52447, 52610, 52414, 52439, 52894, 53075, 52930, 52415, 53851, 53182, 53732, 53043, 53304, 52722, 52561, 53296, 52701, 53014, 53075],
      "WindowCenter": [10375.0, 10351.0, 10339.0, 10350.0, 10352.0, 10351.0, 10367.0, 10385.0, 10401.0, 10394.0, 10386.0, 10383.0, 10390.0, 10404.0, 10441.0, 10447.0, 10440.0, 10430.0, 10415.0, 10418.0, 10411.0, 10410.0, 10404.0, 10409.0, 10408.0, 10409.0, 10410.0, 10431.0, 10433.0, 10438.0, 10447.0, 10445.0, 10446.0, 10428.0, 10412.0, 10415.0, 10423.0, 10417.0, 10410.0, 10409.0, 10406.0, 10410.0, 10409.0, 10428.0, 10437.0, 10444.0, 10435.0, 10422.0, 10404.0, 10395.0, 10413.0, 10432.0, 10427.0, 10427.0, 10417.0, 10413.0, 10410.0, 10412.0, 10416.0, 10402.0, 10400.0, 10419.0, 10434.0, 10429.0, 10412.0, 10386.0, 10381.0, 10380.0, 10389.0, 10405.0, 10422.0, 10431.0, 10425.0, 10414.0, 10395.0, 10377.0, 10392.0, 10411.0, 10414.0, 10414.0, 10399.0, 10398.0, 10398.0, 10400.0, 10405.0, 10391.0, 10388.0, 10381.0, 10393.0, 10401.0, 10402.0, 10392.0, 10385.0, 10388.0, 10403.0, 10398.0, 10406.0, 10383.0, 10376.0, 10384.0, 10397.0, 10399.0, 10410.0, 10414.0, 10423.0, 10407.0, 10398.0, 10385.0, 10378.0, 10384.0, 10403.0, 10414.0, 10417.0, 10415.0, 10409.0, 10409.0, 10414.0, 10390.0, 10387.0, 10376.0, 10396.0, 10405.0, 10410.0, 10392.0, 10389.0, 10414.0, 10403.0, 10393.0, 10384.0],
      "WindowWidth": [22396.0, 22311.0, 22259.0, 22277.0, 22273.0, 22265.0, 22297.0, 22338.0, 22369.0, 22355.0, 22335.0, 22326.0, 22343.0, 22377.0, 22461.0, 22477.0, 22462.0, 22437.0, 22406.0, 22411.0, 22395.0, 22392.0, 22379.0, 22389.0, 22389.0, 22387.0, 22392.0, 22436.0, 22444.0, 22460.0, 22482.0, 22479.0, 22478.0, 22436.0, 22399.0, 22401.0, 22418.0, 22404.0, 22390.0, 22388.0, 22381.0, 22395.0, 22392.0, 22438.0, 22456.0, 22468.0, 22450.0, 22421.0, 22383.0, 22359.0, 22397.0, 22442.0, 22432.0, 22430.0, 22406.0, 22404.0, 22400.0, 22404.0, 22412.0, 22376.0, 22369.0, 22410.0, 22445.0, 22435.0, 22391.0, 22334.0, 22319.0, 22317.0, 22340.0, 22376.0, 22415.0, 22433.0, 22419.0, 22390.0, 22342.0, 22301.0, 22333.0, 22381.0, 22391.0, 22386.0, 22355.0, 22353.0, 22353.0, 22357.0, 22369.0, 22341.0, 22332.0, 22317.0, 22340.0, 22357.0, 22362.0, 22335.0, 22321.0, 22330.0, 22362.0, 22353.0, 22364.0, 22311.0, 22297.0, 22318.0, 22343.0, 22347.0, 22373.0, 22387.0, 22407.0, 22371.0, 22349.0, 22319.0, 22303.0, 22317.0, 22361.0, 22388.0, 22397.0, 22395.0, 22373.0, 22373.0, 22388.0, 22334.0, 22317.0, 22294.0, 22338.0, 22363.0, 22376.0, 22333.0, 22326.0, 22381.0, 22362.0, 22335.0, 22318.0]
    },
    "slices": {}
  }
}