{
  "AcquisitionMatrixPE": 104,
  "AcquisitionNumber": 1,
  "AcquisitionTime": "10:56:9.180000",
  "BandwidthPerPixelPhaseEncode": 17.17,
  "BaseResolution": 104,
  "BodyPartExamined": "BRAIN",
  "CoilString": "HC1-7;NC1_2",
  "ConsistencyInfo": "N4_VE11C_LATEST_20160120",
  "ConversionSoftware": "dcm2niix",
  "ConversionSoftwareVersion": "v1.0.20190720  (JP2:OpenJPEG) GCC7.3.0",
  "DerivedVendorReportedEchoSpacing": 0.000560011,
  "DeviceSerialNumber": "167006",
  "DwellTime": 2.1e-06,
  "EchoTime": 0.037,
  "EchoTrainLength": 104,
  "EffectiveEchoSpacing": 0.000560011,
  "FlipAngle": 52,
  "ImageComments": "Unaliased_MB4_PE3_LB",
  "ImageOrientationPatientDICOM": [0.999585, -0.0266973, 0.0107864, 0.028794, 0.926799, -0.374451],
  "ImageType": [
    "ORIGINAL",
    "PRIMARY",
    "M",
    "MB",
    "ND",
    "MOSAIC"
],
  "ImagingFrequency": 123.259,
  "InPlanePhaseEncodingDirectionDICOM": "COL",
  "InstitutionAddress": "Chemin_Queen-Mary_4565_Montreal_District_CA_H3W_1W5",
  "InstitutionName": "IUGM",
  "InstitutionalDepartmentName": "Department",
  "MRAcquisitionType": "2D",
  "MagneticFieldStrength": 3,
  "Manufacturer": "Siemens",
  "ManufacturersModelName": "Prisma_fit",
  "Modality": "MR",
  "MultibandAccelerationFactor": 4,
  "PartialFourier": 1,
  "PatientPosition": "HFS",
  "PercentPhaseFOV": 100,
  "PhaseEncodingDirection": "j",
  "PhaseEncodingSteps": 104,
  "PhaseResolution": 1,
  "PixelBandwidth": 2290,
  "ProcedureStepDescription": "hcptrt_generic",
  "ProtocolName": "func_task-relational_run-2",
  "PulseSequenceDetails": "%CustomerSeq%_cmrr_mbep2d_bold",
  "ReceiveCoilActiveElements": "HC1-7;NC1,2",
  "ReceiveCoilName": "HeadNeck_64",
  "ReconMatrixPE": 104,
  "RepetitionTime": 1.49,
  "SAR": 0.0345211,
  "ScanOptions": "FS",
  "ScanningSequence": "EP",
  "SequenceName": "epfid2d1_104",
  "SequenceVariant": "SK_SS",
  "SeriesDescription": "func_task-relational_run-2",
  "SeriesNumber": 33,
  "ShimSetting": [609, -7258, -8868, 381, 42, -480, -9, 30],
  "SliceThickness": 2,
  "SliceTiming": [0, 0.785, 0.1, 0.8825, 0.1975, 0.98, 0.295, 1.08, 0.3925, 1.1775, 0.49, 1.275, 0.59, 1.3725, 0.6875, 0, 0.785, 0.1, 0.8825, 0.1975, 0.98, 0.295, 1.08, 0.3925, 1.1775, 0.49, 1.275, 0.59, 1.3725, 0.6875, 0, 0.785, 0.1, 0.8825, 0.1975, 0.98, 0.295, 1.08, 0.3925, 1.1775, 0.49, 1.275, 0.59, 1.3725, 0.6875, 0, 0.785, 0.1, 0.8825, 0.1975, 0.98, 0.295, 1.08, 0.3925, 1.1775, 0.49, 1.275, 0.59, 1.3725, 0.6875],
  "SoftwareVersions": "syngo_MR_E11",
  "SpacingBetweenSlices": 2,
  "StationName": "MRC35049",
  "TaskName": "relational",
  "TotalReadoutTime": 0.0576811,
  "TxRefAmp": 238.96,
  "WipMemBlock": "3fb3ff7d-d515-425d-b86e-9009f8aacd6d||Sequence: R016 ve11c/master r/e634e98; Dec 19 2017 11:00:25 by eja",
  "dcmmeta_affine": [
    [-1.9991707801818848, 0.05758797749876976, 1.0379200610088901e-08, 99.09239196777344],
    [0.05339463800191879, 1.8535988330841064, -0.7492132186889648, -69.23971557617188],
    [0.021572845056653023, 0.7489025592803955, 1.854367733001709, -81.56385803222656],
    [0.0, 0.0, 0.0, 1.0]
],
  "dcmmeta_reorient_transform": [
    [0.0, -1.0, 0.0, 103.0],
    [1.0, 0.0, 0.0, 0.0],
    [0.0, 0.0, 1.0, 0.0],
    [0.0, 0.0, 0.0, 1.0]
],
  "dcmmeta_shape": [104, 104, 60, 119],
  "dcmmeta_slice_dim": 2,
  "dcmmeta_version": 0.6,
  "global": {
    "const": {
      "AcquisitionMatrix": [104, 0, 0, 104],
      "AngioFlag": "N",
      "BitsAllocated": 16,
      "BitsStored": 16,
      "BodyPartExamined": "BRAIN",
      "Columns": 832,
      "EchoNumbers": 1,
      "EchoTime": 37.0,
      "EchoTrainLength": 104,
      "FlipAngle": 52.0,
      "HighBit": 15,
      "ImageOrientationPatient": [0.99958536714409, -0.0266973195487, 0.01078642296251, 0.02879398880687, 0.92679941240095, -0.3744512723731],
      "ImagePositionPatient": [-853.68412700269, -776.95528617802, 260.32111164932],
      "ImageType": [
        "ORIGINAL",
        "PRIMARY",
        "M",
        "MB",
        "ND",
        "MOSAIC"
],
      "ImagedNucleus": "1H",
      "ImagingFrequency": 123.259289,
      "InPlanePhaseEncodingDirection": "COL",
      "MRAcquisitionType": "2D",
      "MagneticFieldStrength": 3.0,
      "Manufacturer": "SIEMENS",
      "ManufacturerModelName": "Prisma_fit",
      "Modality": "MR",
      "NumberOfAverages": 1.0,
      "NumberOfPhaseEncodingSteps": 104,
      "PercentPhaseFieldOfView": 100.0,
      "PercentSampling": 100.0,
      "PerformedProcedureStepStartTime": "091553.600000",
      "PhotometricInterpretation": "MONOCHROME2",
      "PixelBandwidth": 2290.0,
      "PixelRepresentation": 0,
      "PixelSpacing": [2.0, 2.0],
      "ProtocolName": "func_task-relational_run-2",
      "RepetitionTime": 1490.0,
      "Rows": 832,
      "SAR": 0.03452105156106,
      "SamplesPerPixel": 1,
      "ScanOptions": "FS",
      "ScanningSequence": "EP",
      "SequenceName": "epfid2d1_104",
      "SequenceVariant": [
        "SK",
        "SS"
],
      "SeriesDescription": "func_task-relational_run-2",
      "SeriesNumber": 33,
      "SeriesTime": "105732.445000",
      "SliceLocation": -49.687039747185,
      "SliceThickness": 2.0,
      "SmallestImagePixelValue": 0,
      "SoftwareVersions": "syngo MR E11",
      "SpacingBetweenSlices": 2.0000000084052,
      "SpecificCharacterSet": "ISO_IR 100",
      "StudyID": "1",
      "StudyTime": "091553.432000",
      "TransmitCoilName": "Body",
      "VariableFlipAngleFlag": "N",
      "WindowCenterWidthExplanation": "Algo1",
      "dBdt": 0.0},
    "slices": {}
  },
  "time": {
    "samples": {
      "AcquisitionNumber": [1, 2, 3, 4, 5, 6, 7, 8, 9, 10, 11, 12, 13, 14, 15, 16, 17, 18, 19, 20, 21, 22, 23, 24, 25, 26, 27, 28, 29, 30, 31, 32, 33, 34, 35, 36, 37, 38, 39, 40, 41, 42, 43, 44, 45, 46, 47, 48, 49, 50, 51, 52, 53, 54, 55, 56, 57, 58, 59, 60, 61, 62, 63, 64, 65, 66, 67, 68, 69, 70, 71, 72, 73, 74, 75, 76, 77, 78, 79, 80, 81, 82, 83, 84, 85, 86, 87, 88, 89, 90, 91, 92, 93, 94, 95, 96, 97, 98, 99, 100, 101, 102, 103, 104, 105, 106, 107, 108, 109, 110, 111, 112, 113, 114, 115, 116, 117, 118, 119],
      "AcquisitionTime": ["105609.180000", "105610.670000", "105612.160000", "105613.650000", "105615.140000", "105616.630000", "105618.120000", "105619.610000", "105621.100000", "105622.590000", "105624.080000", "105625.570000", "105627.060000", "105628.550000", "105630.040000", "105631.530000", "105633.020000", "105634.510000", "105636.000000", "105637.490000", "105638.980000", "105640.470000", "105641.960000", "105643.450000", "105644.940000", "105646.430000", "105647.920000", "105649.410000", "105650.900000", "105652.390000", "105653.880000", "105655.370000", "105656.860000", "105658.350000", "105659.840000", "105701.330000", "105702.820000", "105704.310000", "105705.800000", "105707.290000", "105708.780000", "105710.270000", "105711.760000", "105713.250000", "105714.740000", "105716.230000", "105717.720000", "105719.210000", "105720.700000", "105722.190000", "105723.680000", "105725.170000", "105726.660000", "105728.150000", "105729.640000", "105731.130000", "105732.620000", "105734.110000", "105735.600000", "105737.090000", "105738.580000", "105740.070000", "105741.560000", "105743.050000", "105744.540000", "105746.030000", "105747.520000", "105749.010000", "105750.500000", "105751.990000", "105753.480000", "105754.970000", "105756.460000", "105757.950000", "105759.440000", "105800.930000", "105802.420000", "105803.910000", "105805.400000", "105806.890000", "105808.380000", "105809.870000", "105811.360000", "105812.850000", "105814.340000", "105815.830000", "105817.320000", "105818.810000", "105820.300000", "105821.790000", "105823.280000", "105824.770000", "105826.260000", "105827.750000", "105829.240000", "105830.730000", "105832.220000", "105833.710000", "105835.200000", "105836.690000", "105838.180000", "105839.670000", "105841.160000", "105842.650000", "105844.140000", "105845.630000", "105847.120000", "105848.610000", "105850.100000", "105851.590000", "105853.080000", "105854.570000", "105856.060000", "105857.550000", "105859.040000", "105900.530000", "105902.020000", "105903.510000", "105905.000000"],
      "ContentTime": ["105732.448000", "105732.451000", "105732.454000", "105732.457000", "105732.459000", "105732.462000", "105732.465000", "105732.468000", "105732.471000", "105732.474000", "105732.477000", "105732.479000", "105732.482000", "105732.485000", "105732.488000", "105732.491000", "105732.494000", "105732.497000", "105732.499000", "105732.502000", "105732.505000", "105732.508000", "105732.511000", "105732.514000", "105732.517000", "105732.520000", "105732.522000", "105732.531000", "105732.534000", "105732.541000", "105752.413000", "105752.416000", "105752.419000", "105752.422000", "105752.425000", "105752.427000", "105752.430000", "105752.433000", "105752.436000", "105752.453000", "105752.456000", "105752.459000", "105752.462000", "105752.464000", "105752.467000", "105752.470000", "105752.473000", "105752.476000", "105752.479000", "105752.482000", "105812.414000", "105812.417000", "105812.420000", "105812.423000", "105812.426000", "105812.428000", "105812.431000", "105812.434000", "105812.437000", "105812.440000", "105812.443000", "105812.446000", "105812.449000", "105812.451000", "105812.454000", "105812.457000", "105812.460000", "105812.463000", "105812.466000", "105812.469000", "105832.414000", "105832.417000", "105832.420000", "105832.423000", "105832.425000", "105832.428000", "105832.431000", "105832.434000", "105832.437000", "105832.440000", "105832.443000", "105832.445000", "105832.448000", "105832.451000", "105832.454000", "105832.457000", "105832.460000", "105832.462000", "105832.465000", "105832.468000", "105832.471000", "105906.768000", "105906.771000", "105906.774000", "105906.785000", "105906.788000", "105906.790000", "105906.793000", "105906.796000", "105906.799000", "105906.802000", "105906.805000", "105906.808000", "105906.810000", "105906.813000", "105906.816000", "105906.819000", "105906.822000", "105906.825000", "105906.828000", "105906.831000", "105906.834000", "105906.836000", "105906.839000", "105906.842000", "105906.845000", "105906.849000", "105906.851000", "105906.854000"],
      "InstanceCreationTime": ["105732.448000", "105732.451000", "105732.454000", "105732.457000", "105732.459000", "105732.462000", "105732.465000", "105732.468000", "105732.471000", "105732.474000", "105732.477000", "105732.479000", "105732.482000", "105732.485000", "105732.488000", "105732.491000", "105732.494000", "105732.497000", "105732.499000", "105732.502000", "105732.505000", "105732.508000", "105732.511000", "105732.514000", "105732.517000", "105732.520000", "105732.522000", "105732.531000", "105732.534000", "105732.541000", "105752.413000", "105752.416000", "105752.419000", "105752.422000", "105752.425000", "105752.427000", "105752.430000", "105752.433000", "105752.436000", "105752.453000", "105752.456000", "105752.459000", "105752.462000", "105752.464000", "105752.467000", "105752.470000", "105752.473000", "105752.476000", "105752.479000", "105752.482000", "105812.414000", "105812.417000", "105812.420000", "105812.423000", "105812.426000", "105812.428000", "105812.431000", "105812.434000", "105812.437000", "105812.440000", "105812.443000", "105812.446000", "105812.449000", "105812.451000", "105812.454000", "105812.457000", "105812.460000", "105812.463000", "105812.466000", "105812.469000", "105832.414000", "105832.417000", "105832.420000", "105832.423000", "105832.425000", "105832.428000", "105832.431000", "105832.434000", "105832.437000", "105832.440000", "105832.443000", "105832.445000", "105832.448000", "105832.451000", "105832.454000", "105832.457000", "105832.460000", "105832.462000", "105832.465000", "105832.468000", "105832.471000", "105906.768000", "105906.771000", "105906.774000", "105906.785000", "105906.788000", "105906.790000", "105906.793000", "105906.796000", "105906.799000", "105906.802000", "105906.805000", "105906.808000", "105906.810000", "105906.813000", "105906.816000", "105906.819000", "105906.822000", "105906.825000", "105906.828000", "105906.831000", "105906.834000", "105906.836000", "105906.839000", "105906.842000", "105906.845000", "105906.849000", "105906.851000", "105906.854000"],
      "InstanceNumber": [1, 2, 3, 4, 5, 6, 7, 8, 9, 10, 11, 12, 13, 14, 15, 16, 17, 18, 19, 20, 21, 22, 23, 24, 25, 26, 27, 28, 29, 30, 31, 32, 33, 34, 35, 36, 37, 38, 39, 40, 41, 42, 43, 44, 45, 46, 47, 48, 49, 50, 51, 52, 53, 54, 55, 56, 57, 58, 59, 60, 61, 62, 63, 64, 65, 66, 67, 68, 69, 70, 71, 72, 73, 74, 75, 76, 77, 78, 79, 80, 81, 82, 83, 84, 85, 86, 87, 88, 89, 90, 91, 92, 93, 94, 95, 96, 97, 98, 99, 100, 101, 102, 103, 104, 105, 106, 107, 108, 109, 110, 111, 112, 113, 114, 115, 116, 117, 118, 119],
      "LargestImagePixelValue": [58243, 56058, 54818, 53620, 53745, 53737, 53584, 53562, 54156, 53704, 53815, 53633, 53396, 53551, 53014, 53748, 53066, 53896, 53085, 53353, 53380, 53148, 53149, 53185, 53224, 52631, 53100, 52934, 53098, 52720, 52778, 52757, 53555, 52699, 52726, 53391, 53412, 53690, 53208, 53543, 53494, 53364, 53585, 53344, 53282, 53067, 53614, 53665, 53063, 53423, 53587, 53463, 54395, 54365, 54084, 54305, 53956, 53445, 53397, 53221, 53400, 53398, 53327, 53371, 53189, 53916, 53241, 53540, 53238, 53113, 53109, 53189, 52959, 52607, 52713, 52285, 51990, 52570, 52647, 52514, 52809, 52351, 51978, 52803, 52395, 52053, 52698, 52182, 52450, 53152, 53029, 52748, 53558, 53608, 54218, 53719, 53460, 53798, 54331, 53461, 54191, 54010, 53807, 54639, 54058, 53385, 54084, 53796, 53991, 54017, 54110, 54998, 53898, 53873, 54850, 54393, 53648, 53686, 53852],
      "WindowCenter": [10381.0, 10323.0, 10286.0, 10246.0, 10223.0, 10204.0, 10187.0, 10176.0, 10181.0, 10207.0, 10227.0, 10237.0, 10232.0, 10240.0, 10239.0, 10266.0, 10285.0, 10311.0, 10316.0, 10323.0, 10324.0, 10316.0, 10315.0, 10313.0, 10315.0, 10309.0, 10317.0, 10308.0, 10307.0, 10298.0, 10306.0, 10312.0, 10320.0, 10301.0, 10290.0, 10301.0, 10315.0, 10335.0, 10311.0, 10284.0, 10258.0, 10234.0, 10242.0, 10259.0, 10274.0, 10279.0, 10275.0, 10260.0, 10243.0, 10250.0, 10273.0, 10277.0, 10293.0, 10298.0, 10294.0, 10309.0, 10310.0, 10313.0, 10305.0, 10295.0, 10293.0, 10285.0, 10293.0, 10289.0, 10287.0, 10290.0, 10278.0, 10274.0, 10244.0, 10255.0, 10291.0, 10306.0, 10291.0, 10258.0, 10228.0, 10189.0, 10167.0, 10171.0, 10193.0, 10199.0, 10215.0, 10224.0, 10227.0, 10232.0, 10243.0, 10244.0, 10265.0, 10278.0, 10295.0, 10305.0, 10296.0, 10285.0, 10284.0, 10283.0, 10280.0, 10279.0, 10291.0, 10301.0, 10307.0, 10286.0, 10296.0, 10307.0, 10306.0, 10311.0, 10305.0, 10300.0, 10317.0, 10308.0, 10299.0, 10289.0, 10301.0, 10311.0, 10286.0, 10272.0, 10259.0, 10252.0, 10235.0, 10245.0, 10271.0],
      "WindowWidth": [22376.0, 22207.0, 22100.0, 22000.0, 21941.0, 21893.0, 21854.0, 21827.0, 21835.0, 21892.0, 21941.0, 21965.0, 21957.0, 21976.0, 21971.0, 22036.0, 22077.0, 22135.0, 22152.0, 22166.0, 22168.0, 22150.0, 22149.0, 22142.0, 22147.0, 22136.0, 22152.0, 22134.0, 22131.0, 22109.0, 22127.0, 22140.0, 22158.0, 22119.0, 22091.0, 22114.0, 22144.0, 22191.0, 22137.0, 22074.0, 22015.0, 21960.0, 21975.0, 22014.0, 22049.0, 22061.0, 22050.0, 22019.0, 21984.0, 21998.0, 22050.0, 22061.0, 22097.0, 22104.0, 22096.0, 22127.0, 22131.0, 22137.0, 22121.0, 22097.0, 22093.0, 22076.0, 22092.0, 22087.0, 22082.0, 22085.0, 22061.0, 22054.0, 21987.0, 22006.0, 22087.0, 22123.0, 22088.0, 22013.0, 21946.0, 21859.0, 21810.0, 21817.0, 21863.0, 21882.0, 21915.0, 21935.0, 21947.0, 21954.0, 21983.0, 21986.0, 22026.0, 22062.0, 22102.0, 22122.0, 22099.0, 22075.0, 22071.0, 22069.0, 22062.0, 22059.0, 22090.0, 22113.0, 22122.0, 22076.0, 22098.0, 22123.0, 22122.0, 22129.0, 22118.0, 22112.0, 22151.0, 22126.0, 22100.0, 22083.0, 22105.0, 22126.0, 22082.0, 22047.0, 22013.0, 21998.0, 21963.0, 21989.0, 22047.0]
    },
    "slices": {}
  }
}