{
  "AcquisitionMatrixPE": 104,
  "AcquisitionNumber": 1,
  "AcquisitionTime": "10:26:6.622500",
  "BandwidthPerPixelPhaseEncode": 17.17,
  "BaseResolution": 104,
  "BodyPartExamined": "BRAIN",
  "CoilString": "HC1-7;NC1_2",
  "ConsistencyInfo": "N4_VE11C_LATEST_20160120",
  "ConversionSoftware": "dcm2niix",
  "ConversionSoftwareVersion": "v1.0.20190720  (JP2:OpenJPEG) GCC7.3.0",
  "DerivedVendorReportedEchoSpacing": 0.000560011,
  "DeviceSerialNumber": "167006",
  "DwellTime": 2.1e-06,
  "EchoTime": 0.037,
  "EchoTrainLength": 104,
  "EffectiveEchoSpacing": 0.000560011,
  "FlipAngle": 52,
  "ImageComments": "Unaliased_MB4_PE3_LB",
  "ImageOrientationPatientDICOM": [0.999585, -0.0266973, 0.0107864, 0.028794, 0.926799, -0.374451],
  "ImageType": [
    "ORIGINAL",
    "PRIMARY",
    "M",
    "MB",
    "ND",
    "MOSAIC"
],
  "ImagingFrequency": 123.259,
  "InPlanePhaseEncodingDirectionDICOM": "COL",
  "InstitutionAddress": "Chemin_Queen-Mary_4565_Montreal_District_CA_H3W_1W5",
  "InstitutionName": "IUGM",
  "InstitutionalDepartmentName": "Department",
  "MRAcquisitionType": "2D",
  "MagneticFieldStrength": 3,
  "Manufacturer": "Siemens",
  "ManufacturersModelName": "Prisma_fit",
  "Modality": "MR",
  "MultibandAccelerationFactor": 4,
  "PartialFourier": 1,
  "PatientPosition": "HFS",
  "PercentPhaseFOV": 100,
  "PhaseEncodingDirection": "j",
  "PhaseEncodingSteps": 104,
  "PhaseResolution": 1,
  "PixelBandwidth": 2290,
  "ProcedureStepDescription": "hcptrt_generic",
  "ProtocolName": "func_task-language_run-1",
  "PulseSequenceDetails": "%CustomerSeq%_cmrr_mbep2d_bold",
  "ReceiveCoilActiveElements": "HC1-7;NC1,2",
  "ReceiveCoilName": "HeadNeck_64",
  "ReconMatrixPE": 104,
  "RepetitionTime": 1.49,
  "SAR": 0.034657,
  "ScanOptions": "FS",
  "ScanningSequence": "EP",
  "SequenceName": "epfid2d1_104",
  "SequenceVariant": "SK_SS",
  "SeriesDescription": "func_task-language_run-1",
  "SeriesNumber": 19,
  "ShimSetting": [609, -7258, -8868, 381, 42, -480, -9, 30],
  "SliceThickness": 2,
  "SliceTiming": [0, 0.785, 0.1, 0.8825, 0.1975, 0.98, 0.295, 1.08, 0.3925, 1.1775, 0.49, 1.275, 0.59, 1.3725, 0.6875, 0, 0.785, 0.1, 0.8825, 0.1975, 0.98, 0.295, 1.08, 0.3925, 1.1775, 0.49, 1.275, 0.59, 1.3725, 0.6875, 0, 0.785, 0.1, 0.8825, 0.1975, 0.98, 0.295, 1.08, 0.3925, 1.1775, 0.49, 1.275, 0.59, 1.3725, 0.6875, 0, 0.785, 0.1, 0.8825, 0.1975, 0.98, 0.295, 1.08, 0.3925, 1.1775, 0.49, 1.275, 0.59, 1.3725, 0.6875],
  "SoftwareVersions": "syngo_MR_E11",
  "SpacingBetweenSlices": 2,
  "StationName": "MRC35049",
  "TaskName": "language",
  "TotalReadoutTime": 0.0576811,
  "TxRefAmp": 238.96,
  "WipMemBlock": "da6fbdf1-5b10-436b-9c04-8763527f364a||Sequence: R016 ve11c/master r/e634e98; Dec 19 2017 11:00:25 by eja",
  "dcmmeta_affine": [
    [-1.9991707801818848, 0.05758797749876976, 1.0379200610088901e-08, 99.09239196777344],
    [0.05339463800191879, 1.8535988330841064, -0.7492132186889648, -69.23971557617188],
    [0.021572845056653023, 0.7489025592803955, 1.854367733001709, -81.56385803222656],
    [0.0, 0.0, 0.0, 1.0]
],
  "dcmmeta_reorient_transform": [
    [0.0, -1.0, 0.0, 103.0],
    [1.0, 0.0, 0.0, 0.0],
    [0.0, 0.0, 1.0, 0.0],
    [0.0, 0.0, 0.0, 1.0]
],
  "dcmmeta_shape": [104, 104, 60, 159],
  "dcmmeta_slice_dim": 2,
  "dcmmeta_version": 0.6,
  "global": {
    "const": {
      "AcquisitionMatrix": [104, 0, 0, 104],
      "AngioFlag": "N",
      "BitsAllocated": 16,
      "BitsStored": 16,
      "BodyPartExamined": "BRAIN",
      "Columns": 832,
      "EchoNumbers": 1,
      "EchoTime": 37.0,
      "EchoTrainLength": 104,
      "FlipAngle": 52.0,
      "HighBit": 15,
      "ImageOrientationPatient": [0.99958536714409, -0.0266973195487, 0.01078642296251, 0.02879398880687, 0.92679941240095, -0.3744512723731],
      "ImagePositionPatient": [-853.68412700269, -776.95528617802, 260.32111164932],
      "ImageType": [
        "ORIGINAL",
        "PRIMARY",
        "M",
        "MB",
        "ND",
        "MOSAIC"
],
      "ImagedNucleus": "1H",
      "ImagingFrequency": 123.259282,
      "InPlanePhaseEncodingDirection": "COL",
      "MRAcquisitionType": "2D",
      "MagneticFieldStrength": 3.0,
      "Manufacturer": "SIEMENS",
      "ManufacturerModelName": "Prisma_fit",
      "Modality": "MR",
      "NumberOfAverages": 1.0,
      "NumberOfPhaseEncodingSteps": 104,
      "PercentPhaseFieldOfView": 100.0,
      "PercentSampling": 100.0,
      "PerformedProcedureStepStartTime": "091553.600000",
      "PhotometricInterpretation": "MONOCHROME2",
      "PixelBandwidth": 2290.0,
      "PixelRepresentation": 0,
      "PixelSpacing": [2.0, 2.0],
      "ProtocolName": "func_task-language_run-1",
      "RepetitionTime": 1490.0,
      "Rows": 832,
      "SAR": 0.03465700134548,
      "SamplesPerPixel": 1,
      "ScanOptions": "FS",
      "ScanningSequence": "EP",
      "SequenceName": "epfid2d1_104",
      "SequenceVariant": [
        "SK",
        "SS"
],
      "SeriesDescription": "func_task-language_run-1",
      "SeriesNumber": 19,
      "SeriesTime": "102720.771000",
      "SliceLocation": -49.687039747185,
      "SliceThickness": 2.0,
      "SmallestImagePixelValue": 0,
      "SoftwareVersions": "syngo MR E11",
      "SpacingBetweenSlices": 2.0000000084052,
      "SpecificCharacterSet": "ISO_IR 100",
      "StudyID": "1",
      "StudyTime": "091553.432000",
      "TransmitCoilName": "Body",
      "VariableFlipAngleFlag": "N",
      "WindowCenterWidthExplanation": "Algo1",
      "dBdt": 0.0},
    "slices": {}
  },
  "time": {
    "samples": {
      "AcquisitionNumber": [1, 2, 3, 4, 5, 6, 7, 8, 9, 10, 11, 12, 13, 14, 15, 16, 17, 18, 19, 20, 21, 22, 23, 24, 25, 26, 27, 28, 29, 30, 31, 32, 33, 34, 35, 36, 37, 38, 39, 40, 41, 42, 43, 44, 45, 46, 47, 48, 49, 50, 51, 52, 53, 54, 55, 56, 57, 58, 59, 60, 61, 62, 63, 64, 65, 66, 67, 68, 69, 70, 71, 72, 73, 74, 75, 76, 77, 78, 79, 80, 81, 82, 83, 84, 85, 86, 87, 88, 89, 90, 91, 92, 93, 94, 95, 96, 97, 98, 99, 100, 101, 102, 103, 104, 105, 106, 107, 108, 109, 110, 111, 112, 113, 114, 115, 116, 117, 118, 119, 120, 121, 122, 123, 124, 125, 126, 127, 128, 129, 130, 131, 132, 133, 134, 135, 136, 137, 138, 139, 140, 141, 142, 143, 144, 145, 146, 147, 148, 149, 150, 151, 152, 153, 154, 155, 156, 157, 158, 159],
      "AcquisitionTime": ["102606.622500", "102608.112500", "102609.602500", "102611.092500", "102612.582500", "102614.072500", "102615.562500", "102617.052500", "102618.542500", "102620.032500", "102621.522500", "102623.012500", "102624.502500", "102625.992500", "102627.482500", "102628.972500", "102630.462500", "102631.952500", "102633.442500", "102634.932500", "102636.422500", "102637.912500", "102639.402500", "102640.892500", "102642.382500", "102643.872500", "102645.362500", "102646.852500", "102648.342500", "102649.832500", "102651.322500", "102652.812500", "102654.302500", "102655.792500", "102657.282500", "102658.772500", "102700.262500", "102701.752500", "102703.242500", "102704.732500", "102706.222500", "102707.712500", "102709.202500", "102710.692500", "102712.182500", "102713.672500", "102715.162500", "102716.652500", "102718.142500", "102719.632500", "102721.122500", "102722.612500", "102724.102500", "102725.592500", "102727.082500", "102728.572500", "102730.062500", "102731.552500", "102733.042500", "102734.532500", "102736.022500", "102737.512500", "102739.002500", "102740.492500", "102741.982500", "102743.472500", "102744.962500", "102746.452500", "102747.942500", "102749.432500", "102750.922500", "102752.412500", "102753.902500", "102755.392500", "102756.882500", "102758.372500", "102759.862500", "102801.352500", "102802.842500", "102804.332500", "102805.822500", "102807.312500", "102808.802500", "102810.292500", "102811.782500", "102813.272500", "102814.762500", "102816.252500", "102817.742500", "102819.232500", "102820.722500", "102822.212500", "102823.702500", "102825.192500", "102826.682500", "102828.172500", "102829.662500", "102831.152500", "102832.642500", "102834.132500", "102835.622500", "102837.112500", "102838.602500", "102840.092500", "102841.582500", "102843.072500", "102844.562500", "102846.052500", "102847.542500", "102849.032500", "102850.522500", "102852.012500", "102853.502500", "102854.992500", "102856.482500", "102857.972500", "102859.462500", "102900.952500", "102902.442500", "102903.932500", "102905.422500", "102906.912500", "102908.402500", "102909.892500", "102911.382500", "102912.872500", "102914.362500", "102915.852500", "102917.342500", "102918.832500", "102920.322500", "102921.812500", "102923.302500", "102924.792500", "102926.282500", "102927.772500", "102929.262500", "102930.752500", "102932.242500", "102933.732500", "102935.222500", "102936.712500", "102938.202500", "102939.692500", "102941.182500", "102942.672500", "102944.162500", "102945.652500", "102947.142500", "102948.632500", "102950.122500", "102951.612500", "102953.102500", "102954.592500", "102956.082500", "102957.572500", "102959.062500", "103000.552500", "103002.042500"],
      "ContentTime": ["102720.774000", "102720.783000", "102720.786000", "102720.789000", "102720.792000", "102720.795000", "102720.798000", "102720.801000", "102720.803000", "102720.806000", "102720.809000", "102720.812000", "102720.815000", "102720.818000", "102720.821000", "102720.824000", "102720.827000", "102720.829000", "102720.832000", "102720.835000", "102740.772000", "102740.775000", "102740.778000", "102740.781000", "102740.799000", "102740.802000", "102740.805000", "102740.808000", "102740.811000", "102740.814000", "102740.817000", "102740.820000", "102740.822000", "102740.825000", "102740.828000", "102740.831000", "102740.834000", "102740.837000", "102740.840000", "102740.843000", "102740.846000", "102800.772000", "102800.779000", "102800.782000", "102800.785000", "102800.788000", "102800.791000", "102800.794000", "102800.797000", "102800.800000", "102800.803000", "102800.806000", "102800.808000", "102800.811000", "102800.814000", "102800.817000", "102800.820000", "102800.823000", "102800.826000", "102800.828000", "102800.831000", "102820.772000", "102820.775000", "102820.778000", "102820.781000", "102820.784000", "102820.787000", "102820.789000", "102820.792000", "102820.795000", "102820.798000", "102820.801000", "102820.804000", "102820.807000", "102820.810000", "102820.812000", "102820.815000", "102820.818000", "102820.824000", "102820.826000", "102820.829000", "102840.772000", "102840.775000", "102840.778000", "102840.781000", "102840.784000", "102840.786000", "102840.789000", "102840.792000", "102840.795000", "102840.798000", "102840.801000", "102840.804000", "102840.807000", "102840.810000", "102840.812000", "102840.815000", "102840.818000", "102840.821000", "102840.824000", "102840.827000", "102920.773000", "102920.776000", "102920.779000", "102920.782000", "102920.785000", "102920.788000", "102920.790000", "102920.793000", "102920.796000", "102920.805000", "102920.808000", "102920.811000", "102920.814000", "102920.817000", "102920.820000", "102920.823000", "102920.825000", "102920.829000", "102920.831000", "102920.834000", "102920.837000", "102920.840000", "102920.843000", "102920.846000", "102920.849000", "102920.852000", "102920.854000", "102920.857000", "103000.772000", "103000.775000", "103000.778000", "103000.781000", "103000.784000", "103000.787000", "103000.790000", "103000.793000", "103000.795000", "103000.798000", "103000.801000", "103000.804000", "103000.807000", "103000.810000", "103000.813000", "103000.816000", "103000.819000", "103000.822000", "103000.824000", "103000.827000", "103000.830000", "103000.833000", "103000.836000", "103000.839000", "103000.842000", "103000.845000", "103000.847000", "103004.582000", "103004.585000", "103004.588000"],
      "InstanceCreationTime": ["102720.774000", "102720.783000", "102720.786000", "102720.789000", "102720.792000", "102720.795000", "102720.798000", "102720.801000", "102720.803000", "102720.806000", "102720.809000", "102720.812000", "102720.815000", "102720.818000", "102720.821000", "102720.824000", "102720.827000", "102720.829000", "102720.832000", "102720.835000", "102740.772000", "102740.775000", "102740.778000", "102740.781000", "102740.799000", "102740.802000", "102740.805000", "102740.808000", "102740.811000", "102740.814000", "102740.817000", "102740.820000", "102740.822000", "102740.825000", "102740.828000", "102740.831000", "102740.834000", "102740.837000", "102740.840000", "102740.843000", "102740.846000", "102800.772000", "102800.779000", "102800.782000", "102800.785000", "102800.788000", "102800.791000", "102800.794000", "102800.797000", "102800.800000", "102800.803000", "102800.806000", "102800.808000", "102800.811000", "102800.814000", "102800.817000", "102800.820000", "102800.823000", "102800.826000", "102800.828000", "102800.831000", "102820.772000", "102820.775000", "102820.778000", "102820.781000", "102820.784000", "102820.787000", "102820.789000", "102820.792000", "102820.795000", "102820.798000", "102820.801000", "102820.804000", "102820.807000", "102820.810000", "102820.812000", "102820.815000", "102820.818000", "102820.824000", "102820.826000", "102820.829000", "102840.772000", "102840.775000", "102840.778000", "102840.781000", "102840.784000", "102840.786000", "102840.789000", "102840.792000", "102840.795000", "102840.798000", "102840.801000", "102840.804000", "102840.807000", "102840.810000", "102840.812000", "102840.815000", "102840.818000", "102840.821000", "102840.824000", "102840.827000", "102920.773000", "102920.776000", "102920.779000", "102920.782000", "102920.785000", "102920.788000", "102920.790000", "102920.793000", "102920.796000", "102920.805000", "102920.808000", "102920.811000", "102920.814000", "102920.817000", "102920.820000", "102920.823000", "102920.825000", "102920.829000", "102920.831000", "102920.834000", "102920.837000", "102920.840000", "102920.843000", "102920.846000", "102920.849000", "102920.852000", "102920.854000", "102920.857000", "103000.772000", "103000.775000", "103000.778000", "103000.781000", "103000.784000", "103000.787000", "103000.790000", "103000.793000", "103000.795000", "103000.798000", "103000.801000", "103000.804000", "103000.807000", "103000.810000", "103000.813000", "103000.816000", "103000.819000", "103000.822000", "103000.824000", "103000.827000", "103000.830000", "103000.833000", "103000.836000", "103000.839000", "103000.842000", "103000.845000", "103000.847000", "103004.582000", "103004.585000", "103004.588000"],
      "InstanceNumber": [1, 2, 3, 4, 5, 6, 7, 8, 9, 10, 11, 12, 13, 14, 15, 16, 17, 18, 19, 20, 21, 22, 23, 24, 25, 26, 27, 28, 29, 30, 31, 32, 33, 34, 35, 36, 37, 38, 39, 40, 41, 42, 43, 44, 45, 46, 47, 48, 49, 50, 51, 52, 53, 54, 55, 56, 57, 58, 59, 60, 61, 62, 63, 64, 65, 66, 67, 68, 69, 70, 71, 72, 73, 74, 75, 76, 77, 78, 79, 80, 81, 82, 83, 84, 85, 86, 87, 88, 89, 90, 91, 92, 93, 94, 95, 96, 97, 98, 99, 100, 101, 102, 103, 104, 105, 106, 107, 108, 109, 110, 111, 112, 113, 114, 115, 116, 117, 118, 119, 120, 121, 122, 123, 124, 125, 126, 127, 128, 129, 130, 131, 132, 133, 134, 135, 136, 137, 138, 139, 140, 141, 142, 143, 144, 145, 146, 147, 148, 149, 150, 151, 152, 153, 154, 155, 156, 157, 158, 159],
      "LargestImagePixelValue": [59670, 57464, 56850, 56089, 55639, 55341, 54896, 55260, 55202, 55085, 54810, 55069, 55206, 55352, 54744, 55736, 54945, 55675, 54778, 55454, 54939, 55054, 55068, 54906, 54548, 54346, 54102, 55134, 54034, 54234, 54248, 53897, 54336, 54037, 54239, 54174, 54326, 53947, 54085, 54418, 53684, 53802, 54208, 54497, 54317, 54011, 55071, 53974, 54109, 54318, 54312, 54602, 54034, 54792, 54429, 54534, 54374, 54350, 54257, 53554, 54363, 53838, 53911, 53969, 53857, 54346, 53566, 54010, 53711, 53900, 54232, 54480, 54020, 53755, 53694, 53714, 53768, 53484, 53540, 54107, 54114, 53700, 54503, 53600, 54123, 53823, 54594, 53938, 54036, 53537, 54195, 53919, 54241, 53467, 53897, 53624, 53904, 53078, 53870, 53297, 53886, 53321, 53599, 53703, 54161, 54146, 53555, 54733, 53876, 54298, 54088, 54408, 54059, 53760, 53493, 54135, 53986, 54227, 53952, 53981, 54029, 54498, 53350, 54783, 53850, 54728, 53870, 54442, 53998, 53988, 54828, 53880, 53834, 53789, 53335, 53906, 52873, 53480, 53661, 53905, 53386, 53320, 53655, 53573, 53911, 53707, 53816, 53265, 53714, 53442, 53356, 53406, 53491, 53574, 53988, 53485, 53104, 53316, 53319],
      "WindowCenter": [10447.0, 10381.0, 10356.0, 10332.0, 10314.0, 10296.0, 10295.0, 10318.0, 10344.0, 10362.0, 10373.0, 10382.0, 10398.0, 10408.0, 10395.0, 10398.0, 10378.0, 10381.0, 10360.0, 10365.0, 10357.0, 10355.0, 10355.0, 10355.0, 10360.0, 10374.0, 10363.0, 10364.0, 10335.0, 10326.0, 10338.0, 10357.0, 10392.0, 10403.0, 10397.0, 10382.0, 10370.0, 10342.0, 10343.0, 10362.0, 10369.0, 10373.0, 10372.0, 10368.0, 10359.0, 10343.0, 10346.0, 10335.0, 10348.0, 10350.0, 10351.0, 10365.0, 10359.0, 10352.0, 10348.0, 10334.0, 10339.0, 10341.0, 10340.0, 10336.0, 10338.0, 10334.0, 10341.0, 10350.0, 10352.0, 10358.0, 10347.0, 10358.0, 10360.0, 10354.0, 10360.0, 10356.0, 10352.0, 10351.0, 10354.0, 10351.0, 10346.0, 10329.0, 10319.0, 10323.0, 10341.0, 10343.0, 10360.0, 10369.0, 10375.0, 10364.0, 10365.0, 10352.0, 10337.0, 10327.0, 10334.0, 10335.0, 10350.0, 10346.0, 10353.0, 10361.0, 10369.0, 10372.0, 10388.0, 10389.0, 10387.0, 10381.0, 10375.0, 10372.0, 10361.0, 10361.0, 10354.0, 10369.0, 10372.0, 10372.0, 10365.0, 10361.0, 10346.0, 10338.0, 10339.0, 10370.0, 10388.0, 10391.0, 10381.0, 10376.0, 10361.0, 10360.0, 10346.0, 10366.0, 10379.0, 10403.0, 10400.0, 10400.0, 10381.0, 10356.0, 10336.0, 10318.0, 10318.0, 10342.0, 10362.0, 10379.0, 10362.0, 10358.0, 10339.0, 10340.0, 10337.0, 10338.0, 10346.0, 10354.0, 10363.0, 10364.0, 10363.0, 10342.0, 10340.0, 10333.0, 10346.0, 10358.0, 10375.0, 10377.0, 10381.0, 10357.0, 10345.0, 10345.0, 10355.0],
      "WindowWidth": [22536.0, 22347.0, 22265.0, 22202.0, 22155.0, 22110.0, 22104.0, 22156.0, 22215.0, 22256.0, 22284.0, 22303.0, 22339.0, 22363.0, 22337.0, 22337.0, 22295.0, 22297.0, 22253.0, 22262.0, 22246.0, 22239.0, 22239.0, 22240.0, 22255.0, 22287.0, 22266.0, 22262.0, 22201.0, 22179.0, 22206.0, 22250.0, 22328.0, 22357.0, 22343.0, 22309.0, 22280.0, 22215.0, 22217.0, 22258.0, 22276.0, 22289.0, 22285.0, 22271.0, 22253.0, 22217.0, 22221.0, 22201.0, 22228.0, 22232.0, 22232.0, 22262.0, 22250.0, 22231.0, 22221.0, 22192.0, 22201.0, 22208.0, 22205.0, 22198.0, 22197.0, 22193.0, 22209.0, 22228.0, 22235.0, 22246.0, 22225.0, 22246.0, 22256.0, 22241.0, 22253.0, 22243.0, 22235.0, 22232.0, 22238.0, 22229.0, 22222.0, 22186.0, 22163.0, 22168.0, 22210.0, 22217.0, 22253.0, 22276.0, 22288.0, 22264.0, 22263.0, 22236.0, 22203.0, 22181.0, 22193.0, 22199.0, 22228.0, 22225.0, 22238.0, 22260.0, 22277.0, 22288.0, 22322.0, 22324.0, 22316.0, 22306.0, 22293.0, 22282.0, 22259.0, 22264.0, 22251.0, 22281.0, 22289.0, 22286.0, 22274.0, 22263.0, 22231.0, 22214.0, 22219.0, 22287.0, 22328.0, 22332.0, 22307.0, 22301.0, 22266.0, 22261.0, 22233.0, 22276.0, 22308.0, 22359.0, 22353.0, 22352.0, 22311.0, 22252.0, 22206.0, 22167.0, 22168.0, 22224.0, 22268.0, 22301.0, 22266.0, 22254.0, 22211.0, 22221.0, 22213.0, 22218.0, 22230.0, 22248.0, 22267.0, 22267.0, 22271.0, 22227.0, 22218.0, 22205.0, 22232.0, 22265.0, 22299.0, 22299.0, 22303.0, 22249.0, 22227.0, 22223.0, 22247.0]
    },
    "slices": {}
  }
}