{
  "AcquisitionMatrixPE": 104,
  "AcquisitionNumber": 1,
  "AcquisitionTime": "16:41:35.565000",
  "BandwidthPerPixelPhaseEncode": 17.17,
  "BaseResolution": 104,
  "BodyPartExamined": "BRAIN",
  "CoilString": "HC1-7;NC1_2",
  "ConsistencyInfo": "N4_VE11C_LATEST_20160120",
  "ConversionSoftware": "dcm2niix",
  "ConversionSoftwareVersion": "v1.0.20190720  (JP2:OpenJPEG) GCC7.3.0",
  "DerivedVendorReportedEchoSpacing": 0.000560011,
  "DeviceSerialNumber": "167006",
  "DwellTime": 2.1e-06,
  "EchoTime": 0.037,
  "EchoTrainLength": 104,
  "EffectiveEchoSpacing": 0.000560011,
  "FlipAngle": 52,
  "ImageComments": "Unaliased_MB4_PE3_LB",
  "ImageOrientationPatientDICOM": [0.99867, 0.0331527, 0.0394955, -0.0198728, 0.954212, -0.298471],
  "ImageType": [
    "ORIGINAL",
    "PRIMARY",
    "M",
    "MB",
    "ND",
    "MOSAIC"
],
  "ImagingFrequency": 123.26,
  "InPlanePhaseEncodingDirectionDICOM": "COL",
  "InstitutionAddress": "Chemin_Queen-Mary_4565_Montreal_District_CA_H3W_1W5",
  "InstitutionName": "IUGM",
  "InstitutionalDepartmentName": "Department",
  "MRAcquisitionType": "2D",
  "MagneticFieldStrength": 3,
  "Manufacturer": "Siemens",
  "ManufacturersModelName": "Prisma_fit",
  "Modality": "MR",
  "MultibandAccelerationFactor": 4,
  "PartialFourier": 1,
  "PatientPosition": "HFS",
  "PercentPhaseFOV": 100,
  "PhaseEncodingDirection": "j",
  "PhaseEncodingSteps": 104,
  "PhaseResolution": 1,
  "PixelBandwidth": 2290,
  "ProcedureStepDescription": "hcptrt_generic",
  "ProtocolName": "func_task-wm_run-2",
  "PulseSequenceDetails": "%CustomerSeq%_cmrr_mbep2d_bold",
  "ReceiveCoilActiveElements": "HC1-7;NC1,2",
  "ReceiveCoilName": "HeadNeck_64",
  "ReconMatrixPE": 104,
  "RepetitionTime": 1.49,
  "SAR": 0.0389584,
  "ScanOptions": "FS",
  "ScanningSequence": "EP",
  "SequenceName": "epfid2d1_104",
  "SequenceVariant": "SK_SS",
  "SeriesDescription": "func_task-wm_run-2",
  "SeriesNumber": 32,
  "ShimSetting": [633, -7201, -8803, 736, 99, -17, -25, -6],
  "SliceThickness": 2,
  "SliceTiming": [0, 0.785, 0.0975, 0.8825, 0.1975, 0.98, 0.295, 1.0775, 0.3925, 1.1775, 0.49, 1.275, 0.5875, 1.3725, 0.6875, 0, 0.785, 0.0975, 0.8825, 0.1975, 0.98, 0.295, 1.0775, 0.3925, 1.1775, 0.49, 1.275, 0.5875, 1.3725, 0.6875, 0, 0.785, 0.0975, 0.8825, 0.1975, 0.98, 0.295, 1.0775, 0.3925, 1.1775, 0.49, 1.275, 0.5875, 1.3725, 0.6875, 0, 0.785, 0.0975, 0.8825, 0.1975, 0.98, 0.295, 1.0775, 0.3925, 1.1775, 0.49, 1.275, 0.5875, 1.3725, 0.6875],
  "SoftwareVersions": "syngo_MR_E11",
  "SpacingBetweenSlices": 2,
  "StationName": "MRC35049",
  "TaskName": "wm",
  "TotalReadoutTime": 0.0576811,
  "TxRefAmp": 251.132,
  "WipMemBlock": "10708e95-9568-4e6e-8c52-84ca00e999d3||Sequence: R016 ve11c/master r/e634e98; Dec 19 2017 11:00:25 by eja",
  "dcmmeta_affine": [
    [-1.9973392486572266, -0.039745692163705826, 0.09516441076993942, 108.04608917236328],
    [-0.06630539149045944, 1.9084233045578003, -0.5945789813995361, -64.00479888916016],
    [0.07899101078510284, 0.5969429016113281, 1.907202124595642, -63.6489143371582],
    [0.0, 0.0, 0.0, 1.0]
],
  "dcmmeta_reorient_transform": [
    [0.0, -1.0, 0.0, 103.0],
    [1.0, 0.0, 0.0, 0.0],
    [0.0, 0.0, 1.0, 0.0],
    [0.0, 0.0, 0.0, 1.0]
],
  "dcmmeta_shape": [104, 104, 60, 202],
  "dcmmeta_slice_dim": 2,
  "dcmmeta_version": 0.6,
  "global": {
    "const": {
      "AcquisitionMatrix": [104, 0, 0, 104],
      "AngioFlag": "N",
      "BitsAllocated": 16,
      "BitsStored": 16,
      "BodyPartExamined": "BRAIN",
      "Columns": 832,
      "EchoNumbers": 1,
      "EchoTime": 37.0,
      "EchoTrainLength": 104,
      "FlipAngle": 52.0,
      "HighBit": 15,
      "ImageOrientationPatient": [0.99866961700931, 0.0331526949793, 0.03949550453015, -0.0198728455879, 0.95421164494526, -0.298471450325],
      "ImagePositionPatient": [-816.51633350417, -851.36403625852, 186.37069114019],
      "ImageType": [
        "ORIGINAL",
        "PRIMARY",
        "M",
        "MB",
        "ND",
        "MOSAIC"
],
      "ImagedNucleus": "1H",
      "ImagingFrequency": 123.259575,
      "InPlanePhaseEncodingDirection": "COL",
      "MRAcquisitionType": "2D",
      "MagneticFieldStrength": 3.0,
      "Manufacturer": "SIEMENS",
      "ManufacturerModelName": "Prisma_fit",
      "Modality": "MR",
      "NumberOfAverages": 1.0,
      "NumberOfPhaseEncodingSteps": 104,
      "PercentPhaseFieldOfView": 100.0,
      "PercentSampling": 100.0,
      "PerformedProcedureStepStartTime": "153820.893000",
      "PhotometricInterpretation": "MONOCHROME2",
      "PixelBandwidth": 2290.0,
      "PixelRepresentation": 0,
      "PixelSpacing": [2.0, 2.0],
      "ProtocolName": "func_task-wm_run-2",
      "RepetitionTime": 1490.0,
      "Rows": 832,
      "SAR": 0.03895839713045,
      "SamplesPerPixel": 1,
      "ScanOptions": "FS",
      "ScanningSequence": "EP",
      "SequenceName": "epfid2d1_104",
      "SequenceVariant": [
        "SK",
        "SS"
],
      "SeriesDescription": "func_task-wm_run-2",
      "SeriesNumber": 32,
      "SeriesTime": "164302.422000",
      "SliceLocation": -36.526645740323,
      "SliceThickness": 2.0,
      "SmallestImagePixelValue": 0,
      "SoftwareVersions": "syngo MR E11",
      "SpacingBetweenSlices": 2.0000000456438,
      "SpecificCharacterSet": "ISO_IR 100",
      "StudyID": "1",
      "StudyTime": "153820.829000",
      "TransmitCoilName": "Body",
      "VariableFlipAngleFlag": "N",
      "dBdt": 0.0},
    "slices": {}
  },
  "time": {
    "samples": {
      "AcquisitionNumber": [1, 2, 3, 4, 5, 6, 7, 8, 9, 10, 11, 12, 13, 14, 15, 16, 17, 18, 19, 20, 21, 22, 23, 24, 25, 26, 27, 28, 29, 30, 31, 32, 33, 34, 35, 36, 37, 38, 39, 40, 41, 42, 43, 44, 45, 46, 47, 48, 49, 50, 51, 52, 53, 54, 55, 56, 57, 58, 59, 60, 61, 62, 63, 64, 65, 66, 67, 68, 69, 70, 71, 72, 73, 74, 75, 76, 77, 78, 79, 80, 81, 82, 83, 84, 85, 86, 87, 88, 89, 90, 91, 92, 93, 94, 95, 96, 97, 98, 99, 100, 101, 102, 103, 104, 105, 106, 107, 108, 109, 110, 111, 112, 113, 114, 115, 116, 117, 118, 119, 120, 121, 122, 123, 124, 125, 126, 127, 128, 129, 130, 131, 132, 133, 134, 135, 136, 137, 138, 139, 140, 141, 142, 143, 144, 145, 146, 147, 148, 149, 150, 151, 152, 153, 154, 155, 156, 157, 158, 159, 160, 161, 162, 163, 164, 165, 166, 167, 168, 169, 170, 171, 172, 173, 174, 175, 176, 177, 178, 179, 180, 181, 182, 183, 184, 185, 186, 187, 188, 189, 190, 191, 192, 193, 194, 195, 196, 197, 198, 199, 200, 201, 202],
      "AcquisitionTime": ["164135.565000", "164137.055000", "164138.545000", "164140.035000", "164141.525000", "164143.015000", "164144.505000", "164145.995000", "164147.485000", "164148.975000", "164150.465000", "164151.955000", "164153.445000", "164154.935000", "164156.425000", "164157.915000", "164159.405000", "164200.895000", "164202.385000", "164203.875000", "164205.365000", "164206.855000", "164208.345000", "164209.835000", "164211.325000", "164212.815000", "164214.305000", "164215.795000", "164217.285000", "164218.775000", "164220.265000", "164221.755000", "164223.245000", "164224.735000", "164226.225000", "164227.715000", "164229.205000", "164230.695000", "164232.185000", "164233.675000", "164235.165000", "164236.655000", "164238.145000", "164239.635000", "164241.125000", "164242.615000", "164244.105000", "164245.595000", "164247.085000", "164248.575000", "164250.065000", "164251.555000", "164253.045000", "164254.535000", "164256.025000", "164257.515000", "164259.005000", "164300.495000", "164301.985000", "164303.475000", "164304.965000", "164306.455000", "164307.945000", "164309.435000", "164310.925000", "164312.415000", "164313.905000", "164315.395000", "164316.885000", "164318.375000", "164319.865000", "164321.355000", "164322.845000", "164324.335000", "164325.825000", "164327.315000", "164328.805000", "164330.295000", "164331.785000", "164333.275000", "164334.765000", "164336.255000", "164337.745000", "164339.235000", "164340.725000", "164342.215000", "164343.705000", "164345.195000", "164346.685000", "164348.175000", "164349.665000", "164351.155000", "164352.645000", "164354.135000", "164355.625000", "164357.115000", "164358.605000", "164400.095000", "164401.585000", "164403.075000", "164404.565000", "164406.055000", "164407.545000", "164409.035000", "164410.525000", "164412.015000", "164413.505000", "164414.995000", "164416.485000", "164417.975000", "164419.465000", "164420.955000", "164422.445000", "164423.935000", "164425.425000", "164426.915000", "164428.405000", "164429.895000", "164431.385000", "164432.875000", "164434.365000", "164435.855000", "164437.345000", "164438.835000", "164440.325000", "164441.815000", "164443.305000", "164444.795000", "164446.285000", "164447.775000", "164449.265000", "164450.755000", "164452.245000", "164453.735000", "164455.225000", "164456.715000", "164458.205000", "164459.695000", "164501.185000", "164502.675000", "164504.165000", "164505.655000", "164507.145000", "164508.635000", "164510.125000", "164511.615000", "164513.105000", "164514.595000", "164516.085000", "164517.575000", "164519.065000", "164520.555000", "164522.045000", "164523.535000", "164525.025000", "164526.515000", "164528.005000", "164529.495000", "164530.985000", "164532.475000", "164533.965000", "164535.455000", "164536.945000", "164538.435000", "164539.925000", "164541.415000", "164542.905000", "164544.395000", "164545.885000", "164547.375000", "164548.865000", "164550.355000", "164551.845000", "164553.335000", "164554.825000", "164556.315000", "164557.805000", "164559.295000", "164600.785000", "164602.275000", "164603.765000", "164605.255000", "164606.745000", "164608.235000", "164609.725000", "164611.215000", "164612.705000", "164614.195000", "164615.685000", "164617.175000", "164618.665000", "164620.155000", "164621.645000", "164623.135000", "164624.625000", "164626.115000", "164627.605000", "164629.095000", "164630.585000", "164632.075000", "164633.565000", "164635.055000"],
      "ContentTime": ["164302.425000", "164302.428000", "164302.431000", "164302.434000", "164302.437000", "164302.440000", "164302.443000", "164302.446000", "164302.449000", "164302.452000", "164302.455000", "164302.458000", "164302.461000", "164302.464000", "164302.466000", "164302.469000", "164302.472000", "164302.475000", "164302.478000", "164302.488000", "164302.491000", "164302.493000", "164302.496000", "164302.499000", "164302.502000", "164302.505000", "164302.508000", "164302.511000", "164302.514000", "164302.517000", "164302.520000", "164322.389000", "164322.392000", "164322.395000", "164322.398000", "164322.401000", "164322.404000", "164322.407000", "164322.410000", "164322.413000", "164322.416000", "164322.419000", "164322.421000", "164322.424000", "164322.427000", "164322.430000", "164322.433000", "164322.436000", "164322.439000", "164322.442000", "164322.445000", "164342.389000", "164342.392000", "164342.403000", "164342.406000", "164342.409000", "164342.412000", "164342.415000", "164342.418000", "164342.421000", "164342.424000", "164342.427000", "164342.429000", "164342.432000", "164342.435000", "164342.438000", "164342.441000", "164342.444000", "164342.447000", "164342.450000", "164342.453000", "164402.388000", "164402.398000", "164402.401000", "164402.404000", "164402.407000", "164402.410000", "164402.413000", "164402.416000", "164402.419000", "164402.422000", "164402.425000", "164402.428000", "164402.431000", "164402.434000", "164402.437000", "164402.439000", "164402.442000", "164402.445000", "164402.448000", "164402.451000", "164422.389000", "164422.392000", "164422.395000", "164422.398000", "164422.401000", "164422.406000", "164422.409000", "164422.412000", "164422.415000", "164422.418000", "164422.421000", "164422.424000", "164422.427000", "164422.430000", "164422.433000", "164422.436000", "164422.439000", "164422.450000", "164422.453000", "164422.456000", "164502.389000", "164502.392000", "164502.395000", "164502.398000", "164502.401000", "164502.404000", "164502.407000", "164502.410000", "164502.413000", "164502.416000", "164502.419000", "164502.422000", "164502.424000", "164502.427000", "164502.430000", "164502.433000", "164502.436000", "164502.439000", "164502.442000", "164502.445000", "164502.448000", "164502.451000", "164502.454000", "164502.457000", "164502.460000", "164502.463000", "164502.466000", "164542.389000", "164542.392000", "164542.395000", "164542.398000", "164542.401000", "164542.404000", "164542.407000", "164542.410000", "164542.413000", "164542.416000", "164542.419000", "164542.422000", "164542.425000", "164542.428000", "164542.431000", "164542.434000", "164542.437000", "164542.440000", "164542.461000", "164542.465000", "164542.470000", "164542.474000", "164542.477000", "164542.480000", "164542.483000", "164542.487000", "164622.388000", "164622.391000", "164622.394000", "164622.397000", "164622.400000", "164622.403000", "164622.406000", "164622.409000", "164622.412000", "164622.415000", "164622.418000", "164622.421000", "164622.424000", "164622.427000", "164622.429000", "164622.432000", "164622.435000", "164622.438000", "164622.441000", "164622.444000", "164622.447000", "164622.450000", "164622.453000", "164622.456000", "164622.459000", "164622.462000", "164622.470000", "164637.663000", "164637.666000", "164637.669000", "164637.672000", "164637.675000", "164637.678000", "164637.681000", "164637.684000", "164637.687000", "164637.699000", "164637.702000"],
      "InstanceCreationTime": ["164302.425000", "164302.428000", "164302.431000", "164302.434000", "164302.437000", "164302.440000", "164302.443000", "164302.446000", "164302.449000", "164302.452000", "164302.455000", "164302.458000", "164302.461000", "164302.464000", "164302.466000", "164302.469000", "164302.472000", "164302.475000", "164302.478000", "164302.488000", "164302.491000", "164302.493000", "164302.496000", "164302.499000", "164302.502000", "164302.505000", "164302.508000", "164302.511000", "164302.514000", "164302.517000", "164302.520000", "164322.389000", "164322.392000", "164322.395000", "164322.398000", "164322.401000", "164322.404000", "164322.407000", "164322.410000", "164322.413000", "164322.416000", "164322.419000", "164322.421000", "164322.424000", "164322.427000", "164322.430000", "164322.433000", "164322.436000", "164322.439000", "164322.442000", "164322.445000", "164342.389000", "164342.392000", "164342.403000", "164342.406000", "164342.409000", "164342.412000", "164342.415000", "164342.418000", "164342.421000", "164342.424000", "164342.427000", "164342.429000", "164342.432000", "164342.435000", "164342.438000", "164342.441000", "164342.444000", "164342.447000", "164342.450000", "164342.453000", "164402.388000", "164402.398000", "164402.401000", "164402.404000", "164402.407000", "164402.410000", "164402.413000", "164402.416000", "164402.419000", "164402.422000", "164402.425000", "164402.428000", "164402.431000", "164402.434000", "164402.437000", "164402.439000", "164402.442000", "164402.445000", "164402.448000", "164402.451000", "164422.389000", "164422.392000", "164422.395000", "164422.398000", "164422.401000", "164422.406000", "164422.409000", "164422.412000", "164422.415000", "164422.418000", "164422.421000", "164422.424000", "164422.427000", "164422.430000", "164422.433000", "164422.436000", "164422.439000", "164422.450000", "164422.453000", "164422.456000", "164502.389000", "164502.392000", "164502.395000", "164502.398000", "164502.401000", "164502.404000", "164502.407000", "164502.410000", "164502.413000", "164502.416000", "164502.419000", "164502.422000", "164502.424000", "164502.427000", "164502.430000", "164502.433000", "164502.436000", "164502.439000", "164502.442000", "164502.445000", "164502.448000", "164502.451000", "164502.454000", "164502.457000", "164502.460000", "164502.463000", "164502.466000", "164542.389000", "164542.392000", "164542.395000", "164542.398000", "164542.401000", "164542.404000", "164542.407000", "164542.410000", "164542.413000", "164542.416000", "164542.419000", "164542.422000", "164542.425000", "164542.428000", "164542.431000", "164542.434000", "164542.437000", "164542.440000", "164542.461000", "164542.465000", "164542.470000", "164542.474000", "164542.477000", "164542.480000", "164542.483000", "164542.487000", "164622.388000", "164622.391000", "164622.394000", "164622.397000", "164622.400000", "164622.403000", "164622.406000", "164622.409000", "164622.412000", "164622.415000", "164622.418000", "164622.421000", "164622.424000", "164622.427000", "164622.429000", "164622.432000", "164622.435000", "164622.438000", "164622.441000", "164622.444000", "164622.447000", "164622.450000", "164622.453000", "164622.456000", "164622.459000", "164622.462000", "164622.470000", "164637.663000", "164637.666000", "164637.669000", "164637.672000", "164637.675000", "164637.678000", "164637.681000", "164637.684000", "164637.687000", "164637.699000", "164637.702000"],
      "InstanceNumber": [1, 2, 3, 4, 5, 6, 7, 8, 9, 10, 11, 12, 13, 14, 15, 16, 17, 18, 19, 20, 21, 22, 23, 24, 25, 26, 27, 28, 29, 30, 31, 32, 33, 34, 35, 36, 37, 38, 39, 40, 41, 42, 43, 44, 45, 46, 47, 48, 49, 50, 51, 52, 53, 54, 55, 56, 57, 58, 59, 60, 61, 62, 63, 64, 65, 66, 67, 68, 69, 70, 71, 72, 73, 74, 75, 76, 77, 78, 79, 80, 81, 82, 83, 84, 85, 86, 87, 88, 89, 90, 91, 92, 93, 94, 95, 96, 97, 98, 99, 100, 101, 102, 103, 104, 105, 106, 107, 108, 109, 110, 111, 112, 113, 114, 115, 116, 117, 118, 119, 120, 121, 122, 123, 124, 125, 126, 127, 128, 129, 130, 131, 132, 133, 134, 135, 136, 137, 138, 139, 140, 141, 142, 143, 144, 145, 146, 147, 148, 149, 150, 151, 152, 153, 154, 155, 156, 157, 158, 159, 160, 161, 162, 163, 164, 165, 166, 167, 168, 169, 170, 171, 172, 173, 174, 175, 176, 177, 178, 179, 180, 181, 182, 183, 184, 185, 186, 187, 188, 189, 190, 191, 192, 193, 194, 195, 196, 197, 198, 199, 200, 201, 202],
      "LargestImagePixelValue": [43968, 42915, 42233, 42526, 41354, 42612, 41945, 41960, 42304, 42998, 44548, 44702, 43579, 43037, 42538, 41952, 43818, 42962, 43282, 43842, 43765, 43744, 43629, 43833, 43041, 42982, 43223, 43185, 42932, 44176, 43772, 43632, 43719, 43356, 43394, 43394, 43507, 43946, 43455, 43363, 43831, 43916, 44146, 43425, 43781, 42716, 43573, 42581, 42490, 43031, 43356, 42853, 42640, 43743, 44266, 43502, 43280, 42716, 42639, 43224, 43003, 42960, 43488, 43395, 43415, 43967, 43377, 43336, 43699, 42646, 43150, 42819, 42640, 43742, 43049, 42676, 44025, 43532, 42858, 42894, 43187, 43028, 43190, 43037, 43151, 43257, 43175, 43233, 42802, 43340, 43150, 43271, 43271, 43419, 43191, 43174, 42872, 43495, 43316, 43630, 44146, 43672, 43692, 43728, 42841, 42293, 43412, 43257, 43127, 43919, 43483, 43048, 43519, 43167, 43832, 43454, 42972, 43315, 42810, 43164, 43254, 42184, 42672, 42398, 42559, 42535, 42281, 41970, 42418, 42179, 41746, 41705, 41775, 42209, 41853, 41605, 42114, 42174, 42480, 42194, 42173, 42014, 41825, 42373, 41733, 41878, 41209, 41570, 41265, 41688, 41530, 41305, 41501, 41171, 40664, 41294, 41337, 40535, 41354, 41055, 41428, 41210, 40873, 41571, 41570, 41584, 42413, 41865, 41827, 41698, 41583, 41462, 41132, 41574, 41328, 41954, 41753, 41268, 41528, 41813, 41467, 41777, 40997, 41980, 41921, 41558, 42013, 41974, 41006, 41473, 41737, 41391, 42058, 42399, 41610, 42156, 41243, 40806, 41244, 40495, 40576, 40856],
      "WindowCenter": [10259.0, 10207.0, 10191.0, 10170.0, 10148.0, 10148.0, 10165.0, 9862.0, 10174.0, 10200.0, 10228.0, 10214.0, 10186.0, 10181.0, 10180.0, 10187.0, 10220.0, 10218.0, 10209.0, 10211.0, 10221.0, 10218.0, 10214.0, 10228.0, 10210.0, 10210.0, 10217.0, 10237.0, 10231.0, 10238.0, 10223.0, 10215.0, 10210.0, 10198.0, 10217.0, 10220.0, 10225.0, 10233.0, 10233.0, 10234.0, 10250.0, 10241.0, 10232.0, 10242.0, 10267.0, 10246.0, 10246.0, 10224.0, 10207.0, 10204.0, 10220.0, 10208.0, 10207.0, 10217.0, 10233.0, 10217.0, 10193.0, 10185.0, 10192.0, 10214.0, 10212.0, 10208.0, 10215.0, 10207.0, 10206.0, 10220.0, 10232.0, 10234.0, 10242.0, 10231.0, 10235.0, 10231.0, 10223.0, 10243.0, 10237.0, 10223.0, 10239.0, 10235.0, 10228.0, 10227.0, 10236.0, 10226.0, 10229.0, 10206.0, 10208.0, 10215.0, 10227.0, 10230.0, 10229.0, 10221.0, 10226.0, 10229.0, 10220.0, 10228.0, 10210.0, 10221.0, 10212.0, 10223.0, 10218.0, 10219.0, 10238.0, 10220.0, 10217.0, 10219.0, 10230.0, 10225.0, 10226.0, 10210.0, 10193.0, 10197.0, 10205.0, 10209.0, 10225.0, 10228.0, 10224.0, 10215.0, 10202.0, 10206.0, 10210.0, 10209.0, 10215.0, 10216.0, 10212.0, 10210.0, 10210.0, 10222.0, 10225.0, 10219.0, 10213.0, 10204.0, 10189.0, 10189.0, 10187.0, 10193.0, 10208.0, 10200.0, 10207.0, 10214.0, 10221.0, 10215.0, 10205.0, 10200.0, 10206.0, 10216.0, 10217.0, 10219.0, 10219.0, 10217.0, 10212.0, 10217.0, 10199.0, 10183.0, 10189.0, 10198.0, 10195.0, 10205.0, 10205.0, 10190.0, 10194.0, 10176.0, 10184.0, 10182.0, 10184.0, 10200.0, 10208.0, 10219.0, 10221.0, 10222.0, 10216.0, 10223.0, 10217.0, 10207.0, 10201.0, 10200.0, 10199.0, 10204.0, 10198.0, 10191.0, 10201.0, 10198.0, 10208.0, 10221.0, 10199.0, 10201.0, 10197.0, 10192.0, 10208.0, 10216.0, 10205.0, 10203.0, 10203.0, 10200.0, 10205.0, 10220.0, 10235.0, 10242.0, 10216.0, 10207.0, 10188.0, 10174.0, 10183.0, 10183.0],
      "WindowCenterWidthExplanation": [
        "Algo1",
        "Algo1",
        "Algo1",
        "Algo1",
        "Algo1",
        "Algo1",
        "Algo1",
        "WINDOW1",
        "Algo1",
        "Algo1",
        "Algo1",
        "Algo1",
        "Algo1",
        "Algo1",
        "Algo1",
        "Algo1",
        "Algo1",
        "Algo1",
        "Algo1",
        "Algo1",
        "Algo1",
        "Algo1",
        "Algo1",
        "Algo1",
        "Algo1",
        "Algo1",
        "Algo1",
        "Algo1",
        "Algo1",
        "Algo1",
        "Algo1",
        "Algo1",
        "Algo1",
        "Algo1",
        "Algo1",
        "Algo1",
        "Algo1",
        "Algo1",
        "Algo1",
        "Algo1",
        "Algo1",
        "Algo1",
        "Algo1",
        "Algo1",
        "Algo1",
        "Algo1",
        "Algo1",
        "Algo1",
        "Algo1",
        "Algo1",
        "Algo1",
        "Algo1",
        "Algo1",
        "Algo1",
        "Algo1",
        "Algo1",
        "Algo1",
        "Algo1",
        "Algo1",
        "Algo1",
        "Algo1",
        "Algo1",
        "Algo1",
        "Algo1",
        "Algo1",
        "Algo1",
        "Algo1",
        "Algo1",
        "Algo1",
        "Algo1",
        "Algo1",
        "Algo1",
        "Algo1",
        "Algo1",
        "Algo1",
        "Algo1",
        "Algo1",
        "Algo1",
        "Algo1",
        "Algo1",
        "Algo1",
        "Algo1",
        "Algo1",
        "Algo1",
        "Algo1",
        "Algo1",
        "Algo1",
        "Algo1",
        "Algo1",
        "Algo1",
        "Algo1",
        "Algo1",
        "Algo1",
        "Algo1",
        "Algo1",
        "Algo1",
        "Algo1",
        "Algo1",
        "Algo1",
        "Algo1",
        "Algo1",
        "Algo1",
        "Algo1",
        "Algo1",
        "Algo1",
        "Algo1",
        "Algo1",
        "Algo1",
        "Algo1",
        "Algo1",
        "Algo1",
        "Algo1",
        "Algo1",
        "Algo1",
        "Algo1",
        "Algo1",
        "Algo1",
        "Algo1",
        "Algo1",
        "Algo1",
        "Algo1",
        "Algo1",
        "Algo1",
        "Algo1",
        "Algo1",
        "Algo1",
        "Algo1",
        "Algo1",
        "Algo1",
        "Algo1",
        "Algo1",
        "Algo1",
        "Algo1",
        "Algo1",
        "Algo1",
        "Algo1",
        "Algo1",
        "Algo1",
        "Algo1",
        "Algo1",
        "Algo1",
        "Algo1",
        "Algo1",
        "Algo1",
        "Algo1",
        "Algo1",
        "Algo1",
        "Algo1",
        "Algo1",
        "Algo1",
        "Algo1",
        "Algo1",
        "Algo1",
        "Algo1",
        "Algo1",
        "Algo1",
        "Algo1",
        "Algo1",
        "Algo1",
        "Algo1",
        "Algo1",
        "Algo1",
        "Algo1",
        "Algo1",
        "Algo1",
        "Algo1",
        "Algo1",
        "Algo1",
        "Algo1",
        "Algo1",
        "Algo1",
        "Algo1",
        "Algo1",
        "Algo1",
        "Algo1",
        "Algo1",
        "Algo1",
        "Algo1",
        "Algo1",
        "Algo1",
        "Algo1",
        "Algo1",
        "Algo1",
        "Algo1",
        "Algo1",
        "Algo1",
        "Algo1",
        "Algo1",
        "Algo1",
        "Algo1",
        "Algo1",
        "Algo1",
        "Algo1",
        "Algo1",
        "Algo1",
        "Algo1",
        "Algo1",
        "Algo1",
        "Algo1",
        "Algo1",
        "Algo1",
        "Algo1"
],
      "WindowWidth": [21734.0, 21597.0, 21557.0, 21503.0, 21453.0, 21442.0, 21484.0, 21876.0, 21499.0, 21562.0, 21622.0, 21582.0, 21523.0, 21519.0, 21514.0, 21537.0, 21603.0, 21601.0, 21578.0, 21580.0, 21605.0, 21598.0, 21593.0, 21620.0, 21587.0, 21584.0, 21602.0, 21656.0, 21638.0, 21644.0, 21613.0, 21596.0, 21579.0, 21555.0, 21594.0, 21604.0, 21617.0, 21637.0, 21637.0, 21641.0, 21679.0, 21652.0, 21631.0, 21653.0, 21712.0, 21678.0, 21667.0, 21621.0, 21582.0, 21571.0, 21610.0, 21585.0, 21582.0, 21598.0, 21637.0, 21598.0, 21546.0, 21529.0, 21541.0, 21586.0, 21588.0, 21572.0, 21589.0, 21573.0, 21570.0, 21601.0, 21632.0, 21636.0, 21654.0, 21632.0, 21635.0, 21634.0, 21618.0, 21661.0, 21646.0, 21616.0, 21643.0, 21640.0, 21625.0, 21619.0, 21642.0, 21629.0, 21633.0, 21581.0, 21578.0, 21595.0, 21626.0, 21634.0, 21630.0, 21613.0, 21618.0, 21630.0, 21609.0, 21634.0, 21583.0, 21615.0, 21592.0, 21614.0, 21602.0, 21603.0, 21644.0, 21609.0, 21595.0, 21606.0, 21635.0, 21621.0, 21615.0, 21583.0, 21542.0, 21550.0, 21571.0, 21584.0, 21616.0, 21627.0, 21613.0, 21591.0, 21564.0, 21572.0, 21591.0, 21581.0, 21594.0, 21609.0, 21591.0, 21585.0, 21582.0, 21615.0, 21620.0, 21609.0, 21590.0, 21571.0, 21537.0, 21539.0, 21535.0, 21545.0, 21593.0, 21569.0, 21582.0, 21596.0, 21611.0, 21599.0, 21575.0, 21568.0, 21584.0, 21607.0, 21611.0, 21608.0, 21615.0, 21608.0, 21601.0, 21604.0, 21566.0, 21527.0, 21543.0, 21564.0, 21561.0, 21589.0, 21585.0, 21554.0, 21563.0, 21517.0, 21537.0, 21530.0, 21539.0, 21572.0, 21589.0, 21619.0, 21613.0, 21615.0, 21603.0, 21618.0, 21603.0, 21576.0, 21567.0, 21568.0, 21563.0, 21574.0, 21560.0, 21547.0, 21576.0, 21563.0, 21588.0, 21628.0, 21576.0, 21576.0, 21562.0, 21554.0, 21594.0, 21607.0, 21587.0, 21583.0, 21586.0, 21574.0, 21582.0, 21614.0, 21653.0, 21661.0, 21614.0, 21602.0, 21557.0, 21529.0, 21551.0, 21550.0]
    },
    "slices": {}
  }
}