{
  "AcquisitionMatrixPE": 104,
  "AcquisitionNumber": 1,
  "AcquisitionTime": "16:16:54.690000",
  "BandwidthPerPixelPhaseEncode": 17.17,
  "BaseResolution": 104,
  "BodyPartExamined": "BRAIN",
  "CoilString": "HC1-7;NC1_2",
  "ConsistencyInfo": "N4_VE11C_LATEST_20160120",
  "ConversionSoftware": "dcm2niix",
  "ConversionSoftwareVersion": "v1.0.20190720  (JP2:OpenJPEG) GCC7.3.0",
  "DerivedVendorReportedEchoSpacing": 0.000560011,
  "DeviceSerialNumber": "167006",
  "DwellTime": 2.1e-06,
  "EchoTime": 0.037,
  "EchoTrainLength": 104,
  "EffectiveEchoSpacing": 0.000560011,
  "FlipAngle": 52,
  "ImageComments": "Unaliased_MB4_PE3_LB",
  "ImageOrientationPatientDICOM": [0.998835, 0.0299936, 0.0378137, -0.0174347, 0.954781, -0.296797],
  "ImageType": [
    "ORIGINAL",
    "PRIMARY",
    "M",
    "MB",
    "ND",
    "MOSAIC"
],
  "ImagingFrequency": 123.26,
  "InPlanePhaseEncodingDirectionDICOM": "COL",
  "InstitutionAddress": "Chemin_Queen-Mary_4565_Montreal_District_CA_H3W_1W5",
  "InstitutionName": "IUGM",
  "InstitutionalDepartmentName": "Department",
  "MRAcquisitionType": "2D",
  "MagneticFieldStrength": 3,
  "Manufacturer": "Siemens",
  "ManufacturersModelName": "Prisma_fit",
  "Modality": "MR",
  "MultibandAccelerationFactor": 4,
  "PartialFourier": 1,
  "PatientPosition": "HFS",
  "PercentPhaseFOV": 100,
  "PhaseEncodingDirection": "j",
  "PhaseEncodingSteps": 104,
  "PhaseResolution": 1,
  "PixelBandwidth": 2290,
  "ProcedureStepDescription": "hcptrt_generic",
  "ProtocolName": "func_task-wm_run-1",
  "PulseSequenceDetails": "%CustomerSeq%_cmrr_mbep2d_bold",
  "ReceiveCoilActiveElements": "HC1-7;NC1,2",
  "ReceiveCoilName": "HeadNeck_64",
  "ReconMatrixPE": 104,
  "RepetitionTime": 1.49,
  "SAR": 0.0382477,
  "ScanOptions": "FS",
  "ScanningSequence": "EP",
  "SequenceName": "epfid2d1_104",
  "SequenceVariant": "SK_SS",
  "SeriesDescription": "func_task-wm_run-1",
  "SeriesNumber": 19,
  "ShimSetting": [641, -7203, -8807, 739, 120, -16, -10, -4],
  "SliceThickness": 2,
  "SliceTiming": [0, 0.785, 0.0975, 0.8825, 0.1975, 0.98, 0.295, 1.0775, 0.3925, 1.1775, 0.49, 1.275, 0.5875, 1.3725, 0.6875, 0, 0.785, 0.0975, 0.8825, 0.1975, 0.98, 0.295, 1.0775, 0.3925, 1.1775, 0.49, 1.275, 0.5875, 1.3725, 0.6875, 0, 0.785, 0.0975, 0.8825, 0.1975, 0.98, 0.295, 1.0775, 0.3925, 1.1775, 0.49, 1.275, 0.5875, 1.3725, 0.6875, 0, 0.785, 0.0975, 0.8825, 0.1975, 0.98, 0.295, 1.0775, 0.3925, 1.1775, 0.49, 1.275, 0.5875, 1.3725, 0.6875],
  "SoftwareVersions": "syngo_MR_E11",
  "SpacingBetweenSlices": 2,
  "StationName": "MRC35049",
  "TaskName": "wm",
  "TotalReadoutTime": 0.0576811,
  "TxRefAmp": 250.242,
  "WipMemBlock": "77d278f7-4c6f-4033-96ba-f031e7db4ba2||Sequence: R016 ve11c/master r/e634e98; Dec 19 2017 11:00:25 by eja",
  "dcmmeta_affine": [
    [-1.9976691007614136, -0.03486938402056694, 0.09001172333955765, 107.59281158447266],
    [-0.05998726561665535, 1.9095629453659058, -0.591583251953125, -64.80050659179688],
    [0.07562745362520218, 0.5935935378074646, 1.9083834886550903, -63.20037078857422],
    [0.0, 0.0, 0.0, 1.0]
],
  "dcmmeta_reorient_transform": [
    [0.0, -1.0, 0.0, 103.0],
    [1.0, 0.0, 0.0, 0.0],
    [0.0, 0.0, 1.0, 0.0],
    [0.0, 0.0, 0.0, 1.0]
],
  "dcmmeta_shape": [104, 104, 60, 202],
  "dcmmeta_slice_dim": 2,
  "dcmmeta_version": 0.6,
  "global": {
    "const": {
      "AcquisitionMatrix": [104, 0, 0, 104],
      "AngioFlag": "N",
      "BitsAllocated": 16,
      "BitsStored": 16,
      "BodyPartExamined": "BRAIN",
      "Columns": 832,
      "EchoNumbers": 1,
      "EchoTime": 37.0,
      "EchoTrainLength": 104,
      "FlipAngle": 52.0,
      "HighBit": 15,
      "ImageOrientationPatient": [0.99883457296477, 0.02999363281107, 0.03781372556477, -0.017434692528, 0.95478149537841, -0.2967967782497],
      "ImagePositionPatient": [-818.46037423711, -848.80077736593, 186.47942733022],
      "ImageType": [
        "ORIGINAL",
        "PRIMARY",
        "M",
        "MB",
        "ND",
        "MOSAIC"
],
      "ImagedNucleus": "1H",
      "ImagingFrequency": 123.259577,
      "InPlanePhaseEncodingDirection": "COL",
      "MRAcquisitionType": "2D",
      "MagneticFieldStrength": 3.0,
      "Manufacturer": "SIEMENS",
      "ManufacturerModelName": "Prisma_fit",
      "Modality": "MR",
      "NumberOfAverages": 1.0,
      "NumberOfPhaseEncodingSteps": 104,
      "PercentPhaseFieldOfView": 100.0,
      "PercentSampling": 100.0,
      "PerformedProcedureStepStartTime": "153820.893000",
      "PhotometricInterpretation": "MONOCHROME2",
      "PixelBandwidth": 2290.0,
      "PixelRepresentation": 0,
      "PixelSpacing": [2.0, 2.0],
      "ProtocolName": "func_task-wm_run-1",
      "RepetitionTime": 1490.0,
      "Rows": 832,
      "SAR": 0.03824765997134,
      "SamplesPerPixel": 1,
      "ScanOptions": "FS",
      "ScanningSequence": "EP",
      "SequenceName": "epfid2d1_104",
      "SequenceVariant": [
        "SK",
        "SS"
],
      "SeriesDescription": "func_task-wm_run-1",
      "SeriesNumber": 19,
      "SeriesTime": "161805.390000",
      "SliceLocation": -36.295517260275,
      "SliceThickness": 2.0,
      "SmallestImagePixelValue": 0,
      "SoftwareVersions": "syngo MR E11",
      "SpacingBetweenSlices": 2.0000000528152,
      "SpecificCharacterSet": "ISO_IR 100",
      "StudyID": "1",
      "StudyTime": "153820.829000",
      "TransmitCoilName": "Body",
      "VariableFlipAngleFlag": "N",
      "WindowCenterWidthExplanation": "Algo1",
      "dBdt": 0.0},
    "slices": {}
  },
  "time": {
    "samples": {
      "AcquisitionNumber": [1, 2, 3, 4, 5, 6, 7, 8, 9, 10, 11, 12, 13, 14, 15, 16, 17, 18, 19, 20, 21, 22, 23, 24, 25, 26, 27, 28, 29, 30, 31, 32, 33, 34, 35, 36, 37, 38, 39, 40, 41, 42, 43, 44, 45, 46, 47, 48, 49, 50, 51, 52, 53, 54, 55, 56, 57, 58, 59, 60, 61, 62, 63, 64, 65, 66, 67, 68, 69, 70, 71, 72, 73, 74, 75, 76, 77, 78, 79, 80, 81, 82, 83, 84, 85, 86, 87, 88, 89, 90, 91, 92, 93, 94, 95, 96, 97, 98, 99, 100, 101, 102, 103, 104, 105, 106, 107, 108, 109, 110, 111, 112, 113, 114, 115, 116, 117, 118, 119, 120, 121, 122, 123, 124, 125, 126, 127, 128, 129, 130, 131, 132, 133, 134, 135, 136, 137, 138, 139, 140, 141, 142, 143, 144, 145, 146, 147, 148, 149, 150, 151, 152, 153, 154, 155, 156, 157, 158, 159, 160, 161, 162, 163, 164, 165, 166, 167, 168, 169, 170, 171, 172, 173, 174, 175, 176, 177, 178, 179, 180, 181, 182, 183, 184, 185, 186, 187, 188, 189, 190, 191, 192, 193, 194, 195, 196, 197, 198, 199, 200, 201, 202],
      "AcquisitionTime": ["161654.690000", "161656.180000", "161657.670000", "161659.160000", "161700.650000", "161702.140000", "161703.630000", "161705.120000", "161706.610000", "161708.100000", "161709.590000", "161711.080000", "161712.570000", "161714.060000", "161715.550000", "161717.040000", "161718.530000", "161720.020000", "161721.510000", "161723.000000", "161724.490000", "161725.980000", "161727.470000", "161728.960000", "161730.450000", "161731.940000", "161733.430000", "161734.920000", "161736.410000", "161737.900000", "161739.390000", "161740.880000", "161742.370000", "161743.860000", "161745.350000", "161746.840000", "161748.330000", "161749.820000", "161751.310000", "161752.800000", "161754.290000", "161755.780000", "161757.270000", "161758.760000", "161800.250000", "161801.740000", "161803.230000", "161804.720000", "161806.210000", "161807.700000", "161809.190000", "161810.680000", "161812.170000", "161813.660000", "161815.150000", "161816.640000", "161818.130000", "161819.620000", "161821.110000", "161822.600000", "161824.090000", "161825.580000", "161827.070000", "161828.560000", "161830.050000", "161831.540000", "161833.030000", "161834.520000", "161836.010000", "161837.500000", "161838.990000", "161840.480000", "161841.970000", "161843.460000", "161844.950000", "161846.440000", "161847.930000", "161849.420000", "161850.910000", "161852.400000", "161853.890000", "161855.380000", "161856.870000", "161858.360000", "161859.850000", "161901.340000", "161902.830000", "161904.320000", "161905.810000", "161907.300000", "161908.790000", "161910.280000", "161911.770000", "161913.260000", "161914.750000", "161916.240000", "161917.730000", "161919.220000", "161920.710000", "161922.200000", "161923.690000", "161925.180000", "161926.670000", "161928.160000", "161929.650000", "161931.140000", "161932.630000", "161934.120000", "161935.610000", "161937.100000", "161938.590000", "161940.080000", "161941.570000", "161943.060000", "161944.550000", "161946.040000", "161947.530000", "161949.020000", "161950.510000", "161952.000000", "161953.490000", "161954.980000", "161956.470000", "161957.960000", "161959.450000", "162000.940000", "162002.430000", "162003.920000", "162005.410000", "162006.900000", "162008.390000", "162009.880000", "162011.370000", "162012.860000", "162014.350000", "162015.840000", "162017.330000", "162018.820000", "162020.310000", "162021.800000", "162023.290000", "162024.780000", "162026.270000", "162027.760000", "162029.250000", "162030.740000", "162032.230000", "162033.720000", "162035.210000", "162036.700000", "162038.190000", "162039.680000", "162041.170000", "162042.660000", "162044.150000", "162045.640000", "162047.130000", "162048.620000", "162050.110000", "162051.600000", "162053.090000", "162054.580000", "162056.070000", "162057.560000", "162059.050000", "162100.540000", "162102.030000", "162103.520000", "162105.010000", "162106.500000", "162107.990000", "162109.480000", "162110.970000", "162112.460000", "162113.950000", "162115.440000", "162116.930000", "162118.420000", "162119.910000", "162121.400000", "162122.890000", "162124.380000", "162125.870000", "162127.360000", "162128.850000", "162130.340000", "162131.830000", "162133.320000", "162134.810000", "162136.300000", "162137.790000", "162139.280000", "162140.770000", "162142.260000", "162143.750000", "162145.240000", "162146.730000", "162148.220000", "162149.710000", "162151.200000", "162152.690000", "162154.180000"],
      "ContentTime": ["161805.393000", "161805.401000", "161805.404000", "161805.407000", "161805.410000", "161805.413000", "161805.418000", "161805.421000", "161805.424000", "161805.427000", "161805.430000", "161805.433000", "161805.436000", "161805.439000", "161805.442000", "161805.444000", "161805.447000", "161825.361000", "161825.364000", "161825.367000", "161825.370000", "161825.373000", "161825.376000", "161825.379000", "161825.382000", "161825.384000", "161825.387000", "161825.395000", "161825.398000", "161825.401000", "161825.404000", "161825.407000", "161825.410000", "161825.413000", "161825.416000", "161825.419000", "161825.422000", "161845.360000", "161845.363000", "161845.366000", "161845.369000", "161845.372000", "161845.375000", "161845.377000", "161845.380000", "161845.383000", "161845.386000", "161845.389000", "161845.392000", "161845.395000", "161845.398000", "161845.401000", "161845.404000", "161845.407000", "161845.415000", "161845.418000", "161845.421000", "161905.360000", "161905.363000", "161905.366000", "161905.369000", "161905.372000", "161905.375000", "161905.378000", "161905.390000", "161905.393000", "161905.396000", "161905.399000", "161905.402000", "161905.405000", "161905.408000", "161905.410000", "161905.413000", "161905.416000", "161905.419000", "161905.422000", "161905.425000", "161925.360000", "161925.363000", "161925.366000", "161925.370000", "161925.373000", "161925.376000", "161925.379000", "161925.382000", "161925.385000", "161925.388000", "161925.391000", "161925.394000", "161925.397000", "161925.400000", "161925.403000", "161925.406000", "161925.409000", "161925.412000", "161925.415000", "161925.418000", "162005.360000", "162005.363000", "162005.366000", "162005.369000", "162005.372000", "162005.375000", "162005.378000", "162005.381000", "162005.384000", "162005.387000", "162005.390000", "162005.393000", "162005.396000", "162005.399000", "162005.402000", "162005.405000", "162005.408000", "162005.411000", "162005.414000", "162005.417000", "162005.420000", "162005.423000", "162005.426000", "162005.429000", "162005.432000", "162005.435000", "162005.437000", "162005.440000", "162005.443000", "162005.446000", "162045.361000", "162045.364000", "162045.367000", "162045.370000", "162045.373000", "162045.376000", "162045.379000", "162045.382000", "162045.385000", "162045.388000", "162045.390000", "162045.393000", "162045.396000", "162045.399000", "162045.402000", "162045.405000", "162045.408000", "162045.411000", "162045.414000", "162045.417000", "162045.420000", "162045.423000", "162045.426000", "162045.428000", "162045.431000", "162045.434000", "162045.437000", "162125.360000", "162125.363000", "162125.366000", "162125.369000", "162125.372000", "162125.375000", "162125.378000", "162125.381000", "162125.384000", "162125.387000", "162125.389000", "162125.392000", "162125.395000", "162125.398000", "162125.401000", "162125.404000", "162125.407000", "162125.410000", "162125.413000", "162125.416000", "162125.419000", "162125.422000", "162125.425000", "162125.428000", "162125.430000", "162125.433000", "162125.436000", "162156.361000", "162156.365000", "162156.368000", "162156.371000", "162156.374000", "162156.377000", "162156.379000", "162156.382000", "162156.385000", "162156.388000", "162156.391000", "162156.394000", "162156.397000", "162156.400000", "162156.403000", "162156.406000", "162156.409000", "162156.412000", "162156.415000", "162156.418000", "162156.421000"],
      "InstanceCreationTime": ["161805.393000", "161805.401000", "161805.404000", "161805.407000", "161805.410000", "161805.413000", "161805.418000", "161805.421000", "161805.424000", "161805.427000", "161805.430000", "161805.433000", "161805.436000", "161805.439000", "161805.442000", "161805.444000", "161805.447000", "161825.361000", "161825.364000", "161825.367000", "161825.370000", "161825.373000", "161825.376000", "161825.379000", "161825.382000", "161825.384000", "161825.387000", "161825.395000", "161825.398000", "161825.401000", "161825.404000", "161825.407000", "161825.410000", "161825.413000", "161825.416000", "161825.419000", "161825.422000", "161845.360000", "161845.363000", "161845.366000", "161845.369000", "161845.372000", "161845.375000", "161845.377000", "161845.380000", "161845.383000", "161845.386000", "161845.389000", "161845.392000", "161845.395000", "161845.398000", "161845.401000", "161845.404000", "161845.407000", "161845.415000", "161845.418000", "161845.421000", "161905.360000", "161905.363000", "161905.366000", "161905.369000", "161905.372000", "161905.375000", "161905.378000", "161905.390000", "161905.393000", "161905.396000", "161905.399000", "161905.402000", "161905.405000", "161905.408000", "161905.410000", "161905.413000", "161905.416000", "161905.419000", "161905.422000", "161905.425000", "161925.360000", "161925.363000", "161925.366000", "161925.370000", "161925.373000", "161925.376000", "161925.379000", "161925.382000", "161925.385000", "161925.388000", "161925.391000", "161925.394000", "161925.397000", "161925.400000", "161925.403000", "161925.406000", "161925.409000", "161925.412000", "161925.415000", "161925.418000", "162005.360000", "162005.363000", "162005.366000", "162005.369000", "162005.372000", "162005.375000", "162005.378000", "162005.381000", "162005.384000", "162005.387000", "162005.390000", "162005.393000", "162005.396000", "162005.399000", "162005.402000", "162005.405000", "162005.408000", "162005.411000", "162005.414000", "162005.417000", "162005.420000", "162005.423000", "162005.426000", "162005.429000", "162005.432000", "162005.435000", "162005.437000", "162005.440000", "162005.443000", "162005.446000", "162045.361000", "162045.364000", "162045.367000", "162045.370000", "162045.373000", "162045.376000", "162045.379000", "162045.382000", "162045.385000", "162045.388000", "162045.390000", "162045.393000", "162045.396000", "162045.399000", "162045.402000", "162045.405000", "162045.408000", "162045.411000", "162045.414000", "162045.417000", "162045.420000", "162045.423000", "162045.426000", "162045.428000", "162045.431000", "162045.434000", "162045.437000", "162125.360000", "162125.363000", "162125.366000", "162125.369000", "162125.372000", "162125.375000", "162125.378000", "162125.381000", "162125.384000", "162125.387000", "162125.389000", "162125.392000", "162125.395000", "162125.398000", "162125.401000", "162125.404000", "162125.407000", "162125.410000", "162125.413000", "162125.416000", "162125.419000", "162125.422000", "162125.425000", "162125.428000", "162125.430000", "162125.433000", "162125.436000", "162156.361000", "162156.365000", "162156.368000", "162156.371000", "162156.374000", "162156.377000", "162156.379000", "162156.382000", "162156.385000", "162156.388000", "162156.391000", "162156.394000", "162156.397000", "162156.400000", "162156.403000", "162156.406000", "162156.409000", "162156.412000", "162156.415000", "162156.418000", "162156.421000"],
      "InstanceNumber": [1, 2, 3, 4, 5, 6, 7, 8, 9, 10, 11, 12, 13, 14, 15, 16, 17, 18, 19, 20, 21, 22, 23, 24, 25, 26, 27, 28, 29, 30, 31, 32, 33, 34, 35, 36, 37, 38, 39, 40, 41, 42, 43, 44, 45, 46, 47, 48, 49, 50, 51, 52, 53, 54, 55, 56, 57, 58, 59, 60, 61, 62, 63, 64, 65, 66, 67, 68, 69, 70, 71, 72, 73, 74, 75, 76, 77, 78, 79, 80, 81, 82, 83, 84, 85, 86, 87, 88, 89, 90, 91, 92, 93, 94, 95, 96, 97, 98, 99, 100, 101, 102, 103, 104, 105, 106, 107, 108, 109, 110, 111, 112, 113, 114, 115, 116, 117, 118, 119, 120, 121, 122, 123, 124, 125, 126, 127, 128, 129, 130, 131, 132, 133, 134, 135, 136, 137, 138, 139, 140, 141, 142, 143, 144, 145, 146, 147, 148, 149, 150, 151, 152, 153, 154, 155, 156, 157, 158, 159, 160, 161, 162, 163, 164, 165, 166, 167, 168, 169, 170, 171, 172, 173, 174, 175, 176, 177, 178, 179, 180, 181, 182, 183, 184, 185, 186, 187, 188, 189, 190, 191, 192, 193, 194, 195, 196, 197, 198, 199, 200, 201, 202],
      "LargestImagePixelValue": [41406, 40017, 39572, 39484, 38934, 39415, 39377, 39078, 39311, 39452, 39100, 39227, 38576, 38867, 39491, 38978, 38505, 38342, 39028, 39271, 38426, 38373, 38411, 38451, 39952, 38694, 38952, 38686, 39349, 38627, 38993, 38826, 38707, 38732, 38865, 38857, 38692, 38792, 38716, 38868, 38927, 38963, 39085, 39308, 39195, 39276, 39158, 38534, 39741, 39155, 39247, 38835, 39162, 39159, 39359, 38517, 39459, 39005, 38686, 38941, 39362, 39111, 39252, 38988, 39882, 40166, 40883, 41022, 40528, 40643, 40453, 41388, 41114, 41209, 41583, 41055, 41608, 41711, 41831, 41936, 41679, 42603, 42162, 40652, 40972, 41150, 40515, 41685, 41476, 40830, 41014, 40736, 40657, 41036, 40763, 40911, 40840, 40755, 41263, 41156, 42002, 41643, 41931, 41692, 41459, 41707, 41245, 41202, 40980, 40770, 41469, 41743, 41300, 41986, 42108, 41648, 41440, 41185, 41947, 41957, 41333, 42059, 42170, 41879, 42417, 41596, 41850, 41142, 41533, 42029, 41681, 42359, 41699, 41803, 42190, 41955, 42380, 41578, 41118, 41617, 40119, 41808, 42038, 41658, 42536, 41890, 42401, 42337, 42364, 43014, 41340, 41508, 41690, 41654, 42150, 42221, 41448, 42572, 41742, 42402, 42144, 42456, 42578, 42521, 42082, 42476, 42676, 43167, 42063, 42672, 41894, 41389, 42221, 41621, 42861, 42083, 42125, 42514, 42012, 42817, 41992, 42243, 42970, 42291, 42468, 42312, 41712, 41981, 42087, 41642, 41881, 40823, 41931, 41774, 41439, 42440, 42369, 41880, 42658, 40727, 40934, 41803],
      "WindowCenter": [10170.0, 10115.0, 10096.0, 10082.0, 10077.0, 10077.0, 10093.0, 10099.0, 10112.0, 10105.0, 10107.0, 10120.0, 10101.0, 10091.0, 10111.0, 10098.0, 10099.0, 10099.0, 10094.0, 10093.0, 10079.0, 10070.0, 10070.0, 10062.0, 10085.0, 10068.0, 10084.0, 10078.0, 10083.0, 10088.0, 10086.0, 10070.0, 10069.0, 10058.0, 10075.0, 10095.0, 10105.0, 10109.0, 10097.0, 10091.0, 10079.0, 10076.0, 10096.0, 10106.0, 10110.0, 10106.0, 10107.0, 10097.0, 10103.0, 10104.0, 10113.0, 10117.0, 10109.0, 10101.0, 10087.0, 10064.0, 10089.0, 10094.0, 10113.0, 10142.0, 10142.0, 10127.0, 10116.0, 10107.0, 10109.0, 10115.0, 10121.0, 10113.0, 10115.0, 10112.0, 10114.0, 10128.0, 10121.0, 10128.0, 10125.0, 10119.0, 10118.0, 10125.0, 10125.0, 10123.0, 10119.0, 10137.0, 10131.0, 10124.0, 10121.0, 10116.0, 10110.0, 10117.0, 10108.0, 10111.0, 10110.0, 10104.0, 10108.0, 10095.0, 10084.0, 10095.0, 10095.0, 10097.0, 10101.0, 10111.0, 10131.0, 10127.0, 10139.0, 10134.0, 10137.0, 10139.0, 10130.0, 10136.0, 10120.0, 10116.0, 10136.0, 10136.0, 10128.0, 10126.0, 10131.0, 10133.0, 10145.0, 10139.0, 10136.0, 10125.0, 10103.0, 10103.0, 10117.0, 10131.0, 10139.0, 10135.0, 10130.0, 10109.0, 10115.0, 10115.0, 10117.0, 10131.0, 10126.0, 10132.0, 10130.0, 10123.0, 10121.0, 10107.0, 10101.0, 10115.0, 10099.0, 10117.0, 10126.0, 10134.0, 10140.0, 10134.0, 10122.0, 10121.0, 10125.0, 10136.0, 10121.0, 10128.0, 10118.0, 10118.0, 10120.0, 10123.0, 10130.0, 10140.0, 10128.0, 10124.0, 10105.0, 10100.0, 10104.0, 10108.0, 10114.0, 10132.0, 10121.0, 10124.0, 10130.0, 10149.0, 10136.0, 10131.0, 10131.0, 10118.0, 10126.0, 10120.0, 10129.0, 10137.0, 10134.0, 10145.0, 10132.0, 10125.0, 10128.0, 10137.0, 10153.0, 10143.0, 10120.0, 10098.0, 10103.0, 10108.0, 10126.0, 10106.0, 10108.0, 10111.0, 10105.0, 10133.0, 10162.0, 10165.0, 10171.0, 10139.0, 10124.0, 10116.0],
      "WindowWidth": [21542.0, 21399.0, 21349.0, 21318.0, 21301.0, 21296.0, 21334.0, 21349.0, 21375.0, 21359.0, 21363.0, 21393.0, 21351.0, 21328.0, 21373.0, 21347.0, 21351.0, 21348.0, 21330.0, 21327.0, 21302.0, 21280.0, 21280.0, 21263.0, 21304.0, 21277.0, 21312.0, 21299.0, 21305.0, 21322.0, 21318.0, 21281.0, 21280.0, 21253.0, 21293.0, 21340.0, 21364.0, 21374.0, 21343.0, 21335.0, 21306.0, 21297.0, 21348.0, 21368.0, 21380.0, 21369.0, 21373.0, 21360.0, 21356.0, 21360.0, 21380.0, 21392.0, 21374.0, 21361.0, 21323.0, 21282.0, 21323.0, 21337.0, 21382.0, 21446.0, 21445.0, 21418.0, 21387.0, 21368.0, 21369.0, 21380.0, 21392.0, 21373.0, 21383.0, 21369.0, 21381.0, 21403.0, 21388.0, 21403.0, 21391.0, 21382.0, 21378.0, 21393.0, 21395.0, 21385.0, 21383.0, 21414.0, 21399.0, 21396.0, 21386.0, 21371.0, 21361.0, 21375.0, 21349.0, 21363.0, 21359.0, 21347.0, 21364.0, 21328.0, 21299.0, 21329.0, 21328.0, 21334.0, 21340.0, 21366.0, 21406.0, 21399.0, 21431.0, 21414.0, 21424.0, 21430.0, 21404.0, 21420.0, 21380.0, 21377.0, 21418.0, 21418.0, 21403.0, 21392.0, 21404.0, 21411.0, 21442.0, 21428.0, 21417.0, 21388.0, 21346.0, 21340.0, 21368.0, 21403.0, 21418.0, 21411.0, 21395.0, 21354.0, 21368.0, 21369.0, 21376.0, 21405.0, 21397.0, 21409.0, 21401.0, 21388.0, 21381.0, 21351.0, 21342.0, 21375.0, 21353.0, 21379.0, 21397.0, 21416.0, 21427.0, 21416.0, 21384.0, 21383.0, 21389.0, 21412.0, 21384.0, 21401.0, 21377.0, 21381.0, 21377.0, 21388.0, 21413.0, 21423.0, 21401.0, 21389.0, 21342.0, 21331.0, 21346.0, 21348.0, 21364.0, 21407.0, 21378.0, 21376.0, 21398.0, 21441.0, 21415.0, 21408.0, 21401.0, 21375.0, 21385.0, 21378.0, 21402.0, 21414.0, 21411.0, 21431.0, 21410.0, 21396.0, 21395.0, 21413.0, 21451.0, 21437.0, 21388.0, 21333.0, 21340.0, 21357.0, 21403.0, 21362.0, 21355.0, 21356.0, 21347.0, 21409.0, 21492.0, 21503.0, 21511.0, 21444.0, 21416.0, 21390.0]
    },
    "slices": {}
  }
}