{
  "AcquisitionMatrixPE": 104,
  "AcquisitionNumber": 1,
  "AcquisitionTime": "15:55:59.785000",
  "BandwidthPerPixelPhaseEncode": 17.17,
  "BaseResolution": 104,
  "BodyPartExamined": "BRAIN",
  "CoilString": "HC1-7;NC1_2",
  "ConsistencyInfo": "N4_VE11C_LATEST_20160120",
  "ConversionSoftware": "dcm2niix",
  "ConversionSoftwareVersion": "v1.0.20190720  (JP2:OpenJPEG) GCC7.3.0",
  "DerivedVendorReportedEchoSpacing": 0.000560011,
  "DeviceSerialNumber": "167006",
  "DwellTime": 2.1e-06,
  "EchoTime": 0.037,
  "EchoTrainLength": 104,
  "EffectiveEchoSpacing": 0.000560011,
  "FlipAngle": 52,
  "ImageComments": "Unaliased_MB4_PE3_LB",
  "ImageOrientationPatientDICOM": [0.998835, 0.0299936, 0.0378137, -0.0174347, 0.954781, -0.296797],
  "ImageType": [
    "ORIGINAL",
    "PRIMARY",
    "M",
    "MB",
    "ND",
    "MOSAIC"
],
  "ImagingFrequency": 123.26,
  "InPlanePhaseEncodingDirectionDICOM": "COL",
  "InstitutionAddress": "Chemin_Queen-Mary_4565_Montreal_District_CA_H3W_1W5",
  "InstitutionName": "IUGM",
  "InstitutionalDepartmentName": "Department",
  "MRAcquisitionType": "2D",
  "MagneticFieldStrength": 3,
  "Manufacturer": "Siemens",
  "ManufacturersModelName": "Prisma_fit",
  "Modality": "MR",
  "MultibandAccelerationFactor": 4,
  "PartialFourier": 1,
  "PatientPosition": "HFS",
  "PercentPhaseFOV": 100,
  "PhaseEncodingDirection": "j",
  "PhaseEncodingSteps": 104,
  "PhaseResolution": 1,
  "PixelBandwidth": 2290,
  "ProcedureStepDescription": "hcptrt_generic",
  "ProtocolName": "func_task-language_run-1",
  "PulseSequenceDetails": "%CustomerSeq%_cmrr_mbep2d_bold",
  "ReceiveCoilActiveElements": "HC1-7;NC1,2",
  "ReceiveCoilName": "HeadNeck_64",
  "ReconMatrixPE": 104,
  "RepetitionTime": 1.49,
  "SAR": 0.0381507,
  "ScanOptions": "FS",
  "ScanningSequence": "EP",
  "SequenceName": "epfid2d1_104",
  "SequenceVariant": "SK_SS",
  "SeriesDescription": "func_task-language_run-1",
  "SeriesNumber": 9,
  "ShimSetting": [641, -7203, -8807, 738, 120, -17, -11, -4],
  "SliceThickness": 2,
  "SliceTiming": [0, 0.785, 0.0975, 0.8825, 0.1975, 0.98, 0.295, 1.0775, 0.3925, 1.175, 0.49, 1.275, 0.5875, 1.3725, 0.6875, 0, 0.785, 0.0975, 0.8825, 0.1975, 0.98, 0.295, 1.0775, 0.3925, 1.175, 0.49, 1.275, 0.5875, 1.3725, 0.6875, 0, 0.785, 0.0975, 0.8825, 0.1975, 0.98, 0.295, 1.0775, 0.3925, 1.175, 0.49, 1.275, 0.5875, 1.3725, 0.6875, 0, 0.785, 0.0975, 0.8825, 0.1975, 0.98, 0.295, 1.0775, 0.3925, 1.175, 0.49, 1.275, 0.5875, 1.3725, 0.6875],
  "SoftwareVersions": "syngo_MR_E11",
  "SpacingBetweenSlices": 2,
  "StationName": "MRC35049",
  "TaskName": "language",
  "TotalReadoutTime": 0.0576811,
  "TxRefAmp": 250.242,
  "WipMemBlock": "90bcea86-ff20-49bd-8c62-6905125c80a0||Sequence: R016 ve11c/master r/e634e98; Dec 19 2017 11:00:25 by eja",
  "dcmmeta_affine": [
    [-1.9976691007614136, -0.03486938402056694, 0.09001171588897705, 107.59256744384766],
    [-0.05998726561665535, 1.9095629453659058, -0.5915831923484802, -64.8157730102539],
    [0.07562745362520218, 0.5935935378074646, 1.9083833694458008, -63.24641799926758],
    [0.0, 0.0, 0.0, 1.0]
],
  "dcmmeta_reorient_transform": [
    [0.0, -1.0, 0.0, 103.0],
    [1.0, 0.0, 0.0, 0.0],
    [0.0, 0.0, 1.0, 0.0],
    [0.0, 0.0, 0.0, 1.0]
],
  "dcmmeta_shape": [104, 104, 60, 159],
  "dcmmeta_slice_dim": 2,
  "dcmmeta_version": 0.6,
  "global": {
    "const": {
      "AcquisitionMatrix": [104, 0, 0, 104],
      "AngioFlag": "N",
      "BitsAllocated": 16,
      "BitsStored": 16,
      "BodyPartExamined": "BRAIN",
      "Columns": 832,
      "EchoNumbers": 1,
      "EchoTime": 37.0,
      "EchoTrainLength": 104,
      "FlipAngle": 52.0,
      "HighBit": 15,
      "ImageOrientationPatient": [0.99883457296477, 0.02999363281107, 0.03781372556477, -0.017434692528, 0.95478149537841, -0.2967967782497],
      "ImagePositionPatient": [-818.46013462643, -848.78550713277, 186.43338202688],
      "ImageType": [
        "ORIGINAL",
        "PRIMARY",
        "M",
        "MB",
        "ND",
        "MOSAIC"
],
      "ImagedNucleus": "1H",
      "ImagingFrequency": 123.259571,
      "InPlanePhaseEncodingDirection": "COL",
      "MRAcquisitionType": "2D",
      "MagneticFieldStrength": 3.0,
      "Manufacturer": "SIEMENS",
      "ManufacturerModelName": "Prisma_fit",
      "Modality": "MR",
      "NumberOfAverages": 1.0,
      "NumberOfPhaseEncodingSteps": 104,
      "PercentPhaseFieldOfView": 100.0,
      "PercentSampling": 100.0,
      "PerformedProcedureStepStartTime": "153820.893000",
      "PhotometricInterpretation": "MONOCHROME2",
      "PixelBandwidth": 2290.0,
      "PixelRepresentation": 0,
      "PixelSpacing": [2.0, 2.0],
      "ProtocolName": "func_task-language_run-1",
      "RepetitionTime": 1490.0,
      "Rows": 832,
      "SAR": 0.03815066885271,
      "SamplesPerPixel": 1,
      "ScanOptions": "FS",
      "ScanningSequence": "EP",
      "SequenceName": "epfid2d1_104",
      "SequenceVariant": [
        "SK",
        "SS"
],
      "SeriesDescription": "func_task-language_run-1",
      "SeriesNumber": 9,
      "SeriesTime": "155725.123000",
      "SliceLocation": -36.334947283406,
      "SliceThickness": 2.0,
      "SmallestImagePixelValue": 0,
      "SoftwareVersions": "syngo MR E11",
      "SpacingBetweenSlices": 1.9999999600922,
      "SpecificCharacterSet": "ISO_IR 100",
      "StudyID": "1",
      "StudyTime": "153820.829000",
      "TransmitCoilName": "Body",
      "VariableFlipAngleFlag": "N",
      "WindowCenterWidthExplanation": "Algo1",
      "dBdt": 0.0},
    "slices": {}
  },
  "time": {
    "samples": {
      "AcquisitionNumber": [1, 2, 3, 4, 5, 6, 7, 8, 9, 10, 11, 12, 13, 14, 15, 16, 17, 18, 19, 20, 21, 22, 23, 24, 25, 26, 27, 28, 29, 30, 31, 32, 33, 34, 35, 36, 37, 38, 39, 40, 41, 42, 43, 44, 45, 46, 47, 48, 49, 50, 51, 52, 53, 54, 55, 56, 57, 58, 59, 60, 61, 62, 63, 64, 65, 66, 67, 68, 69, 70, 71, 72, 73, 74, 75, 76, 77, 78, 79, 80, 81, 82, 83, 84, 85, 86, 87, 88, 89, 90, 91, 92, 93, 94, 95, 96, 97, 98, 99, 100, 101, 102, 103, 104, 105, 106, 107, 108, 109, 110, 111, 112, 113, 114, 115, 116, 117, 118, 119, 120, 121, 122, 123, 124, 125, 126, 127, 128, 129, 130, 131, 132, 133, 134, 135, 136, 137, 138, 139, 140, 141, 142, 143, 144, 145, 146, 147, 148, 149, 150, 151, 152, 153, 154, 155, 156, 157, 158, 159],
      "AcquisitionTime": ["155559.785000", "155601.275000", "155602.765000", "155604.255000", "155605.745000", "155607.235000", "155608.725000", "155610.215000", "155611.705000", "155613.195000", "155614.685000", "155616.175000", "155617.665000", "155619.155000", "155620.645000", "155622.135000", "155623.625000", "155625.115000", "155626.605000", "155628.095000", "155629.585000", "155631.075000", "155632.565000", "155634.055000", "155635.545000", "155637.035000", "155638.525000", "155640.015000", "155641.505000", "155642.995000", "155644.485000", "155645.975000", "155647.465000", "155648.955000", "155650.445000", "155651.935000", "155653.425000", "155654.915000", "155656.405000", "155657.895000", "155659.385000", "155700.875000", "155702.365000", "155703.855000", "155705.345000", "155706.835000", "155708.325000", "155709.815000", "155711.305000", "155712.795000", "155714.285000", "155715.775000", "155717.265000", "155718.755000", "155720.245000", "155721.735000", "155723.225000", "155724.715000", "155726.205000", "155727.695000", "155729.185000", "155730.675000", "155732.165000", "155733.655000", "155735.145000", "155736.635000", "155738.125000", "155739.615000", "155741.105000", "155742.595000", "155744.085000", "155745.575000", "155747.065000", "155748.555000", "155750.045000", "155751.535000", "155753.025000", "155754.515000", "155756.005000", "155757.495000", "155758.985000", "155800.475000", "155801.965000", "155803.455000", "155804.945000", "155806.435000", "155807.925000", "155809.415000", "155810.905000", "155812.395000", "155813.885000", "155815.375000", "155816.865000", "155818.355000", "155819.845000", "155821.335000", "155822.825000", "155824.315000", "155825.805000", "155827.295000", "155828.785000", "155830.275000", "155831.765000", "155833.255000", "155834.745000", "155836.235000", "155837.725000", "155839.215000", "155840.705000", "155842.195000", "155843.685000", "155845.175000", "155846.665000", "155848.155000", "155849.645000", "155851.135000", "155852.625000", "155854.115000", "155855.605000", "155857.095000", "155858.585000", "155900.075000", "155901.565000", "155903.055000", "155904.545000", "155906.035000", "155907.525000", "155909.015000", "155910.505000", "155911.995000", "155913.485000", "155914.975000", "155916.465000", "155917.955000", "155919.445000", "155920.935000", "155922.425000", "155923.915000", "155925.405000", "155926.895000", "155928.385000", "155929.875000", "155931.365000", "155932.855000", "155934.345000", "155935.835000", "155937.325000", "155938.815000", "155940.305000", "155941.795000", "155943.285000", "155944.775000", "155946.265000", "155947.755000", "155949.245000", "155950.735000", "155952.225000", "155953.715000", "155955.205000"],
      "ContentTime": ["155725.126000", "155725.129000", "155725.132000", "155725.135000", "155725.138000", "155725.141000", "155725.144000", "155725.147000", "155725.150000", "155725.153000", "155725.156000", "155725.159000", "155725.162000", "155725.165000", "155725.168000", "155725.171000", "155725.174000", "155725.190000", "155725.193000", "155725.196000", "155725.199000", "155725.202000", "155725.205000", "155725.208000", "155725.211000", "155725.215000", "155725.218000", "155725.220000", "155725.224000", "155725.227000", "155745.089000", "155745.092000", "155745.104000", "155745.107000", "155745.110000", "155745.113000", "155745.116000", "155745.119000", "155745.122000", "155745.125000", "155745.128000", "155745.131000", "155745.133000", "155745.136000", "155745.139000", "155745.142000", "155745.145000", "155745.148000", "155745.151000", "155745.154000", "155745.157000", "155805.089000", "155805.092000", "155805.095000", "155805.098000", "155805.101000", "155805.104000", "155805.108000", "155805.111000", "155805.114000", "155805.117000", "155805.120000", "155805.122000", "155805.125000", "155805.128000", "155805.131000", "155805.134000", "155805.137000", "155805.140000", "155805.143000", "155805.146000", "155825.088000", "155825.091000", "155825.094000", "155825.097000", "155825.100000", "155825.103000", "155825.106000", "155825.109000", "155825.112000", "155825.115000", "155825.118000", "155825.120000", "155825.123000", "155825.126000", "155825.129000", "155825.132000", "155825.135000", "155825.138000", "155825.141000", "155825.144000", "155905.088000", "155905.091000", "155905.094000", "155905.097000", "155905.100000", "155905.103000", "155905.106000", "155905.109000", "155905.111000", "155905.114000", "155905.117000", "155905.120000", "155905.123000", "155905.126000", "155905.129000", "155905.132000", "155905.135000", "155905.138000", "155905.141000", "155905.144000", "155905.147000", "155905.150000", "155905.153000", "155905.156000", "155905.159000", "155905.162000", "155905.165000", "155905.168000", "155905.171000", "155905.174000", "155905.176000", "155905.179000", "155945.088000", "155945.091000", "155945.094000", "155945.097000", "155945.100000", "155945.103000", "155945.106000", "155945.109000", "155945.112000", "155945.115000", "155945.131000", "155945.134000", "155945.137000", "155945.140000", "155945.143000", "155945.146000", "155945.149000", "155945.152000", "155945.155000", "155945.158000", "155945.161000", "155945.164000", "155945.167000", "155945.170000", "155945.173000", "155945.176000", "155945.179000", "155957.397000", "155957.400000", "155957.403000", "155957.406000", "155957.409000", "155957.412000", "155957.425000", "155957.428000", "155957.431000"],
      "InstanceCreationTime": ["155725.126000", "155725.129000", "155725.132000", "155725.135000", "155725.138000", "155725.141000", "155725.144000", "155725.147000", "155725.150000", "155725.153000", "155725.156000", "155725.159000", "155725.162000", "155725.165000", "155725.168000", "155725.171000", "155725.174000", "155725.190000", "155725.193000", "155725.196000", "155725.199000", "155725.202000", "155725.205000", "155725.208000", "155725.211000", "155725.215000", "155725.218000", "155725.220000", "155725.224000", "155725.227000", "155745.089000", "155745.092000", "155745.104000", "155745.107000", "155745.110000", "155745.113000", "155745.116000", "155745.119000", "155745.122000", "155745.125000", "155745.128000", "155745.131000", "155745.133000", "155745.136000", "155745.139000", "155745.142000", "155745.145000", "155745.148000", "155745.151000", "155745.154000", "155745.157000", "155805.089000", "155805.092000", "155805.095000", "155805.098000", "155805.101000", "155805.104000", "155805.108000", "155805.111000", "155805.114000", "155805.117000", "155805.120000", "155805.122000", "155805.125000", "155805.128000", "155805.131000", "155805.134000", "155805.137000", "155805.140000", "155805.143000", "155805.146000", "155825.088000", "155825.091000", "155825.094000", "155825.097000", "155825.100000", "155825.103000", "155825.106000", "155825.109000", "155825.112000", "155825.115000", "155825.118000", "155825.120000", "155825.123000", "155825.126000", "155825.129000", "155825.132000", "155825.135000", "155825.138000", "155825.141000", "155825.144000", "155905.088000", "155905.091000", "155905.094000", "155905.097000", "155905.100000", "155905.103000", "155905.106000", "155905.109000", "155905.111000", "155905.114000", "155905.117000", "155905.120000", "155905.123000", "155905.126000", "155905.129000", "155905.132000", "155905.135000", "155905.138000", "155905.141000", "155905.144000", "155905.147000", "155905.150000", "155905.153000", "155905.156000", "155905.159000", "155905.162000", "155905.165000", "155905.168000", "155905.171000", "155905.174000", "155905.176000", "155905.179000", "155945.088000", "155945.091000", "155945.094000", "155945.097000", "155945.100000", "155945.103000", "155945.106000", "155945.109000", "155945.112000", "155945.115000", "155945.131000", "155945.134000", "155945.137000", "155945.140000", "155945.143000", "155945.146000", "155945.149000", "155945.152000", "155945.155000", "155945.158000", "155945.161000", "155945.164000", "155945.167000", "155945.170000", "155945.173000", "155945.176000", "155945.179000", "155957.397000", "155957.400000", "155957.403000", "155957.406000", "155957.409000", "155957.412000", "155957.425000", "155957.428000", "155957.431000"],
      "InstanceNumber": [1, 2, 3, 4, 5, 6, 7, 8, 9, 10, 11, 12, 13, 14, 15, 16, 17, 18, 19, 20, 21, 22, 23, 24, 25, 26, 27, 28, 29, 30, 31, 32, 33, 34, 35, 36, 37, 38, 39, 40, 41, 42, 43, 44, 45, 46, 47, 48, 49, 50, 51, 52, 53, 54, 55, 56, 57, 58, 59, 60, 61, 62, 63, 64, 65, 66, 67, 68, 69, 70, 71, 72, 73, 74, 75, 76, 77, 78, 79, 80, 81, 82, 83, 84, 85, 86, 87, 88, 89, 90, 91, 92, 93, 94, 95, 96, 97, 98, 99, 100, 101, 102, 103, 104, 105, 106, 107, 108, 109, 110, 111, 112, 113, 114, 115, 116, 117, 118, 119, 120, 121, 122, 123, 124, 125, 126, 127, 128, 129, 130, 131, 132, 133, 134, 135, 136, 137, 138, 139, 140, 141, 142, 143, 144, 145, 146, 147, 148, 149, 150, 151, 152, 153, 154, 155, 156, 157, 158, 159],
      "LargestImagePixelValue": [42099, 40802, 40031, 39899, 40120, 39570, 39839, 39537, 39069, 39763, 39650, 39350, 39499, 39491, 39597, 39748, 39806, 39526, 39468, 39640, 39695, 39660, 39801, 39930, 39536, 40088, 39561, 39932, 39869, 39846, 39931, 39762, 40075, 39990, 39621, 39499, 39401, 39735, 39395, 39322, 39863, 40002, 39522, 39917, 39470, 39456, 39707, 38947, 39908, 39765, 39885, 39639, 39419, 39237, 39795, 40058, 39291, 39249, 39373, 39084, 39312, 39211, 39362, 39439, 39553, 39587, 39935, 39354, 39630, 39174, 39451, 39755, 39688, 39578, 39690, 40132, 39593, 39928, 39531, 39651, 39986, 39660, 39677, 39420, 39261, 39876, 39609, 39606, 39607, 39933, 39629, 39787, 39980, 39786, 39869, 40961, 39540, 39505, 39194, 40052, 39899, 39660, 39809, 39498, 39441, 39979, 39503, 39739, 39621, 39752, 40034, 39548, 39754, 39576, 39745, 39299, 39816, 39903, 39594, 39780, 39835, 39665, 40155, 39874, 39784, 40142, 39562, 39812, 40451, 39978, 39863, 40147, 39958, 40446, 40202, 40037, 40490, 39740, 40095, 39680, 40071, 39564, 39852, 39759, 40103, 39574, 39580, 39895, 39524, 40140, 39920, 39902, 39958, 39545, 39604, 39825, 40177, 40008, 40140],
      "WindowCenter": [10242.0, 10179.0, 10146.0, 10159.0, 10169.0, 10161.0, 10137.0, 10144.0, 10140.0, 10135.0, 10135.0, 10130.0, 10134.0, 10136.0, 10125.0, 10132.0, 10133.0, 10135.0, 10156.0, 10154.0, 10151.0, 10154.0, 10159.0, 10162.0, 10171.0, 10167.0, 10171.0, 10179.0, 10179.0, 10160.0, 10149.0, 10150.0, 10157.0, 10159.0, 10146.0, 10139.0, 10138.0, 10151.0, 10155.0, 10154.0, 10158.0, 10151.0, 10143.0, 10140.0, 10144.0, 10141.0, 10144.0, 10129.0, 10139.0, 10152.0, 10160.0, 10142.0, 10129.0, 10127.0, 10121.0, 10142.0, 10126.0, 10117.0, 10134.0, 10139.0, 10135.0, 10137.0, 10137.0, 10135.0, 10146.0, 10154.0, 10163.0, 10168.0, 10166.0, 10149.0, 10148.0, 10133.0, 10144.0, 10153.0, 10156.0, 10158.0, 10162.0, 10159.0, 10152.0, 10151.0, 10152.0, 10144.0, 10146.0, 10151.0, 10156.0, 10152.0, 10157.0, 10147.0, 10145.0, 10151.0, 10145.0, 10137.0, 10140.0, 10125.0, 10132.0, 10165.0, 10144.0, 10151.0, 10150.0, 10162.0, 10154.0, 10121.0, 10111.0, 10108.0, 10126.0, 10148.0, 10157.0, 10147.0, 10147.0, 10129.0, 10134.0, 10137.0, 10135.0, 10145.0, 10152.0, 10149.0, 10145.0, 10142.0, 10146.0, 10146.0, 10151.0, 10155.0, 10161.0, 10162.0, 10145.0, 10140.0, 10142.0, 10153.0, 10169.0, 10162.0, 10162.0, 10161.0, 10168.0, 10169.0, 10162.0, 10157.0, 10158.0, 10146.0, 10146.0, 10154.0, 10162.0, 10174.0, 10174.0, 10166.0, 10164.0, 10162.0, 10154.0, 10154.0, 10148.0, 10153.0, 10155.0, 10145.0, 10143.0, 10139.0, 10137.0, 10146.0, 10162.0, 10163.0, 10162.0],
      "WindowWidth": [21707.0, 21545.0, 21463.0, 21488.0, 21509.0, 21494.0, 21435.0, 21451.0, 21450.0, 21435.0, 21432.0, 21423.0, 21428.0, 21437.0, 21407.0, 21425.0, 21428.0, 21431.0, 21494.0, 21480.0, 21465.0, 21475.0, 21482.0, 21489.0, 21511.0, 21498.0, 21513.0, 21529.0, 21530.0, 21486.0, 21457.0, 21462.0, 21479.0, 21485.0, 21459.0, 21444.0, 21439.0, 21462.0, 21476.0, 21470.0, 21475.0, 21463.0, 21444.0, 21437.0, 21453.0, 21442.0, 21451.0, 21415.0, 21433.0, 21467.0, 21483.0, 21443.0, 21425.0, 21413.0, 21392.0, 21460.0, 21417.0, 21389.0, 21427.0, 21447.0, 21432.0, 21438.0, 21439.0, 21433.0, 21459.0, 21476.0, 21495.0, 21514.0, 21505.0, 21468.0, 21463.0, 21423.0, 21448.0, 21469.0, 21481.0, 21477.0, 21493.0, 21480.0, 21468.0, 21468.0, 21473.0, 21451.0, 21457.0, 21483.0, 21482.0, 21466.0, 21484.0, 21462.0, 21453.0, 21465.0, 21450.0, 21435.0, 21436.0, 21403.0, 21421.0, 21509.0, 21451.0, 21471.0, 21469.0, 21488.0, 21473.0, 21403.0, 21383.0, 21369.0, 21411.0, 21456.0, 21487.0, 21459.0, 21463.0, 21420.0, 21428.0, 21448.0, 21430.0, 21457.0, 21469.0, 21468.0, 21453.0, 21443.0, 21466.0, 21464.0, 21468.0, 21479.0, 21490.0, 21492.0, 21449.0, 21434.0, 21442.0, 21468.0, 21505.0, 21488.0, 21487.0, 21484.0, 21503.0, 21506.0, 21490.0, 21489.0, 21478.0, 21456.0, 21452.0, 21472.0, 21487.0, 21517.0, 21514.0, 21497.0, 21492.0, 21488.0, 21470.0, 21473.0, 21460.0, 21467.0, 21475.0, 21447.0, 21441.0, 21434.0, 21430.0, 21451.0, 21485.0, 21486.0, 21485.0]
    },
    "slices": {}
  }
}