{
  "AcquisitionMatrixPE": 104,
  "AcquisitionNumber": 1,
  "AcquisitionTime": "17:00:31.930000",
  "BandwidthPerPixelPhaseEncode": 17.17,
  "BaseResolution": 104,
  "BodyPartExamined": "BRAIN",
  "CoilString": "HC1-7;NC1_2",
  "ConsistencyInfo": "N4_VE11C_LATEST_20160120",
  "ConversionSoftware": "dcm2niix",
  "ConversionSoftwareVersion": "v1.0.20190720  (JP2:OpenJPEG) GCC7.3.0",
  "DerivedVendorReportedEchoSpacing": 0.000560011,
  "DeviceSerialNumber": "167006",
  "DwellTime": 2.1e-06,
  "EchoTime": 0.037,
  "EchoTrainLength": 104,
  "EffectiveEchoSpacing": 0.000560011,
  "FlipAngle": 52,
  "ImageComments": "Unaliased_MB4_PE3_LB",
  "ImageOrientationPatientDICOM": [0.998398, 0.0425059, 0.037346, -0.0294574, 0.954012, -0.298317],
  "ImageType": [
    "ORIGINAL",
    "PRIMARY",
    "M",
    "MB",
    "ND",
    "MOSAIC"
],
  "ImagingFrequency": 123.26,
  "InPlanePhaseEncodingDirectionDICOM": "COL",
  "InstitutionAddress": "Chemin_Queen-Mary_4565_Montreal_District_CA_H3W_1W5",
  "InstitutionName": "IUGM",
  "InstitutionalDepartmentName": "Department",
  "MRAcquisitionType": "2D",
  "MagneticFieldStrength": 3,
  "Manufacturer": "Siemens",
  "ManufacturersModelName": "Prisma_fit",
  "Modality": "MR",
  "MultibandAccelerationFactor": 4,
  "PartialFourier": 1,
  "PatientPosition": "HFS",
  "PercentPhaseFOV": 100,
  "PhaseEncodingDirection": "j",
  "PhaseEncodingSteps": 104,
  "PhaseResolution": 1,
  "PixelBandwidth": 2290,
  "ProcedureStepDescription": "hcptrt_generic",
  "ProtocolName": "func_task-gambling_run-2",
  "PulseSequenceDetails": "%CustomerSeq%_cmrr_mbep2d_bold",
  "ReceiveCoilActiveElements": "HC1-7;NC1,2",
  "ReceiveCoilName": "HeadNeck_64",
  "ReconMatrixPE": 104,
  "RepetitionTime": 1.49,
  "SAR": 0.0387537,
  "ScanOptions": "FS",
  "ScanningSequence": "EP",
  "SequenceName": "epfid2d1_104",
  "SequenceVariant": "SK_SS",
  "SeriesDescription": "func_task-gambling_run-2",
  "SeriesNumber": 40,
  "ShimSetting": [633, -7200, -8803, 737, 99, -17, -25, -6],
  "SliceThickness": 2,
  "SliceTiming": [0, 0.785, 0.0975, 0.8825, 0.1975, 0.98, 0.295, 1.0775, 0.3925, 1.1775, 0.49, 1.275, 0.5875, 1.3725, 0.6875, 0, 0.785, 0.0975, 0.8825, 0.1975, 0.98, 0.295, 1.0775, 0.3925, 1.1775, 0.49, 1.275, 0.5875, 1.3725, 0.6875, 0, 0.785, 0.0975, 0.8825, 0.1975, 0.98, 0.295, 1.0775, 0.3925, 1.1775, 0.49, 1.275, 0.5875, 1.3725, 0.6875, 0, 0.785, 0.0975, 0.8825, 0.1975, 0.98, 0.295, 1.0775, 0.3925, 1.1775, 0.49, 1.275, 0.5875, 1.3725, 0.6875],
  "SoftwareVersions": "syngo_MR_E11",
  "SpacingBetweenSlices": 2,
  "StationName": "MRC35049",
  "TaskName": "gambling",
  "TotalReadoutTime": 0.0576811,
  "TxRefAmp": 251.132,
  "WipMemBlock": "97690951-8195-413b-af79-452ac738a8e7||Sequence: R016 ve11c/master r/e634e98; Dec 19 2017 11:00:25 by eja",
  "dcmmeta_affine": [
    [-1.9967960119247437, -0.05891476571559906, 0.09661749750375748, 108.98782348632812],
    [-0.08501177281141281, 1.9080244302749634, -0.5934778451919556, -63.0598258972168],
    [0.07469196617603302, 0.5966339111328125, 1.9074718952178955, -63.46329879760742],
    [0.0, 0.0, 0.0, 1.0]
],
  "dcmmeta_reorient_transform": [
    [0.0, -1.0, 0.0, 103.0],
    [1.0, 0.0, 0.0, 0.0],
    [0.0, 0.0, 1.0, 0.0],
    [0.0, 0.0, 0.0, 1.0]
],
  "dcmmeta_shape": [104, 104, 60, 129],
  "dcmmeta_slice_dim": 2,
  "dcmmeta_version": 0.6,
  "global": {
    "const": {
      "AcquisitionMatrix": [104, 0, 0, 104],
      "AngioFlag": "N",
      "BitsAllocated": 16,
      "BitsStored": 16,
      "BodyPartExamined": "BRAIN",
      "Columns": 832,
      "EchoNumbers": 1,
      "EchoTime": 37.0,
      "EchoTrainLength": 104,
      "FlipAngle": 52.0,
      "HighBit": 15,
      "ImageOrientationPatient": [0.99839798036403, 0.04250588466381, 0.03734598471029, -0.0294573827153, 0.95401218769825, -0.2983169595024],
      "ImagePositionPatient": [-808.30836133187, -858.9318421287, 187.97686530927],
      "ImageType": [
        "ORIGINAL",
        "PRIMARY",
        "M",
        "MB",
        "ND",
        "MOSAIC"
],
      "ImagedNucleus": "1H",
      "ImagingFrequency": 123.259582,
      "InPlanePhaseEncodingDirection": "COL",
      "MRAcquisitionType": "2D",
      "MagneticFieldStrength": 3.0,
      "Manufacturer": "SIEMENS",
      "ManufacturerModelName": "Prisma_fit",
      "Modality": "MR",
      "NumberOfAverages": 1.0,
      "NumberOfPhaseEncodingSteps": 104,
      "PercentPhaseFieldOfView": 100.0,
      "PercentSampling": 100.0,
      "PerformedProcedureStepStartTime": "153820.893000",
      "PhotometricInterpretation": "MONOCHROME2",
      "PixelBandwidth": 2290.0,
      "PixelRepresentation": 0,
      "PixelSpacing": [2.0, 2.0],
      "ProtocolName": "func_task-gambling_run-2",
      "RepetitionTime": 1490.0,
      "Rows": 832,
      "SAR": 0.03875368426192,
      "SamplesPerPixel": 1,
      "ScanOptions": "FS",
      "ScanningSequence": "EP",
      "SequenceName": "epfid2d1_104",
      "SequenceVariant": [
        "SK",
        "SS"
],
      "SeriesDescription": "func_task-gambling_run-2",
      "SeriesNumber": 40,
      "SeriesTime": "170205.137000",
      "SliceLocation": -36.549857876048,
      "SliceThickness": 2.0,
      "SmallestImagePixelValue": 0,
      "SoftwareVersions": "syngo MR E11",
      "SpacingBetweenSlices": 1.9999999615338,
      "SpecificCharacterSet": "ISO_IR 100",
      "StudyID": "1",
      "StudyTime": "153820.829000",
      "TransmitCoilName": "Body",
      "VariableFlipAngleFlag": "N",
      "WindowCenterWidthExplanation": "Algo1",
      "dBdt": 0.0},
    "slices": {}
  },
  "time": {
    "samples": {
      "AcquisitionNumber": [1, 2, 3, 4, 5, 6, 7, 8, 9, 10, 11, 12, 13, 14, 15, 16, 17, 18, 19, 20, 21, 22, 23, 24, 25, 26, 27, 28, 29, 30, 31, 32, 33, 34, 35, 36, 37, 38, 39, 40, 41, 42, 43, 44, 45, 46, 47, 48, 49, 50, 51, 52, 53, 54, 55, 56, 57, 58, 59, 60, 61, 62, 63, 64, 65, 66, 67, 68, 69, 70, 71, 72, 73, 74, 75, 76, 77, 78, 79, 80, 81, 82, 83, 84, 85, 86, 87, 88, 89, 90, 91, 92, 93, 94, 95, 96, 97, 98, 99, 100, 101, 102, 103, 104, 105, 106, 107, 108, 109, 110, 111, 112, 113, 114, 115, 116, 117, 118, 119, 120, 121, 122, 123, 124, 125, 126, 127, 128, 129],
      "AcquisitionTime": ["170031.930000", "170033.420000", "170034.910000", "170036.400000", "170037.890000", "170039.380000", "170040.870000", "170042.360000", "170043.850000", "170045.340000", "170046.830000", "170048.320000", "170049.810000", "170051.300000", "170052.790000", "170054.280000", "170055.770000", "170057.260000", "170058.750000", "170100.240000", "170101.730000", "170103.220000", "170104.710000", "170106.200000", "170107.690000", "170109.180000", "170110.670000", "170112.160000", "170113.650000", "170115.140000", "170116.630000", "170118.120000", "170119.610000", "170121.100000", "170122.590000", "170124.080000", "170125.570000", "170127.060000", "170128.550000", "170130.040000", "170131.530000", "170133.020000", "170134.510000", "170136.000000", "170137.490000", "170138.980000", "170140.470000", "170141.960000", "170143.450000", "170144.940000", "170146.430000", "170147.920000", "170149.410000", "170150.900000", "170152.390000", "170153.880000", "170155.370000", "170156.860000", "170158.350000", "170159.840000", "170201.330000", "170202.820000", "170204.310000", "170205.800000", "170207.290000", "170208.780000", "170210.270000", "170211.760000", "170213.250000", "170214.740000", "170216.230000", "170217.720000", "170219.210000", "170220.700000", "170222.190000", "170223.680000", "170225.170000", "170226.660000", "170228.150000", "170229.640000", "170231.130000", "170232.620000", "170234.110000", "170235.600000", "170237.090000", "170238.580000", "170240.070000", "170241.560000", "170243.050000", "170244.540000", "170246.030000", "170247.520000", "170249.010000", "170250.500000", "170251.990000", "170253.480000", "170254.970000", "170256.460000", "170257.950000", "170259.440000", "170300.930000", "170302.420000", "170303.910000", "170305.400000", "170306.890000", "170308.380000", "170309.870000", "170311.360000", "170312.850000", "170314.340000", "170315.830000", "170317.320000", "170318.810000", "170320.300000", "170321.790000", "170323.280000", "170324.770000", "170326.260000", "170327.750000", "170329.240000", "170330.730000", "170332.220000", "170333.710000", "170335.200000", "170336.690000", "170338.180000", "170339.670000", "170341.160000", "170342.650000"],
      "ContentTime": ["170205.140000", "170205.143000", "170205.146000", "170205.149000", "170205.152000", "170205.155000", "170205.158000", "170205.161000", "170205.164000", "170205.167000", "170205.170000", "170205.173000", "170205.176000", "170205.179000", "170205.182000", "170205.184000", "170205.187000", "170205.190000", "170205.193000", "170205.196000", "170205.199000", "170205.202000", "170205.205000", "170205.208000", "170205.211000", "170205.214000", "170205.217000", "170205.219000", "170205.222000", "170205.225000", "170205.228000", "170205.231000", "170205.234000", "170205.237000", "170205.248000", "170205.251000", "170205.254000", "170205.256000", "170225.088000", "170225.091000", "170225.094000", "170225.097000", "170225.101000", "170225.104000", "170225.107000", "170225.110000", "170225.113000", "170225.116000", "170225.119000", "170225.122000", "170225.124000", "170225.127000", "170225.130000", "170225.133000", "170225.136000", "170225.139000", "170225.142000", "170225.145000", "170245.089000", "170245.092000", "170245.095000", "170245.098000", "170245.101000", "170245.104000", "170245.107000", "170245.110000", "170245.112000", "170245.115000", "170245.118000", "170245.121000", "170245.124000", "170245.127000", "170245.130000", "170245.133000", "170245.136000", "170245.139000", "170245.142000", "170245.145000", "170305.089000", "170305.092000", "170305.095000", "170305.098000", "170305.108000", "170305.111000", "170305.114000", "170305.117000", "170305.120000", "170305.123000", "170305.126000", "170305.129000", "170305.132000", "170305.135000", "170305.138000", "170305.141000", "170305.144000", "170305.147000", "170305.150000", "170305.153000", "170344.771000", "170344.774000", "170344.777000", "170344.780000", "170344.784000", "170344.787000", "170344.790000", "170344.793000", "170344.796000", "170344.799000", "170344.803000", "170344.806000", "170344.809000", "170344.812000", "170344.815000", "170344.818000", "170344.821000", "170344.824000", "170344.827000", "170344.830000", "170344.833000", "170344.836000", "170344.839000", "170344.848000", "170344.851000", "170344.854000", "170344.857000", "170344.859000", "170344.862000", "170344.865000", "170344.868000"],
      "InstanceCreationTime": ["170205.140000", "170205.143000", "170205.146000", "170205.149000", "170205.152000", "170205.155000", "170205.158000", "170205.161000", "170205.164000", "170205.167000", "170205.170000", "170205.173000", "170205.176000", "170205.179000", "170205.182000", "170205.184000", "170205.187000", "170205.190000", "170205.193000", "170205.196000", "170205.199000", "170205.202000", "170205.205000", "170205.208000", "170205.211000", "170205.214000", "170205.217000", "170205.219000", "170205.222000", "170205.225000", "170205.228000", "170205.231000", "170205.234000", "170205.237000", "170205.248000", "170205.251000", "170205.254000", "170205.256000", "170225.088000", "170225.091000", "170225.094000", "170225.097000", "170225.101000", "170225.104000", "170225.107000", "170225.110000", "170225.113000", "170225.116000", "170225.119000", "170225.122000", "170225.124000", "170225.127000", "170225.130000", "170225.133000", "170225.136000", "170225.139000", "170225.142000", "170225.145000", "170245.089000", "170245.092000", "170245.095000", "170245.098000", "170245.101000", "170245.104000", "170245.107000", "170245.110000", "170245.112000", "170245.115000", "170245.118000", "170245.121000", "170245.124000", "170245.127000", "170245.130000", "170245.133000", "170245.136000", "170245.139000", "170245.142000", "170245.145000", "170305.089000", "170305.092000", "170305.095000", "170305.098000", "170305.108000", "170305.111000", "170305.114000", "170305.117000", "170305.120000", "170305.123000", "170305.126000", "170305.129000", "170305.132000", "170305.135000", "170305.138000", "170305.141000", "170305.144000", "170305.147000", "170305.150000", "170305.153000", "170344.771000", "170344.774000", "170344.777000", "170344.780000", "170344.784000", "170344.787000", "170344.790000", "170344.793000", "170344.796000", "170344.799000", "170344.803000", "170344.806000", "170344.809000", "170344.812000", "170344.815000", "170344.818000", "170344.821000", "170344.824000", "170344.827000", "170344.830000", "170344.833000", "170344.836000", "170344.839000", "170344.848000", "170344.851000", "170344.854000", "170344.857000", "170344.859000", "170344.862000", "170344.865000", "170344.868000"],
      "InstanceNumber": [1, 2, 3, 4, 5, 6, 7, 8, 9, 10, 11, 12, 13, 14, 15, 16, 17, 18, 19, 20, 21, 22, 23, 24, 25, 26, 27, 28, 29, 30, 31, 32, 33, 34, 35, 36, 37, 38, 39, 40, 41, 42, 43, 44, 45, 46, 47, 48, 49, 50, 51, 52, 53, 54, 55, 56, 57, 58, 59, 60, 61, 62, 63, 64, 65, 66, 67, 68, 69, 70, 71, 72, 73, 74, 75, 76, 77, 78, 79, 80, 81, 82, 83, 84, 85, 86, 87, 88, 89, 90, 91, 92, 93, 94, 95, 96, 97, 98, 99, 100, 101, 102, 103, 104, 105, 106, 107, 108, 109, 110, 111, 112, 113, 114, 115, 116, 117, 118, 119, 120, 121, 122, 123, 124, 125, 126, 127, 128, 129],
      "LargestImagePixelValue": [41505, 40197, 40710, 40474, 39846, 39516, 38786, 38619, 39080, 39835, 39955, 41021, 41856, 42022, 40689, 40549, 40241, 40173, 42099, 42566, 42170, 42278, 42012, 42675, 43606, 43750, 42310, 41395, 41592, 43471, 43561, 43378, 42932, 42245, 42288, 41531, 41812, 42818, 43478, 43549, 43826, 43495, 44652, 44400, 44186, 44073, 43635, 44970, 44217, 44325, 44381, 45273, 45780, 45288, 45253, 44427, 43999, 45146, 45345, 44975, 45256, 45026, 44555, 45122, 45798, 45725, 45104, 44659, 45076, 45073, 44971, 45586, 45270, 45676, 45545, 46180, 46235, 45954, 45785, 45865, 46228, 45406, 44888, 45978, 46019, 45779, 45774, 46197, 45688, 46267, 46613, 46042, 46275, 46514, 46464, 46121, 45975, 46483, 45805, 46081, 46306, 45674, 45717, 45641, 45808, 45663, 45777, 45802, 45891, 45840, 46192, 46113, 45710, 45975, 45641, 46538, 45485, 45178, 45708, 45957, 45591, 45006, 44382, 44752, 45119, 45019, 44784, 44193, 43741],
      "WindowCenter": [10148.0, 10142.0, 10154.0, 10154.0, 10126.0, 10107.0, 10088.0, 10100.0, 10116.0, 10134.0, 10149.0, 10157.0, 10172.0, 10163.0, 10128.0, 10118.0, 10133.0, 10155.0, 10188.0, 10193.0, 10162.0, 10144.0, 10134.0, 10139.0, 10151.0, 10135.0, 10093.0, 10081.0, 10098.0, 10149.0, 10149.0, 10123.0, 10092.0, 10083.0, 10080.0, 10081.0, 10092.0, 10132.0, 10158.0, 10151.0, 10142.0, 10132.0, 10156.0, 10169.0, 10165.0, 10155.0, 10142.0, 10156.0, 10181.0, 10183.0, 10184.0, 10187.0, 10195.0, 10188.0, 10188.0, 10174.0, 10152.0, 10153.0, 10169.0, 10171.0, 10163.0, 10161.0, 10157.0, 10177.0, 10210.0, 10208.0, 10184.0, 10170.0, 10161.0, 10168.0, 10185.0, 10193.0, 10181.0, 10195.0, 10216.0, 10212.0, 10216.0, 10220.0, 10213.0, 10214.0, 10211.0, 10205.0, 10199.0, 10203.0, 10206.0, 10195.0, 10195.0, 10211.0, 10220.0, 10220.0, 10228.0, 10213.0, 10211.0, 10211.0, 10203.0, 10203.0, 10213.0, 10212.0, 10206.0, 10220.0, 10227.0, 10212.0, 10223.0, 10214.0, 10220.0, 10220.0, 10220.0, 10231.0, 10229.0, 10238.0, 10256.0, 10251.0, 10226.0, 10220.0, 10220.0, 10229.0, 10208.0, 10201.0, 10225.0, 10223.0, 10191.0, 10174.0, 10165.0, 10168.0, 10169.0, 10181.0, 10176.0, 10160.0, 10160.0],
      "WindowWidth": [21479.0, 21453.0, 21472.0, 21473.0, 21403.0, 21361.0, 21323.0, 21346.0, 21379.0, 21418.0, 21451.0, 21463.0, 21492.0, 21478.0, 21404.0, 21382.0, 21411.0, 21465.0, 21527.0, 21544.0, 21466.0, 21423.0, 21399.0, 21409.0, 21434.0, 21399.0, 21306.0, 21284.0, 21324.0, 21435.0, 21431.0, 21368.0, 21304.0, 21287.0, 21276.0, 21281.0, 21307.0, 21397.0, 21453.0, 21437.0, 21414.0, 21394.0, 21440.0, 21474.0, 21468.0, 21443.0, 21417.0, 21441.0, 21501.0, 21506.0, 21507.0, 21513.0, 21534.0, 21517.0, 21517.0, 21487.0, 21441.0, 21435.0, 21472.0, 21479.0, 21459.0, 21453.0, 21452.0, 21493.0, 21565.0, 21562.0, 21511.0, 21473.0, 21453.0, 21469.0, 21509.0, 21523.0, 21502.0, 21529.0, 21585.0, 21568.0, 21576.0, 21587.0, 21570.0, 21575.0, 21563.0, 21549.0, 21537.0, 21543.0, 21554.0, 21527.0, 21530.0, 21567.0, 21591.0, 21584.0, 21604.0, 21572.0, 21569.0, 21567.0, 21546.0, 21547.0, 21573.0, 21568.0, 21556.0, 21591.0, 21604.0, 21566.0, 21598.0, 21574.0, 21587.0, 21586.0, 21585.0, 21615.0, 21606.0, 21626.0, 21671.0, 21662.0, 21601.0, 21585.0, 21585.0, 21606.0, 21561.0, 21543.0, 21600.0, 21594.0, 21522.0, 21489.0, 21465.0, 21468.0, 21469.0, 21497.0, 21487.0, 21454.0, 21455.0]
    },
    "slices": {}
  }
}