{
  "AcquisitionMatrixPE": 104,
  "AcquisitionNumber": 1,
  "AcquisitionTime": "16:52:17.060000",
  "BandwidthPerPixelPhaseEncode": 17.17,
  "BaseResolution": 104,
  "BodyPartExamined": "BRAIN",
  "CoilString": "HC1-7;NC1_2",
  "ConsistencyInfo": "N4_VE11C_LATEST_20160120",
  "ConversionSoftware": "dcm2niix",
  "ConversionSoftwareVersion": "v1.0.20190720  (JP2:OpenJPEG) GCC7.3.0",
  "DerivedVendorReportedEchoSpacing": 0.000560011,
  "DeviceSerialNumber": "167006",
  "DwellTime": 2.1e-06,
  "EchoTime": 0.037,
  "EchoTrainLength": 104,
  "EffectiveEchoSpacing": 0.000560011,
  "FlipAngle": 52,
  "ImageComments": "Unaliased_MB4_PE3_LB",
  "ImageOrientationPatientDICOM": [0.99867, 0.0331527, 0.0394955, -0.0198728, 0.954212, -0.298471],
  "ImageType": [
    "ORIGINAL",
    "PRIMARY",
    "M",
    "MB",
    "ND",
    "MOSAIC"
],
  "ImagingFrequency": 123.26,
  "InPlanePhaseEncodingDirectionDICOM": "COL",
  "InstitutionAddress": "Chemin_Queen-Mary_4565_Montreal_District_CA_H3W_1W5",
  "InstitutionName": "IUGM",
  "InstitutionalDepartmentName": "Department",
  "MRAcquisitionType": "2D",
  "MagneticFieldStrength": 3,
  "Manufacturer": "Siemens",
  "ManufacturersModelName": "Prisma_fit",
  "Modality": "MR",
  "MultibandAccelerationFactor": 4,
  "PartialFourier": 1,
  "PatientPosition": "HFS",
  "PercentPhaseFOV": 100,
  "PhaseEncodingDirection": "j",
  "PhaseEncodingSteps": 104,
  "PhaseResolution": 1,
  "PixelBandwidth": 2290,
  "ProcedureStepDescription": "hcptrt_generic",
  "ProtocolName": "func_task-motor_run-2",
  "PulseSequenceDetails": "%CustomerSeq%_cmrr_mbep2d_bold",
  "ReceiveCoilActiveElements": "HC1-7;NC1,2",
  "ReceiveCoilName": "HeadNeck_64",
  "ReconMatrixPE": 104,
  "RepetitionTime": 1.49,
  "SAR": 0.0388119,
  "ScanOptions": "FS",
  "ScanningSequence": "EP",
  "SequenceName": "epfid2d1_104",
  "SequenceVariant": "SK_SS",
  "SeriesDescription": "func_task-motor_run-2",
  "SeriesNumber": 36,
  "ShimSetting": [633, -7201, -8803, 738, 99, -17, -25, -7],
  "SliceThickness": 2,
  "SliceTiming": [0, 0.7825, 0.0975, 0.8825, 0.195, 0.98, 0.295, 1.0775, 0.3925, 1.175, 0.49, 1.2725, 0.5875, 1.3725, 0.685, 0, 0.7825, 0.0975, 0.8825, 0.195, 0.98, 0.295, 1.0775, 0.3925, 1.175, 0.49, 1.2725, 0.5875, 1.3725, 0.685, 0, 0.7825, 0.0975, 0.8825, 0.195, 0.98, 0.295, 1.0775, 0.3925, 1.175, 0.49, 1.2725, 0.5875, 1.3725, 0.685, 0, 0.7825, 0.0975, 0.8825, 0.195, 0.98, 0.295, 1.0775, 0.3925, 1.175, 0.49, 1.2725, 0.5875, 1.3725, 0.685],
  "SoftwareVersions": "syngo_MR_E11",
  "SpacingBetweenSlices": 2,
  "StationName": "MRC35049",
  "TaskName": "motor",
  "TotalReadoutTime": 0.0576811,
  "TxRefAmp": 251.132,
  "WipMemBlock": "8a230143-6e18-4689-aa38-1af0a55fff5a||Sequence: R016 ve11c/master r/e634e98; Dec 19 2017 11:00:25 by eja",
  "dcmmeta_affine": [
    [-1.9973392486572266, -0.039745692163705826, 0.09516440331935883, 108.04581451416016],
    [-0.06630539149045944, 1.9084233045578003, -0.5945789813995361, -64.01998901367188],
    [0.07899101078510284, 0.5969429016113281, 1.9072020053863525, -63.694984436035156],
    [0.0, 0.0, 0.0, 1.0]
],
  "dcmmeta_reorient_transform": [
    [0.0, -1.0, 0.0, 103.0],
    [1.0, 0.0, 0.0, 0.0],
    [0.0, 0.0, 1.0, 0.0],
    [0.0, 0.0, 0.0, 1.0]
],
  "dcmmeta_shape": [104, 104, 60, 144],
  "dcmmeta_slice_dim": 2,
  "dcmmeta_version": 0.6,
  "global": {
    "const": {
      "AcquisitionMatrix": [104, 0, 0, 104],
      "AngioFlag": "N",
      "BitsAllocated": 16,
      "BitsStored": 16,
      "BodyPartExamined": "BRAIN",
      "Columns": 832,
      "EchoNumbers": 1,
      "EchoTime": 37.0,
      "EchoTrainLength": 104,
      "FlipAngle": 52.0,
      "HighBit": 15,
      "ImageOrientationPatient": [0.99866961700931, 0.0331526949793, 0.03949550453015, -0.0198728455879, 0.95421164494526, -0.298471450325],
      "ImagePositionPatient": [-816.51606123016, -851.34884613401, 186.32462104132],
      "ImageType": [
        "ORIGINAL",
        "PRIMARY",
        "M",
        "MB",
        "ND",
        "MOSAIC"
],
      "ImagedNucleus": "1H",
      "ImagingFrequency": 123.25958,
      "InPlanePhaseEncodingDirection": "COL",
      "MRAcquisitionType": "2D",
      "MagneticFieldStrength": 3.0,
      "Manufacturer": "SIEMENS",
      "ManufacturerModelName": "Prisma_fit",
      "Modality": "MR",
      "NumberOfAverages": 1.0,
      "NumberOfPhaseEncodingSteps": 104,
      "PercentPhaseFieldOfView": 100.0,
      "PercentSampling": 100.0,
      "PerformedProcedureStepStartTime": "153820.893000",
      "PhotometricInterpretation": "MONOCHROME2",
      "PixelBandwidth": 2290.0,
      "PixelRepresentation": 0,
      "PixelSpacing": [2.0, 2.0],
      "ProtocolName": "func_task-motor_run-2",
      "RepetitionTime": 1490.0,
      "Rows": 832,
      "SAR": 0.03881190534156,
      "SamplesPerPixel": 1,
      "ScanOptions": "FS",
      "ScanningSequence": "EP",
      "SequenceName": "epfid2d1_104",
      "SequenceVariant": [
        "SK",
        "SS"
],
      "SeriesDescription": "func_task-motor_run-2",
      "SeriesNumber": 36,
      "SeriesTime": "165331.968000",
      "SliceLocation": -36.566075324604,
      "SliceThickness": 2.0,
      "SmallestImagePixelValue": 0,
      "SoftwareVersions": "syngo MR E11",
      "SpacingBetweenSlices": 1.999999991196,
      "SpecificCharacterSet": "ISO_IR 100",
      "StudyID": "1",
      "StudyTime": "153820.829000",
      "TransmitCoilName": "Body",
      "VariableFlipAngleFlag": "N",
      "WindowCenterWidthExplanation": "Algo1",
      "dBdt": 0.0},
    "slices": {}
  },
  "time": {
    "samples": {
      "AcquisitionNumber": [1, 2, 3, 4, 5, 6, 7, 8, 9, 10, 11, 12, 13, 14, 15, 16, 17, 18, 19, 20, 21, 22, 23, 24, 25, 26, 27, 28, 29, 30, 31, 32, 33, 34, 35, 36, 37, 38, 39, 40, 41, 42, 43, 44, 45, 46, 47, 48, 49, 50, 51, 52, 53, 54, 55, 56, 57, 58, 59, 60, 61, 62, 63, 64, 65, 66, 67, 68, 69, 70, 71, 72, 73, 74, 75, 76, 77, 78, 79, 80, 81, 82, 83, 84, 85, 86, 87, 88, 89, 90, 91, 92, 93, 94, 95, 96, 97, 98, 99, 100, 101, 102, 103, 104, 105, 106, 107, 108, 109, 110, 111, 112, 113, 114, 115, 116, 117, 118, 119, 120, 121, 122, 123, 124, 125, 126, 127, 128, 129, 130, 131, 132, 133, 134, 135, 136, 137, 138, 139, 140, 141, 142, 143, 144],
      "AcquisitionTime": ["165217.060000", "165218.550000", "165220.040000", "165221.530000", "165223.020000", "165224.510000", "165226.000000", "165227.490000", "165228.980000", "165230.470000", "165231.960000", "165233.450000", "165234.940000", "165236.430000", "165237.920000", "165239.410000", "165240.900000", "165242.390000", "165243.880000", "165245.370000", "165246.860000", "165248.350000", "165249.840000", "165251.330000", "165252.820000", "165254.310000", "165255.800000", "165257.290000", "165258.780000", "165300.270000", "165301.760000", "165303.250000", "165304.740000", "165306.230000", "165307.720000", "165309.210000", "165310.700000", "165312.190000", "165313.680000", "165315.170000", "165316.660000", "165318.150000", "165319.640000", "165321.130000", "165322.620000", "165324.110000", "165325.600000", "165327.090000", "165328.580000", "165330.070000", "165331.560000", "165333.050000", "165334.540000", "165336.030000", "165337.520000", "165339.010000", "165340.500000", "165341.990000", "165343.480000", "165344.970000", "165346.460000", "165347.950000", "165349.440000", "165350.930000", "165352.420000", "165353.910000", "165355.400000", "165356.890000", "165358.380000", "165359.870000", "165401.360000", "165402.850000", "165404.340000", "165405.830000", "165407.320000", "165408.810000", "165410.300000", "165411.790000", "165413.280000", "165414.770000", "165416.260000", "165417.750000", "165419.240000", "165420.730000", "165422.220000", "165423.710000", "165425.200000", "165426.690000", "165428.180000", "165429.670000", "165431.160000", "165432.650000", "165434.140000", "165435.630000", "165437.120000", "165438.610000", "165440.100000", "165441.590000", "165443.080000", "165444.570000", "165446.060000", "165447.550000", "165449.040000", "165450.530000", "165452.020000", "165453.510000", "165455.000000", "165456.490000", "165457.980000", "165459.470000", "165500.960000", "165502.450000", "165503.940000", "165505.430000", "165506.920000", "165508.410000", "165509.900000", "165511.390000", "165512.880000", "165514.370000", "165515.860000", "165517.350000", "165518.840000", "165520.330000", "165521.820000", "165523.310000", "165524.800000", "165526.290000", "165527.780000", "165529.270000", "165530.760000", "165532.250000", "165533.740000", "165535.230000", "165536.720000", "165538.210000", "165539.700000", "165541.190000", "165542.680000", "165544.170000", "165545.660000", "165547.150000", "165548.640000", "165550.130000"],
      "ContentTime": ["165331.971000", "165331.975000", "165331.978000", "165331.981000", "165331.984000", "165331.987000", "165331.990000", "165331.993000", "165331.996000", "165332.000000", "165332.003000", "165332.011000", "165332.014000", "165332.017000", "165332.020000", "165332.023000", "165332.026000", "165332.029000", "165332.032000", "165332.043000", "165332.046000", "165351.937000", "165351.940000", "165351.943000", "165351.946000", "165351.949000", "165351.952000", "165351.955000", "165351.958000", "165351.961000", "165351.964000", "165351.966000", "165351.969000", "165351.972000", "165351.975000", "165351.978000", "165351.981000", "165351.984000", "165351.987000", "165351.990000", "165351.993000", "165411.937000", "165411.940000", "165411.943000", "165411.946000", "165411.949000", "165411.952000", "165411.955000", "165411.958000", "165411.961000", "165411.964000", "165411.967000", "165411.970000", "165411.973000", "165411.975000", "165411.978000", "165411.981000", "165411.984000", "165411.987000", "165411.990000", "165411.993000", "165431.937000", "165431.940000", "165431.943000", "165431.946000", "165431.949000", "165431.958000", "165431.961000", "165431.964000", "165431.967000", "165431.971000", "165431.974000", "165431.977000", "165431.980000", "165431.983000", "165431.986000", "165431.989000", "165431.992000", "165431.995000", "165431.998000", "165432.001000", "165451.938000", "165451.941000", "165451.944000", "165451.947000", "165451.950000", "165451.953000", "165451.956000", "165451.959000", "165451.962000", "165451.965000", "165451.968000", "165451.971000", "165451.974000", "165451.977000", "165451.980000", "165451.983000", "165451.986000", "165451.989000", "165451.992000", "165451.995000", "165451.998000", "165531.938000", "165531.954000", "165531.958000", "165531.960000", "165531.963000", "165531.966000", "165531.969000", "165531.972000", "165531.975000", "165531.978000", "165531.981000", "165531.984000", "165531.987000", "165531.990000", "165531.993000", "165531.996000", "165532.000000", "165532.014000", "165532.017000", "165532.020000", "165532.023000", "165532.026000", "165532.029000", "165532.032000", "165532.035000", "165532.037000", "165532.040000", "165532.043000", "165552.155000", "165552.158000", "165552.161000", "165552.164000", "165552.179000", "165552.182000", "165552.185000", "165552.188000", "165552.191000", "165552.194000", "165552.197000", "165552.200000", "165552.203000", "165552.206000"],
      "InstanceCreationTime": ["165331.971000", "165331.975000", "165331.978000", "165331.981000", "165331.984000", "165331.987000", "165331.990000", "165331.993000", "165331.996000", "165332.000000", "165332.003000", "165332.011000", "165332.014000", "165332.017000", "165332.020000", "165332.023000", "165332.026000", "165332.029000", "165332.032000", "165332.043000", "165332.046000", "165351.937000", "165351.940000", "165351.943000", "165351.946000", "165351.949000", "165351.952000", "165351.955000", "165351.958000", "165351.961000", "165351.964000", "165351.966000", "165351.969000", "165351.972000", "165351.975000", "165351.978000", "165351.981000", "165351.984000", "165351.987000", "165351.990000", "165351.993000", "165411.937000", "165411.940000", "165411.943000", "165411.946000", "165411.949000", "165411.952000", "165411.955000", "165411.958000", "165411.961000", "165411.964000", "165411.967000", "165411.970000", "165411.973000", "165411.975000", "165411.978000", "165411.981000", "165411.984000", "165411.987000", "165411.990000", "165411.993000", "165431.937000", "165431.940000", "165431.943000", "165431.946000", "165431.949000", "165431.958000", "165431.961000", "165431.964000", "165431.967000", "165431.971000", "165431.974000", "165431.977000", "165431.980000", "165431.983000", "165431.986000", "165431.989000", "165431.992000", "165431.995000", "165431.998000", "165432.001000", "165451.938000", "165451.941000", "165451.944000", "165451.947000", "165451.950000", "165451.953000", "165451.956000", "165451.959000", "165451.962000", "165451.965000", "165451.968000", "165451.971000", "165451.974000", "165451.977000", "165451.980000", "165451.983000", "165451.986000", "165451.989000", "165451.992000", "165451.995000", "165451.998000", "165531.938000", "165531.954000", "165531.958000", "165531.960000", "165531.963000", "165531.966000", "165531.969000", "165531.972000", "165531.975000", "165531.978000", "165531.981000", "165531.984000", "165531.987000", "165531.990000", "165531.993000", "165531.996000", "165532.000000", "165532.014000", "165532.017000", "165532.020000", "165532.023000", "165532.026000", "165532.029000", "165532.032000", "165532.035000", "165532.037000", "165532.040000", "165532.043000", "165552.155000", "165552.158000", "165552.161000", "165552.164000", "165552.179000", "165552.182000", "165552.185000", "165552.188000", "165552.191000", "165552.194000", "165552.197000", "165552.200000", "165552.203000", "165552.206000"],
      "InstanceNumber": [1, 2, 3, 4, 5, 6, 7, 8, 9, 10, 11, 12, 13, 14, 15, 16, 17, 18, 19, 20, 21, 22, 23, 24, 25, 26, 27, 28, 29, 30, 31, 32, 33, 34, 35, 36, 37, 38, 39, 40, 41, 42, 43, 44, 45, 46, 47, 48, 49, 50, 51, 52, 53, 54, 55, 56, 57, 58, 59, 60, 61, 62, 63, 64, 65, 66, 67, 68, 69, 70, 71, 72, 73, 74, 75, 76, 77, 78, 79, 80, 81, 82, 83, 84, 85, 86, 87, 88, 89, 90, 91, 92, 93, 94, 95, 96, 97, 98, 99, 100, 101, 102, 103, 104, 105, 106, 107, 108, 109, 110, 111, 112, 113, 114, 115, 116, 117, 118, 119, 120, 121, 122, 123, 124, 125, 126, 127, 128, 129, 130, 131, 132, 133, 134, 135, 136, 137, 138, 139, 140, 141, 142, 143, 144],
      "LargestImagePixelValue": [41078, 40174, 39966, 39393, 38891, 39179, 39437, 38950, 39323, 38906, 38621, 39243, 38891, 38512, 39204, 38538, 39257, 39212, 38840, 38830, 38862, 39108, 39115, 38944, 40021, 38661, 39057, 39795, 39070, 38850, 39861, 39119, 39449, 40636, 39091, 39296, 39071, 39604, 38773, 39113, 39228, 39714, 38563, 39255, 39026, 38732, 39209, 39493, 38887, 38819, 38972, 39212, 38606, 39148, 38611, 38999, 38719, 39465, 39404, 39331, 38985, 38631, 39210, 38750, 39423, 39374, 39743, 39156, 38311, 38040, 38567, 38048, 38863, 38326, 38257, 38506, 38530, 38752, 39214, 39007, 38756, 38728, 38890, 38878, 38878, 38856, 39262, 39241, 39132, 39321, 38738, 39094, 39631, 39114, 39425, 38964, 39156, 39447, 39850, 39464, 39274, 39157, 38916, 38672, 39574, 39787, 39874, 39562, 39121, 38798, 38261, 38470, 38674, 38985, 38755, 38557, 38609, 38385, 38297, 38627, 38335, 38916, 39146, 38775, 38225, 38677, 38426, 38374, 38839, 39477, 38396, 38666, 39030, 38917, 38546, 39879, 40616, 39701, 40385, 40284, 43694, 43464, 42370, 43639],
      "WindowCenter": [10197.0, 10176.0, 10179.0, 10155.0, 10122.0, 10099.0, 10113.0, 10127.0, 10133.0, 10133.0, 10148.0, 10146.0, 10137.0, 10124.0, 10133.0, 10124.0, 10142.0, 10144.0, 10137.0, 10129.0, 10145.0, 10148.0, 10152.0, 10154.0, 10149.0, 10129.0, 10145.0, 10148.0, 10145.0, 10150.0, 10158.0, 10147.0, 10163.0, 10173.0, 10156.0, 10154.0, 10147.0, 10149.0, 10154.0, 10184.0, 10183.0, 10170.0, 10149.0, 10161.0, 10145.0, 10128.0, 10141.0, 10145.0, 10141.0, 10145.0, 10151.0, 10149.0, 10153.0, 10154.0, 10145.0, 10142.0, 10136.0, 10160.0, 10179.0, 10174.0, 10179.0, 10148.0, 10134.0, 10135.0, 10180.0, 10191.0, 10172.0, 10159.0, 10154.0, 10136.0, 10140.0, 10144.0, 10168.0, 10154.0, 10152.0, 10144.0, 10134.0, 10126.0, 10152.0, 10155.0, 10149.0, 10151.0, 10147.0, 10135.0, 10144.0, 10148.0, 10144.0, 10141.0, 10129.0, 10129.0, 10123.0, 10151.0, 10158.0, 10146.0, 10151.0, 10145.0, 10127.0, 10152.0, 10186.0, 10182.0, 10154.0, 10117.0, 10114.0, 10115.0, 10137.0, 10159.0, 10165.0, 10143.0, 10115.0, 10098.0, 10090.0, 10125.0, 10164.0, 10164.0, 10148.0, 10139.0, 10128.0, 10103.0, 10100.0, 10126.0, 10130.0, 10154.0, 10156.0, 10146.0, 10133.0, 10138.0, 10119.0, 10112.0, 10126.0, 10154.0, 10149.0, 10141.0, 10156.0, 10152.0, 10139.0, 10155.0, 10180.0, 10203.0, 10204.0, 10166.0, 10180.0, 10190.0, 10162.0, 10187.0],
      "WindowWidth": [21598.0, 21539.0, 21539.0, 21479.0, 21402.0, 21347.0, 21376.0, 21417.0, 21423.0, 21426.0, 21468.0, 21460.0, 21437.0, 21415.0, 21426.0, 21415.0, 21448.0, 21454.0, 21436.0, 21418.0, 21453.0, 21461.0, 21466.0, 21475.0, 21458.0, 21419.0, 21458.0, 21459.0, 21452.0, 21470.0, 21479.0, 21459.0, 21496.0, 21511.0, 21482.0, 21476.0, 21462.0, 21460.0, 21472.0, 21544.0, 21539.0, 21504.0, 21463.0, 21486.0, 21450.0, 21416.0, 21442.0, 21457.0, 21442.0, 21454.0, 21465.0, 21458.0, 21473.0, 21480.0, 21457.0, 21445.0, 21439.0, 21486.0, 21530.0, 21519.0, 21538.0, 21464.0, 21427.0, 21433.0, 21538.0, 21561.0, 21512.0, 21485.0, 21478.0, 21439.0, 21445.0, 21458.0, 21513.0, 21481.0, 21474.0, 21457.0, 21434.0, 21407.0, 21469.0, 21474.0, 21463.0, 21468.0, 21456.0, 21425.0, 21449.0, 21463.0, 21447.0, 21443.0, 21419.0, 21411.0, 21401.0, 21467.0, 21478.0, 21455.0, 21466.0, 21454.0, 21411.0, 21467.0, 21546.0, 21537.0, 21474.0, 21388.0, 21380.0, 21384.0, 21431.0, 21484.0, 21493.0, 21447.0, 21381.0, 21350.0, 21331.0, 21413.0, 21502.0, 21497.0, 21460.0, 21441.0, 21416.0, 21362.0, 21356.0, 21418.0, 21428.0, 21479.0, 21483.0, 21457.0, 21432.0, 21439.0, 21396.0, 21382.0, 21414.0, 21478.0, 21467.0, 21449.0, 21488.0, 21469.0, 21445.0, 21471.0, 21528.0, 21585.0, 21598.0, 21487.0, 21511.0, 21530.0, 21478.0, 21524.0]
    },
    "slices": {}
  }
}