{
  "AcquisitionMatrixPE": 104,
  "AcquisitionNumber": 1,
  "AcquisitionTime": "16:34:13.165000",
  "BandwidthPerPixelPhaseEncode": 17.17,
  "BaseResolution": 104,
  "BodyPartExamined": "BRAIN",
  "CoilString": "HC1-7;NC1_2",
  "ConsistencyInfo": "N4_VE11C_LATEST_20160120",
  "ConversionSoftware": "dcm2niix",
  "ConversionSoftwareVersion": "v1.0.20190720  (JP2:OpenJPEG) GCC7.3.0",
  "DerivedVendorReportedEchoSpacing": 0.000560011,
  "DeviceSerialNumber": "167006",
  "DwellTime": 2.1e-06,
  "EchoTime": 0.037,
  "EchoTrainLength": 104,
  "EffectiveEchoSpacing": 0.000560011,
  "FlipAngle": 52,
  "ImageComments": "Unaliased_MB4_PE3_LB",
  "ImageOrientationPatientDICOM": [0.99867, 0.0331527, 0.0394955, -0.0198728, 0.954212, -0.298471],
  "ImageType": [
    "ORIGINAL",
    "PRIMARY",
    "M",
    "MB",
    "ND",
    "MOSAIC"
],
  "ImagingFrequency": 123.26,
  "InPlanePhaseEncodingDirectionDICOM": "COL",
  "InstitutionAddress": "Chemin_Queen-Mary_4565_Montreal_District_CA_H3W_1W5",
  "InstitutionName": "IUGM",
  "InstitutionalDepartmentName": "Department",
  "MRAcquisitionType": "2D",
  "MagneticFieldStrength": 3,
  "Manufacturer": "Siemens",
  "ManufacturersModelName": "Prisma_fit",
  "Modality": "MR",
  "MultibandAccelerationFactor": 4,
  "PartialFourier": 1,
  "PatientPosition": "HFS",
  "PercentPhaseFOV": 100,
  "PhaseEncodingDirection": "j",
  "PhaseEncodingSteps": 104,
  "PhaseResolution": 1,
  "PixelBandwidth": 2290,
  "ProcedureStepDescription": "hcptrt_generic",
  "ProtocolName": "func_task-social_run-2",
  "PulseSequenceDetails": "%CustomerSeq%_cmrr_mbep2d_bold",
  "ReceiveCoilActiveElements": "HC1-7;NC1,2",
  "ReceiveCoilName": "HeadNeck_64",
  "ReconMatrixPE": 104,
  "RepetitionTime": 1.49,
  "SAR": 0.0387938,
  "ScanOptions": "FS",
  "ScanningSequence": "EP",
  "SequenceName": "epfid2d1_104",
  "SequenceVariant": "SK_SS",
  "SeriesDescription": "func_task-social_run-2",
  "SeriesNumber": 28,
  "ShimSetting": [633, -7201, -8803, 738, 99, -17, -25, -7],
  "SliceThickness": 2,
  "SliceTiming": [0, 0.785, 0.1, 0.8825, 0.1975, 0.98, 0.295, 1.08, 0.3925, 1.1775, 0.49, 1.275, 0.59, 1.3725, 0.6875, 0, 0.785, 0.1, 0.8825, 0.1975, 0.98, 0.295, 1.08, 0.3925, 1.1775, 0.49, 1.275, 0.59, 1.3725, 0.6875, 0, 0.785, 0.1, 0.8825, 0.1975, 0.98, 0.295, 1.08, 0.3925, 1.1775, 0.49, 1.275, 0.59, 1.3725, 0.6875, 0, 0.785, 0.1, 0.8825, 0.1975, 0.98, 0.295, 1.08, 0.3925, 1.1775, 0.49, 1.275, 0.59, 1.3725, 0.6875],
  "SoftwareVersions": "syngo_MR_E11",
  "SpacingBetweenSlices": 2,
  "StationName": "MRC35049",
  "TaskName": "social",
  "TotalReadoutTime": 0.0576811,
  "TxRefAmp": 251.132,
  "WipMemBlock": "fffe9775-9b0f-4537-ba1c-8b05a1d433c9||Sequence: R016 ve11c/master r/e634e98; Dec 19 2017 11:00:25 by eja",
  "dcmmeta_affine": [
    [-1.9973392486572266, -0.039745692163705826, 0.09516440331935883, 108.04581451416016],
    [-0.06630539149045944, 1.9084233045578003, -0.5945789813995361, -64.01998901367188],
    [0.07899101078510284, 0.5969429016113281, 1.9072020053863525, -63.694984436035156],
    [0.0, 0.0, 0.0, 1.0]
],
  "dcmmeta_reorient_transform": [
    [0.0, -1.0, 0.0, 103.0],
    [1.0, 0.0, 0.0, 0.0],
    [0.0, 0.0, 1.0, 0.0],
    [0.0, 0.0, 0.0, 1.0]
],
  "dcmmeta_shape": [104, 104, 60, 139],
  "dcmmeta_slice_dim": 2,
  "dcmmeta_version": 0.6,
  "global": {
    "const": {
      "AcquisitionMatrix": [104, 0, 0, 104],
      "AngioFlag": "N",
      "BitsAllocated": 16,
      "BitsStored": 16,
      "BodyPartExamined": "BRAIN",
      "Columns": 832,
      "EchoNumbers": 1,
      "EchoTime": 37.0,
      "EchoTrainLength": 104,
      "FlipAngle": 52.0,
      "HighBit": 15,
      "ImageOrientationPatient": [0.99866961700931, 0.0331526949793, 0.03949550453015, -0.0198728455879, 0.95421164494526, -0.298471450325],
      "ImagePositionPatient": [-816.51606123016, -851.34884613401, 186.32462104132],
      "ImageType": [
        "ORIGINAL",
        "PRIMARY",
        "M",
        "MB",
        "ND",
        "MOSAIC"
],
      "ImagedNucleus": "1H",
      "ImagingFrequency": 123.259576,
      "InPlanePhaseEncodingDirection": "COL",
      "MRAcquisitionType": "2D",
      "MagneticFieldStrength": 3.0,
      "Manufacturer": "SIEMENS",
      "ManufacturerModelName": "Prisma_fit",
      "Modality": "MR",
      "NumberOfAverages": 1.0,
      "NumberOfPhaseEncodingSteps": 104,
      "PercentPhaseFieldOfView": 100.0,
      "PercentSampling": 100.0,
      "PerformedProcedureStepStartTime": "153820.893000",
      "PhotometricInterpretation": "MONOCHROME2",
      "PixelBandwidth": 2290.0,
      "PixelRepresentation": 0,
      "PixelSpacing": [2.0, 2.0],
      "ProtocolName": "func_task-social_run-2",
      "RepetitionTime": 1490.0,
      "Rows": 832,
      "SAR": 0.03879382682091,
      "SamplesPerPixel": 1,
      "ScanOptions": "FS",
      "ScanningSequence": "EP",
      "SequenceName": "epfid2d1_104",
      "SequenceVariant": [
        "SK",
        "SS"
],
      "SeriesDescription": "func_task-social_run-2",
      "SeriesNumber": 28,
      "SeriesTime": "163545.121000",
      "SliceLocation": -36.566075324604,
      "SliceThickness": 2.0,
      "SmallestImagePixelValue": 0,
      "SoftwareVersions": "syngo MR E11",
      "SpacingBetweenSlices": 1.999999991196,
      "SpecificCharacterSet": "ISO_IR 100",
      "StudyID": "1",
      "StudyTime": "153820.829000",
      "TransmitCoilName": "Body",
      "VariableFlipAngleFlag": "N",
      "WindowCenterWidthExplanation": "Algo1",
      "dBdt": 0.0},
    "slices": {}
  },
  "time": {
    "samples": {
      "AcquisitionNumber": [1, 2, 3, 4, 5, 6, 7, 8, 9, 10, 11, 12, 13, 14, 15, 16, 17, 18, 19, 20, 21, 22, 23, 24, 25, 26, 27, 28, 29, 30, 31, 32, 33, 34, 35, 36, 37, 38, 39, 40, 41, 42, 43, 44, 45, 46, 47, 48, 49, 50, 51, 52, 53, 54, 55, 56, 57, 58, 59, 60, 61, 62, 63, 64, 65, 66, 67, 68, 69, 70, 71, 72, 73, 74, 75, 76, 77, 78, 79, 80, 81, 82, 83, 84, 85, 86, 87, 88, 89, 90, 91, 92, 93, 94, 95, 96, 97, 98, 99, 100, 101, 102, 103, 104, 105, 106, 107, 108, 109, 110, 111, 112, 113, 114, 115, 116, 117, 118, 119, 120, 121, 122, 123, 124, 125, 126, 127, 128, 129, 130, 131, 132, 133, 134, 135, 136, 137, 138, 139],
      "AcquisitionTime": ["163413.165000", "163414.655000", "163416.145000", "163417.635000", "163419.125000", "163420.615000", "163422.105000", "163423.595000", "163425.085000", "163426.575000", "163428.065000", "163429.555000", "163431.045000", "163432.535000", "163434.025000", "163435.515000", "163437.005000", "163438.495000", "163439.985000", "163441.475000", "163442.965000", "163444.455000", "163445.945000", "163447.435000", "163448.925000", "163450.415000", "163451.905000", "163453.395000", "163454.885000", "163456.375000", "163457.865000", "163459.355000", "163500.845000", "163502.335000", "163503.825000", "163505.315000", "163506.805000", "163508.295000", "163509.785000", "163511.275000", "163512.765000", "163514.255000", "163515.745000", "163517.235000", "163518.725000", "163520.215000", "163521.705000", "163523.195000", "163524.685000", "163526.175000", "163527.665000", "163529.155000", "163530.645000", "163532.135000", "163533.625000", "163535.115000", "163536.605000", "163538.095000", "163539.585000", "163541.075000", "163542.565000", "163544.055000", "163545.545000", "163547.035000", "163548.525000", "163550.015000", "163551.505000", "163552.995000", "163554.485000", "163555.975000", "163557.465000", "163558.955000", "163600.445000", "163601.935000", "163603.425000", "163604.915000", "163606.405000", "163607.895000", "163609.385000", "163610.875000", "163612.365000", "163613.855000", "163615.345000", "163616.835000", "163618.325000", "163619.815000", "163621.305000", "163622.795000", "163624.285000", "163625.775000", "163627.265000", "163628.755000", "163630.245000", "163631.735000", "163633.225000", "163634.715000", "163636.205000", "163637.695000", "163639.185000", "163640.675000", "163642.165000", "163643.655000", "163645.145000", "163646.635000", "163648.125000", "163649.615000", "163651.105000", "163652.595000", "163654.085000", "163655.575000", "163657.065000", "163658.555000", "163700.045000", "163701.535000", "163703.025000", "163704.515000", "163706.005000", "163707.495000", "163708.985000", "163710.475000", "163711.965000", "163713.455000", "163714.945000", "163716.435000", "163717.925000", "163719.415000", "163720.905000", "163722.395000", "163723.885000", "163725.375000", "163726.865000", "163728.355000", "163729.845000", "163731.335000", "163732.825000", "163734.315000", "163735.805000", "163737.295000", "163738.785000"],
      "ContentTime": ["163545.124000", "163545.128000", "163545.131000", "163545.134000", "163545.137000", "163545.140000", "163545.142000", "163545.145000", "163545.148000", "163545.151000", "163545.154000", "163545.169000", "163545.172000", "163545.175000", "163545.178000", "163545.181000", "163545.184000", "163545.187000", "163545.190000", "163545.193000", "163545.196000", "163545.199000", "163545.202000", "163545.205000", "163545.208000", "163545.211000", "163545.214000", "163545.216000", "163545.220000", "163545.234000", "163545.237000", "163545.240000", "163545.243000", "163545.246000", "163545.249000", "163545.252000", "163605.088000", "163605.091000", "163605.094000", "163605.097000", "163605.100000", "163605.103000", "163605.112000", "163605.115000", "163605.118000", "163605.121000", "163605.124000", "163605.127000", "163605.130000", "163605.139000", "163605.141000", "163605.144000", "163605.147000", "163605.150000", "163605.153000", "163605.156000", "163605.159000", "163625.088000", "163625.091000", "163625.094000", "163625.097000", "163625.100000", "163625.103000", "163625.105000", "163625.108000", "163625.111000", "163625.114000", "163625.117000", "163625.120000", "163625.123000", "163625.127000", "163625.130000", "163625.133000", "163625.136000", "163625.139000", "163625.142000", "163625.145000", "163645.088000", "163645.091000", "163645.094000", "163645.097000", "163645.100000", "163645.103000", "163645.106000", "163645.109000", "163645.112000", "163645.114000", "163645.117000", "163645.120000", "163645.123000", "163645.127000", "163645.130000", "163645.132000", "163645.136000", "163645.139000", "163645.141000", "163645.144000", "163725.089000", "163725.092000", "163725.095000", "163725.098000", "163725.101000", "163725.104000", "163725.107000", "163725.110000", "163725.113000", "163725.116000", "163725.119000", "163725.122000", "163725.125000", "163725.128000", "163725.132000", "163725.138000", "163725.141000", "163725.144000", "163725.147000", "163725.150000", "163725.153000", "163725.156000", "163725.159000", "163725.162000", "163725.165000", "163725.168000", "163725.171000", "163725.174000", "163725.178000", "163725.189000", "163725.192000", "163741.285000", "163741.289000", "163741.292000", "163741.295000", "163741.298000", "163741.301000", "163741.304000", "163741.307000", "163741.310000", "163741.313000", "163741.316000"],
      "InstanceCreationTime": ["163545.124000", "163545.128000", "163545.131000", "163545.134000", "163545.137000", "163545.140000", "163545.142000", "163545.145000", "163545.148000", "163545.151000", "163545.154000", "163545.169000", "163545.172000", "163545.175000", "163545.178000", "163545.181000", "163545.184000", "163545.187000", "163545.190000", "163545.193000", "163545.196000", "163545.199000", "163545.202000", "163545.205000", "163545.208000", "163545.211000", "163545.214000", "163545.216000", "163545.220000", "163545.234000", "163545.237000", "163545.240000", "163545.243000", "163545.246000", "163545.249000", "163545.252000", "163605.088000", "163605.091000", "163605.094000", "163605.097000", "163605.100000", "163605.103000", "163605.112000", "163605.115000", "163605.118000", "163605.121000", "163605.124000", "163605.127000", "163605.130000", "163605.139000", "163605.141000", "163605.144000", "163605.147000", "163605.150000", "163605.153000", "163605.156000", "163605.159000", "163625.088000", "163625.091000", "163625.094000", "163625.097000", "163625.100000", "163625.103000", "163625.105000", "163625.108000", "163625.111000", "163625.114000", "163625.117000", "163625.120000", "163625.123000", "163625.127000", "163625.130000", "163625.133000", "163625.136000", "163625.139000", "163625.142000", "163625.145000", "163645.088000", "163645.091000", "163645.094000", "163645.097000", "163645.100000", "163645.103000", "163645.106000", "163645.109000", "163645.112000", "163645.114000", "163645.117000", "163645.120000", "163645.123000", "163645.127000", "163645.130000", "163645.132000", "163645.136000", "163645.139000", "163645.141000", "163645.144000", "163725.089000", "163725.092000", "163725.095000", "163725.098000", "163725.101000", "163725.104000", "163725.107000", "163725.110000", "163725.113000", "163725.116000", "163725.119000", "163725.122000", "163725.125000", "163725.128000", "163725.132000", "163725.138000", "163725.141000", "163725.144000", "163725.147000", "163725.150000", "163725.153000", "163725.156000", "163725.159000", "163725.162000", "163725.165000", "163725.168000", "163725.171000", "163725.174000", "163725.178000", "163725.189000", "163725.192000", "163741.285000", "163741.289000", "163741.292000", "163741.295000", "163741.298000", "163741.301000", "163741.304000", "163741.307000", "163741.310000", "163741.313000", "163741.316000"],
      "InstanceNumber": [1, 2, 3, 4, 5, 6, 7, 8, 9, 10, 11, 12, 13, 14, 15, 16, 17, 18, 19, 20, 21, 22, 23, 24, 25, 26, 27, 28, 29, 30, 31, 32, 33, 34, 35, 36, 37, 38, 39, 40, 41, 42, 43, 44, 45, 46, 47, 48, 49, 50, 51, 52, 53, 54, 55, 56, 57, 58, 59, 60, 61, 62, 63, 64, 65, 66, 67, 68, 69, 70, 71, 72, 73, 74, 75, 76, 77, 78, 79, 80, 81, 82, 83, 84, 85, 86, 87, 88, 89, 90, 91, 92, 93, 94, 95, 96, 97, 98, 99, 100, 101, 102, 103, 104, 105, 106, 107, 108, 109, 110, 111, 112, 113, 114, 115, 116, 117, 118, 119, 120, 121, 122, 123, 124, 125, 126, 127, 128, 129, 130, 131, 132, 133, 134, 135, 136, 137, 138, 139],
      "LargestImagePixelValue": [43424, 42892, 41547, 41238, 41576, 41613, 40772, 41913, 41339, 41022, 41941, 40766, 41386, 41552, 41502, 40785, 41601, 42070, 40981, 41579, 41303, 40817, 41789, 41470, 41734, 42704, 42080, 42475, 42311, 42504, 42876, 42678, 42488, 43043, 42729, 42732, 42907, 42845, 42990, 43230, 42941, 42888, 42725, 43015, 43210, 42932, 42256, 42913, 42341, 42976, 43010, 42842, 43003, 43228, 42606, 42867, 42517, 42023, 42475, 41796, 42068, 41347, 41474, 41683, 41896, 41999, 40619, 40865, 41270, 40384, 41020, 40914, 40881, 41383, 41741, 40736, 40651, 41926, 41073, 41094, 40807, 40923, 42093, 40857, 40448, 40859, 40181, 40613, 40553, 40261, 40468, 41032, 40604, 40867, 40628, 40602, 40588, 40468, 40750, 41046, 40510, 40309, 40813, 40469, 41083, 40931, 40833, 40747, 40763, 40557, 40553, 41324, 40600, 40681, 41119, 40696, 41237, 40796, 41076, 40832, 40876, 41091, 41179, 40786, 40685, 41137, 40793, 41779, 41178, 40675, 41207, 40599, 40677, 40703, 40667, 42261, 40898, 40281, 40529],
      "WindowCenter": [10319.0, 10294.0, 10273.0, 10246.0, 10235.0, 10225.0, 10209.0, 10219.0, 10233.0, 10234.0, 10238.0, 10235.0, 10231.0, 10229.0, 10231.0, 10220.0, 10230.0, 10255.0, 10239.0, 10230.0, 10221.0, 10223.0, 10220.0, 10224.0, 10223.0, 10235.0, 10237.0, 10221.0, 10229.0, 10232.0, 10224.0, 10223.0, 10222.0, 10230.0, 10246.0, 10239.0, 10238.0, 10248.0, 10239.0, 10255.0, 10256.0, 10256.0, 10251.0, 10241.0, 10237.0, 10247.0, 10226.0, 10248.0, 10256.0, 10252.0, 10245.0, 10219.0, 10204.0, 10205.0, 10196.0, 10206.0, 10235.0, 10222.0, 10219.0, 10210.0, 10192.0, 10195.0, 10193.0, 10201.0, 10209.0, 10199.0, 10191.0, 10197.0, 10223.0, 10214.0, 10218.0, 10217.0, 10200.0, 10205.0, 10231.0, 10224.0, 10230.0, 10244.0, 10223.0, 10223.0, 10226.0, 10217.0, 10242.0, 10222.0, 10218.0, 10221.0, 10214.0, 10231.0, 10223.0, 10206.0, 10204.0, 10200.0, 10201.0, 10219.0, 10222.0, 10244.0, 10238.0, 10220.0, 10221.0, 10200.0, 10201.0, 10211.0, 10210.0, 10213.0, 10219.0, 10218.0, 10225.0, 10213.0, 10219.0, 10218.0, 10217.0, 10232.0, 10223.0, 10227.0, 10228.0, 10219.0, 10226.0, 10229.0, 10237.0, 10235.0, 10232.0, 10229.0, 10231.0, 10228.0, 10230.0, 10225.0, 10226.0, 10225.0, 10208.0, 10200.0, 10190.0, 10179.0, 10185.0, 10185.0, 10195.0, 10228.0, 10201.0, 10192.0, 10208.0],
      "WindowWidth": [21878.0, 21809.0, 21756.0, 21686.0, 21658.0, 21634.0, 21598.0, 21615.0, 21650.0, 21651.0, 21657.0, 21656.0, 21642.0, 21639.0, 21645.0, 21624.0, 21640.0, 21699.0, 21670.0, 21640.0, 21619.0, 21629.0, 21618.0, 21634.0, 21631.0, 21654.0, 21659.0, 21620.0, 21642.0, 21642.0, 21624.0, 21623.0, 21617.0, 21635.0, 21673.0, 21656.0, 21654.0, 21680.0, 21654.0, 21692.0, 21693.0, 21694.0, 21683.0, 21662.0, 21647.0, 21673.0, 21628.0, 21673.0, 21700.0, 21682.0, 21670.0, 21612.0, 21571.0, 21580.0, 21560.0, 21582.0, 21650.0, 21621.0, 21613.0, 21591.0, 21549.0, 21561.0, 21553.0, 21571.0, 21595.0, 21565.0, 21556.0, 21567.0, 21627.0, 21609.0, 21613.0, 21612.0, 21574.0, 21583.0, 21647.0, 21634.0, 21646.0, 21675.0, 21631.0, 21634.0, 21653.0, 21628.0, 21677.0, 21628.0, 21622.0, 21624.0, 21608.0, 21646.0, 21629.0, 21590.0, 21586.0, 21571.0, 21578.0, 21623.0, 21632.0, 21687.0, 21664.0, 21628.0, 21626.0, 21573.0, 21576.0, 21601.0, 21599.0, 21611.0, 21618.0, 21616.0, 21630.0, 21606.0, 21616.0, 21612.0, 21612.0, 21646.0, 21639.0, 21639.0, 21642.0, 21621.0, 21636.0, 21648.0, 21666.0, 21658.0, 21647.0, 21645.0, 21641.0, 21641.0, 21646.0, 21626.0, 21638.0, 21624.0, 21588.0, 21572.0, 21545.0, 21531.0, 21544.0, 21543.0, 21566.0, 21657.0, 21596.0, 21573.0, 21609.0]
    },
    "slices": {}
  }
}