{
  "AcquisitionMatrixPE": 104,
  "AcquisitionNumber": 1,
  "AcquisitionTime": "16:04:45.430000",
  "BandwidthPerPixelPhaseEncode": 17.17,
  "BaseResolution": 104,
  "BodyPartExamined": "BRAIN",
  "CoilString": "HC1-7;NC1_2",
  "ConsistencyInfo": "N4_VE11C_LATEST_20160120",
  "ConversionSoftware": "dcm2niix",
  "ConversionSoftwareVersion": "v1.0.20190720  (JP2:OpenJPEG) GCC7.3.0",
  "DerivedVendorReportedEchoSpacing": 0.000560011,
  "DeviceSerialNumber": "167006",
  "DwellTime": 2.1e-06,
  "EchoTime": 0.037,
  "EchoTrainLength": 104,
  "EffectiveEchoSpacing": 0.000560011,
  "FlipAngle": 52,
  "ImageComments": "Unaliased_MB4_PE3_LB",
  "ImageOrientationPatientDICOM": [0.998835, 0.0299936, 0.0378137, -0.0174347, 0.954781, -0.296797],
  "ImageType": [
    "ORIGINAL",
    "PRIMARY",
    "M",
    "MB",
    "ND",
    "MOSAIC"
],
  "ImagingFrequency": 123.26,
  "InPlanePhaseEncodingDirectionDICOM": "COL",
  "InstitutionAddress": "Chemin_Queen-Mary_4565_Montreal_District_CA_H3W_1W5",
  "InstitutionName": "IUGM",
  "InstitutionalDepartmentName": "Department",
  "MRAcquisitionType": "2D",
  "MagneticFieldStrength": 3,
  "Manufacturer": "Siemens",
  "ManufacturersModelName": "Prisma_fit",
  "Modality": "MR",
  "MultibandAccelerationFactor": 4,
  "PartialFourier": 1,
  "PatientPosition": "HFS",
  "PercentPhaseFOV": 100,
  "PhaseEncodingDirection": "j",
  "PhaseEncodingSteps": 104,
  "PhaseResolution": 1,
  "PixelBandwidth": 2290,
  "ProcedureStepDescription": "hcptrt_generic",
  "ProtocolName": "func_task-social_run-1",
  "PulseSequenceDetails": "%CustomerSeq%_cmrr_mbep2d_bold",
  "ReceiveCoilActiveElements": "HC1-7;NC1,2",
  "ReceiveCoilName": "HeadNeck_64",
  "ReconMatrixPE": 104,
  "RepetitionTime": 1.49,
  "SAR": 0.0380861,
  "ScanOptions": "FS",
  "ScanningSequence": "EP",
  "SequenceName": "epfid2d1_104",
  "SequenceVariant": "SK_SS",
  "SeriesDescription": "func_task-social_run-1",
  "SeriesNumber": 13,
  "ShimSetting": [641, -7203, -8807, 738, 120, -17, -11, -4],
  "SliceThickness": 2,
  "SliceTiming": [0, 0.7825, 0.0975, 0.8825, 0.195, 0.98, 0.2925, 1.0775, 0.3925, 1.175, 0.49, 1.2725, 0.5875, 1.3725, 0.685, 0, 0.7825, 0.0975, 0.8825, 0.195, 0.98, 0.2925, 1.0775, 0.3925, 1.175, 0.49, 1.2725, 0.5875, 1.3725, 0.685, 0, 0.7825, 0.0975, 0.8825, 0.195, 0.98, 0.2925, 1.0775, 0.3925, 1.175, 0.49, 1.2725, 0.5875, 1.3725, 0.685, 0, 0.7825, 0.0975, 0.8825, 0.195, 0.98, 0.2925, 1.0775, 0.3925, 1.175, 0.49, 1.2725, 0.5875, 1.3725, 0.685],
  "SoftwareVersions": "syngo_MR_E11",
  "SpacingBetweenSlices": 2,
  "StationName": "MRC35049",
  "TaskName": "social",
  "TotalReadoutTime": 0.0576811,
  "TxRefAmp": 250.242,
  "WipMemBlock": "81e00885-2381-4fbf-a423-80716c1699aa||Sequence: R016 ve11c/master r/e634e98; Dec 19 2017 11:00:25 by eja",
  "dcmmeta_affine": [
    [-1.9976691007614136, -0.03486938402056694, 0.09001171588897705, 107.59256744384766],
    [-0.05998726561665535, 1.9095629453659058, -0.5915831923484802, -64.8157730102539],
    [0.07562745362520218, 0.5935935378074646, 1.9083833694458008, -63.24641799926758],
    [0.0, 0.0, 0.0, 1.0]
],
  "dcmmeta_reorient_transform": [
    [0.0, -1.0, 0.0, 103.0],
    [1.0, 0.0, 0.0, 0.0],
    [0.0, 0.0, 1.0, 0.0],
    [0.0, 0.0, 0.0, 1.0]
],
  "dcmmeta_shape": [104, 104, 60, 139],
  "dcmmeta_slice_dim": 2,
  "dcmmeta_version": 0.6,
  "global": {
    "const": {
      "AcquisitionMatrix": [104, 0, 0, 104],
      "AngioFlag": "N",
      "BitsAllocated": 16,
      "BitsStored": 16,
      "BodyPartExamined": "BRAIN",
      "Columns": 832,
      "EchoNumbers": 1,
      "EchoTime": 37.0,
      "EchoTrainLength": 104,
      "FlipAngle": 52.0,
      "HighBit": 15,
      "ImageOrientationPatient": [0.99883457296477, 0.02999363281107, 0.03781372556477, -0.017434692528, 0.95478149537841, -0.2967967782497],
      "ImagePositionPatient": [-818.46013462643, -848.78550713277, 186.43338202688],
      "ImageType": [
        "ORIGINAL",
        "PRIMARY",
        "M",
        "MB",
        "ND",
        "MOSAIC"
],
      "ImagedNucleus": "1H",
      "ImagingFrequency": 123.259573,
      "InPlanePhaseEncodingDirection": "COL",
      "MRAcquisitionType": "2D",
      "MagneticFieldStrength": 3.0,
      "Manufacturer": "SIEMENS",
      "ManufacturerModelName": "Prisma_fit",
      "Modality": "MR",
      "NumberOfAverages": 1.0,
      "NumberOfPhaseEncodingSteps": 104,
      "PercentPhaseFieldOfView": 100.0,
      "PercentSampling": 100.0,
      "PerformedProcedureStepStartTime": "153820.893000",
      "PhotometricInterpretation": "MONOCHROME2",
      "PixelBandwidth": 2290.0,
      "PixelRepresentation": 0,
      "PixelSpacing": [2.0, 2.0],
      "ProtocolName": "func_task-social_run-1",
      "RepetitionTime": 1490.0,
      "Rows": 832,
      "SAR": 0.03808609206028,
      "SamplesPerPixel": 1,
      "ScanOptions": "FS",
      "ScanningSequence": "EP",
      "SequenceName": "epfid2d1_104",
      "SequenceVariant": [
        "SK",
        "SS"
],
      "SeriesDescription": "func_task-social_run-1",
      "SeriesNumber": 13,
      "SeriesTime": "160605.388000",
      "SliceLocation": -36.334947283406,
      "SliceThickness": 2.0,
      "SmallestImagePixelValue": 0,
      "SoftwareVersions": "syngo MR E11",
      "SpacingBetweenSlices": 1.9999999600922,
      "SpecificCharacterSet": "ISO_IR 100",
      "StudyID": "1",
      "StudyTime": "153820.829000",
      "TransmitCoilName": "Body",
      "VariableFlipAngleFlag": "N",
      "WindowCenterWidthExplanation": "Algo1",
      "dBdt": 0.0},
    "slices": {}
  },
  "time": {
    "samples": {
      "AcquisitionNumber": [1, 2, 3, 4, 5, 6, 7, 8, 9, 10, 11, 12, 13, 14, 15, 16, 17, 18, 19, 20, 21, 22, 23, 24, 25, 26, 27, 28, 29, 30, 31, 32, 33, 34, 35, 36, 37, 38, 39, 40, 41, 42, 43, 44, 45, 46, 47, 48, 49, 50, 51, 52, 53, 54, 55, 56, 57, 58, 59, 60, 61, 62, 63, 64, 65, 66, 67, 68, 69, 70, 71, 72, 73, 74, 75, 76, 77, 78, 79, 80, 81, 82, 83, 84, 85, 86, 87, 88, 89, 90, 91, 92, 93, 94, 95, 96, 97, 98, 99, 100, 101, 102, 103, 104, 105, 106, 107, 108, 109, 110, 111, 112, 113, 114, 115, 116, 117, 118, 119, 120, 121, 122, 123, 124, 125, 126, 127, 128, 129, 130, 131, 132, 133, 134, 135, 136, 137, 138, 139],
      "AcquisitionTime": ["160445.430000", "160446.920000", "160448.410000", "160449.900000", "160451.390000", "160452.880000", "160454.370000", "160455.860000", "160457.350000", "160458.840000", "160500.330000", "160501.820000", "160503.310000", "160504.800000", "160506.290000", "160507.780000", "160509.270000", "160510.760000", "160512.250000", "160513.740000", "160515.230000", "160516.720000", "160518.210000", "160519.700000", "160521.190000", "160522.680000", "160524.170000", "160525.660000", "160527.150000", "160528.640000", "160530.130000", "160531.620000", "160533.110000", "160534.600000", "160536.090000", "160537.580000", "160539.070000", "160540.560000", "160542.050000", "160543.540000", "160545.030000", "160546.520000", "160548.010000", "160549.500000", "160550.990000", "160552.480000", "160553.970000", "160555.460000", "160556.950000", "160558.440000", "160559.930000", "160601.420000", "160602.910000", "160604.400000", "160605.890000", "160607.380000", "160608.870000", "160610.360000", "160611.850000", "160613.340000", "160614.830000", "160616.320000", "160617.810000", "160619.300000", "160620.790000", "160622.280000", "160623.770000", "160625.260000", "160626.750000", "160628.240000", "160629.730000", "160631.220000", "160632.710000", "160634.200000", "160635.690000", "160637.180000", "160638.670000", "160640.160000", "160641.650000", "160643.140000", "160644.630000", "160646.120000", "160647.610000", "160649.100000", "160650.590000", "160652.080000", "160653.570000", "160655.060000", "160656.550000", "160658.040000", "160659.530000", "160701.020000", "160702.510000", "160704.000000", "160705.490000", "160706.980000", "160708.470000", "160709.960000", "160711.450000", "160712.940000", "160714.430000", "160715.920000", "160717.410000", "160718.900000", "160720.390000", "160721.880000", "160723.370000", "160724.860000", "160726.350000", "160727.840000", "160729.330000", "160730.820000", "160732.310000", "160733.800000", "160735.290000", "160736.780000", "160738.270000", "160739.760000", "160741.250000", "160742.740000", "160744.230000", "160745.720000", "160747.210000", "160748.700000", "160750.190000", "160751.680000", "160753.170000", "160754.660000", "160756.150000", "160757.640000", "160759.130000", "160800.620000", "160802.110000", "160803.600000", "160805.090000", "160806.580000", "160808.070000", "160809.560000", "160811.050000"],
      "ContentTime": ["160605.390000", "160605.394000", "160605.397000", "160605.400000", "160605.410000", "160605.413000", "160605.416000", "160605.419000", "160605.422000", "160605.425000", "160605.427000", "160605.431000", "160605.433000", "160605.446000", "160605.448000", "160605.451000", "160605.454000", "160605.457000", "160605.460000", "160605.463000", "160605.466000", "160605.478000", "160605.481000", "160605.484000", "160605.486000", "160625.360000", "160625.363000", "160625.366000", "160625.369000", "160625.372000", "160625.375000", "160625.378000", "160625.381000", "160625.384000", "160625.387000", "160625.390000", "160625.393000", "160625.396000", "160625.413000", "160625.416000", "160625.418000", "160625.421000", "160625.431000", "160625.434000", "160625.437000", "160645.360000", "160645.363000", "160645.366000", "160645.369000", "160645.372000", "160645.375000", "160645.378000", "160645.381000", "160645.384000", "160645.387000", "160645.389000", "160645.392000", "160645.395000", "160645.407000", "160645.410000", "160645.413000", "160645.416000", "160645.419000", "160645.426000", "160645.429000", "160705.361000", "160705.364000", "160705.367000", "160705.370000", "160705.373000", "160705.377000", "160705.380000", "160705.383000", "160705.386000", "160705.389000", "160705.392000", "160705.395000", "160705.399000", "160705.402000", "160705.404000", "160705.407000", "160705.410000", "160705.413000", "160705.416000", "160705.419000", "160725.360000", "160725.363000", "160725.366000", "160725.369000", "160725.372000", "160725.375000", "160725.378000", "160725.381000", "160725.384000", "160725.387000", "160725.390000", "160725.393000", "160725.396000", "160725.399000", "160725.402000", "160725.405000", "160725.407000", "160725.410000", "160725.413000", "160725.416000", "160725.419000", "160805.360000", "160805.363000", "160805.366000", "160805.369000", "160805.372000", "160805.375000", "160805.378000", "160805.381000", "160805.384000", "160805.386000", "160805.389000", "160805.392000", "160805.395000", "160805.398000", "160805.401000", "160805.404000", "160805.407000", "160805.410000", "160805.413000", "160805.416000", "160805.419000", "160805.422000", "160805.425000", "160805.428000", "160805.431000", "160805.434000", "160805.436000", "160813.188000", "160813.191000", "160813.194000", "160813.197000", "160813.200000", "160813.203000"],
      "InstanceCreationTime": ["160605.390000", "160605.394000", "160605.397000", "160605.400000", "160605.410000", "160605.413000", "160605.416000", "160605.419000", "160605.422000", "160605.425000", "160605.427000", "160605.431000", "160605.433000", "160605.446000", "160605.448000", "160605.451000", "160605.454000", "160605.457000", "160605.460000", "160605.463000", "160605.466000", "160605.478000", "160605.481000", "160605.484000", "160605.486000", "160625.360000", "160625.363000", "160625.366000", "160625.369000", "160625.372000", "160625.375000", "160625.378000", "160625.381000", "160625.384000", "160625.387000", "160625.390000", "160625.393000", "160625.396000", "160625.413000", "160625.416000", "160625.418000", "160625.421000", "160625.431000", "160625.434000", "160625.437000", "160645.360000", "160645.363000", "160645.366000", "160645.369000", "160645.372000", "160645.375000", "160645.378000", "160645.381000", "160645.384000", "160645.387000", "160645.389000", "160645.392000", "160645.395000", "160645.407000", "160645.410000", "160645.413000", "160645.416000", "160645.419000", "160645.426000", "160645.429000", "160705.361000", "160705.364000", "160705.367000", "160705.370000", "160705.373000", "160705.377000", "160705.380000", "160705.383000", "160705.386000", "160705.389000", "160705.392000", "160705.395000", "160705.399000", "160705.402000", "160705.404000", "160705.407000", "160705.410000", "160705.413000", "160705.416000", "160705.419000", "160725.360000", "160725.363000", "160725.366000", "160725.369000", "160725.372000", "160725.375000", "160725.378000", "160725.381000", "160725.384000", "160725.387000", "160725.390000", "160725.393000", "160725.396000", "160725.399000", "160725.402000", "160725.405000", "160725.407000", "160725.410000", "160725.413000", "160725.416000", "160725.419000", "160805.360000", "160805.363000", "160805.366000", "160805.369000", "160805.372000", "160805.375000", "160805.378000", "160805.381000", "160805.384000", "160805.386000", "160805.389000", "160805.392000", "160805.395000", "160805.398000", "160805.401000", "160805.404000", "160805.407000", "160805.410000", "160805.413000", "160805.416000", "160805.419000", "160805.422000", "160805.425000", "160805.428000", "160805.431000", "160805.434000", "160805.436000", "160813.188000", "160813.191000", "160813.194000", "160813.197000", "160813.200000", "160813.203000"],
      "InstanceNumber": [1, 2, 3, 4, 5, 6, 7, 8, 9, 10, 11, 12, 13, 14, 15, 16, 17, 18, 19, 20, 21, 22, 23, 24, 25, 26, 27, 28, 29, 30, 31, 32, 33, 34, 35, 36, 37, 38, 39, 40, 41, 42, 43, 44, 45, 46, 47, 48, 49, 50, 51, 52, 53, 54, 55, 56, 57, 58, 59, 60, 61, 62, 63, 64, 65, 66, 67, 68, 69, 70, 71, 72, 73, 74, 75, 76, 77, 78, 79, 80, 81, 82, 83, 84, 85, 86, 87, 88, 89, 90, 91, 92, 93, 94, 95, 96, 97, 98, 99, 100, 101, 102, 103, 104, 105, 106, 107, 108, 109, 110, 111, 112, 113, 114, 115, 116, 117, 118, 119, 120, 121, 122, 123, 124, 125, 126, 127, 128, 129, 130, 131, 132, 133, 134, 135, 136, 137, 138, 139],
      "LargestImagePixelValue": [42222, 41234, 41151, 40520, 40214, 40181, 40048, 39854, 39760, 40357, 40141, 40551, 39885, 39784, 40298, 40290, 40628, 40494, 39762, 40537, 40697, 40360, 40536, 40434, 40942, 40524, 40581, 40638, 40297, 40782, 40782, 40136, 39999, 41005, 41199, 40897, 41486, 41450, 41259, 40708, 40603, 40381, 39667, 39970, 39872, 39798, 40059, 39582, 40021, 40079, 39597, 39683, 39070, 39468, 39170, 40280, 39668, 39441, 40114, 40393, 39399, 39652, 39694, 39374, 39237, 39321, 39414, 39152, 39416, 39097, 40084, 39618, 39818, 39712, 39992, 39912, 39567, 40298, 39747, 39839, 40198, 40415, 40707, 41106, 40430, 40903, 40757, 41465, 40328, 40399, 40177, 39919, 40293, 39929, 40743, 40714, 40880, 40983, 41149, 41116, 41242, 41676, 40549, 41348, 41471, 40552, 40887, 40817, 41102, 41433, 39676, 41639, 42156, 41207, 41687, 41357, 41208, 40990, 41015, 40902, 41194, 40717, 41444, 40752, 41157, 40541, 40719, 40470, 39981, 41186, 41343, 40853, 41661, 41019, 41421, 40876, 41076, 40455, 39872],
      "WindowCenter": [10208.0, 10153.0, 10117.0, 10124.0, 10136.0, 10154.0, 10149.0, 10121.0, 10108.0, 10101.0, 10108.0, 10125.0, 10138.0, 10131.0, 10137.0, 10143.0, 10143.0, 10152.0, 10149.0, 10145.0, 10158.0, 10155.0, 10161.0, 10149.0, 10158.0, 10134.0, 10125.0, 10122.0, 10116.0, 10121.0, 10129.0, 10119.0, 10125.0, 10144.0, 10146.0, 10155.0, 10159.0, 10173.0, 10172.0, 10168.0, 10169.0, 10181.0, 10156.0, 10153.0, 10147.0, 10122.0, 10128.0, 10112.0, 10123.0, 10138.0, 10141.0, 10140.0, 10118.0, 10112.0, 10135.0, 10167.0, 10172.0, 10152.0, 10153.0, 10141.0, 10111.0, 10099.0, 10114.0, 10124.0, 10131.0, 10131.0, 10126.0, 10119.0, 10128.0, 10133.0, 10154.0, 10158.0, 10151.0, 10152.0, 10160.0, 10156.0, 10146.0, 10145.0, 10148.0, 10148.0, 10144.0, 10140.0, 10140.0, 10156.0, 10162.0, 10165.0, 10168.0, 10181.0, 10141.0, 10159.0, 10178.0, 10182.0, 10154.0, 10125.0, 10126.0, 10127.0, 10133.0, 10144.0, 10169.0, 10156.0, 10163.0, 10185.0, 10182.0, 10172.0, 10167.0, 10136.0, 10131.0, 10129.0, 10117.0, 10133.0, 10098.0, 10144.0, 10169.0, 10187.0, 10197.0, 10184.0, 10171.0, 10136.0, 10133.0, 10141.0, 10150.0, 10162.0, 10166.0, 10167.0, 10180.0, 10172.0, 10162.0, 10146.0, 10126.0, 10140.0, 10150.0, 10159.0, 10167.0, 10165.0, 10170.0, 10167.0, 10160.0, 10147.0, 10149.0],
      "WindowWidth": [21642.0, 21503.0, 21391.0, 21409.0, 21432.0, 21470.0, 21459.0, 21393.0, 21369.0, 21349.0, 21363.0, 21403.0, 21435.0, 21415.0, 21429.0, 21440.0, 21443.0, 21466.0, 21465.0, 21451.0, 21477.0, 21476.0, 21483.0, 21456.0, 21472.0, 21418.0, 21399.0, 21389.0, 21376.0, 21385.0, 21405.0, 21390.0, 21401.0, 21449.0, 21445.0, 21467.0, 21469.0, 21512.0, 21506.0, 21501.0, 21503.0, 21530.0, 21470.0, 21465.0, 21458.0, 21398.0, 21412.0, 21381.0, 21398.0, 21436.0, 21446.0, 21444.0, 21400.0, 21376.0, 21433.0, 21504.0, 21516.0, 21473.0, 21467.0, 21440.0, 21378.0, 21349.0, 21383.0, 21407.0, 21419.0, 21421.0, 21416.0, 21400.0, 21414.0, 21429.0, 21472.0, 21489.0, 21473.0, 21479.0, 21496.0, 21477.0, 21452.0, 21448.0, 21454.0, 21459.0, 21446.0, 21437.0, 21438.0, 21472.0, 21492.0, 21489.0, 21499.0, 21523.0, 21436.0, 21477.0, 21521.0, 21534.0, 21467.0, 21399.0, 21400.0, 21405.0, 21417.0, 21443.0, 21503.0, 21472.0, 21489.0, 21534.0, 21543.0, 21504.0, 21503.0, 21435.0, 21424.0, 21413.0, 21380.0, 21421.0, 21347.0, 21437.0, 21490.0, 21541.0, 21562.0, 21536.0, 21509.0, 21428.0, 21416.0, 21439.0, 21458.0, 21488.0, 21492.0, 21509.0, 21539.0, 21525.0, 21502.0, 21463.0, 21415.0, 21435.0, 21462.0, 21485.0, 21497.0, 21501.0, 21500.0, 21498.0, 21491.0, 21469.0, 21477.0]
    },
    "slices": {}
  }
}