{
  "AcquisitionMatrixPE": 104,
  "AcquisitionNumber": 1,
  "AcquisitionTime": "16:12:49.277500",
  "BandwidthPerPixelPhaseEncode": 17.17,
  "BaseResolution": 104,
  "BodyPartExamined": "BRAIN",
  "CoilString": "HC1-7;NC1_2",
  "ConsistencyInfo": "N4_VE11C_LATEST_20160120",
  "ConversionSoftware": "dcm2niix",
  "ConversionSoftwareVersion": "v1.0.20190720  (JP2:OpenJPEG) GCC7.3.0",
  "DerivedVendorReportedEchoSpacing": 0.000560011,
  "DeviceSerialNumber": "167006",
  "DwellTime": 2.1e-06,
  "EchoTime": 0.037,
  "EchoTrainLength": 104,
  "EffectiveEchoSpacing": 0.000560011,
  "FlipAngle": 52,
  "ImageComments": "Unaliased_MB4_PE3_LB",
  "ImageOrientationPatientDICOM": [0.998802, 0.0301874, 0.038526, -0.0174341, 0.954945, -0.29627],
  "ImageType": [
    "ORIGINAL",
    "PRIMARY",
    "M",
    "MB",
    "ND",
    "MOSAIC"
],
  "ImagingFrequency": 123.26,
  "InPlanePhaseEncodingDirectionDICOM": "COL",
  "InstitutionAddress": "Chemin_Queen-Mary_4565_Montreal_District_CA_H3W_1W5",
  "InstitutionName": "IUGM",
  "InstitutionalDepartmentName": "Department",
  "MRAcquisitionType": "2D",
  "MagneticFieldStrength": 3,
  "Manufacturer": "Siemens",
  "ManufacturersModelName": "Prisma_fit",
  "Modality": "MR",
  "MultibandAccelerationFactor": 4,
  "PartialFourier": 1,
  "PatientPosition": "HFS",
  "PercentPhaseFOV": 100,
  "PhaseEncodingDirection": "j",
  "PhaseEncodingSteps": 104,
  "PhaseResolution": 1,
  "PixelBandwidth": 2290,
  "ProcedureStepDescription": "hcptrt_generic",
  "ProtocolName": "func_task-gambling_run-1",
  "PulseSequenceDetails": "%CustomerSeq%_cmrr_mbep2d_bold",
  "ReceiveCoilActiveElements": "HC1-7;NC1,2",
  "ReceiveCoilName": "HeadNeck_64",
  "ReconMatrixPE": 104,
  "RepetitionTime": 1.49,
  "SAR": 0.0380467,
  "ScanOptions": "FS",
  "ScanningSequence": "EP",
  "SequenceName": "epfid2d1_104",
  "SequenceVariant": "SK_SS",
  "SeriesDescription": "func_task-gambling_run-1",
  "SeriesNumber": 17,
  "ShimSetting": [641, -7203, -8807, 738, 120, -16, -11, -4],
  "SliceThickness": 2,
  "SliceTiming": [0, 0.785, 0.0975, 0.8825, 0.1975, 0.98, 0.295, 1.0775, 0.3925, 1.175, 0.49, 1.275, 0.5875, 1.3725, 0.685, 0, 0.785, 0.0975, 0.8825, 0.1975, 0.98, 0.295, 1.0775, 0.3925, 1.175, 0.49, 1.275, 0.5875, 1.3725, 0.685, 0, 0.785, 0.0975, 0.8825, 0.1975, 0.98, 0.295, 1.0775, 0.3925, 1.175, 0.49, 1.275, 0.5875, 1.3725, 0.685, 0, 0.785, 0.0975, 0.8825, 0.1975, 0.98, 0.295, 1.0775, 0.3925, 1.175, 0.49, 1.275, 0.5875, 1.3725, 0.685],
  "SoftwareVersions": "syngo_MR_E11",
  "SpacingBetweenSlices": 2,
  "StationName": "MRC35049",
  "TaskName": "gambling",
  "TotalReadoutTime": 0.0576811,
  "TxRefAmp": 250.242,
  "WipMemBlock": "1cdf3f63-87f8-42be-8272-a32f8a841553||Sequence: R016 ve11c/master r/e634e98; Dec 19 2017 11:00:25 by eja",
  "dcmmeta_affine": [
    [-1.9976030588150024, -0.0348682776093483, 0.0914677307009697, 107.51250457763672],
    [-0.06037486717104912, 1.9098902940750122, -0.5904862284660339, -64.8449935913086],
    [0.0770520493388176, 0.5925396680831909, 1.9086538553237915, -63.27444839477539],
    [0.0, 0.0, 0.0, 1.0]
],
  "dcmmeta_reorient_transform": [
    [0.0, -1.0, 0.0, 103.0],
    [1.0, 0.0, 0.0, 0.0],
    [0.0, 0.0, 1.0, 0.0],
    [0.0, 0.0, 0.0, 1.0]
],
  "dcmmeta_shape": [104, 104, 60, 129],
  "dcmmeta_slice_dim": 2,
  "dcmmeta_version": 0.6,
  "global": {
    "const": {
      "AcquisitionMatrix": [104, 0, 0, 104],
      "AngioFlag": "N",
      "BitsAllocated": 16,
      "BitsStored": 16,
      "BodyPartExamined": "BRAIN",
      "Columns": 832,
      "EchoNumbers": 1,
      "EchoTime": 37.0,
      "EchoTrainLength": 104,
      "FlipAngle": 52.0,
      "HighBit": 15,
      "ImageOrientationPatient": [0.99880151396386, 0.03018743390688, 0.03852602416052, -0.0174341387316, 0.95494514437345, -0.2962698466673],
      "ImagePositionPatient": [-818.35652360012, -849.05022128219, 185.39464445953],
      "ImageType": [
        "ORIGINAL",
        "PRIMARY",
        "M",
        "MB",
        "ND",
        "MOSAIC"
],
      "ImagedNucleus": "1H",
      "ImagingFrequency": 123.259576,
      "InPlanePhaseEncodingDirection": "COL",
      "MRAcquisitionType": "2D",
      "MagneticFieldStrength": 3.0,
      "Manufacturer": "SIEMENS",
      "ManufacturerModelName": "Prisma_fit",
      "Modality": "MR",
      "NumberOfAverages": 1.0,
      "NumberOfPhaseEncodingSteps": 104,
      "PercentPhaseFieldOfView": 100.0,
      "PercentSampling": 100.0,
      "PerformedProcedureStepStartTime": "153820.893000",
      "PhotometricInterpretation": "MONOCHROME2",
      "PixelBandwidth": 2290.0,
      "PixelRepresentation": 0,
      "PixelSpacing": [2.0, 2.0],
      "ProtocolName": "func_task-gambling_run-1",
      "RepetitionTime": 1490.0,
      "Rows": 832,
      "SAR": 0.03804668187751,
      "SamplesPerPixel": 1,
      "ScanOptions": "FS",
      "ScanningSequence": "EP",
      "SequenceName": "epfid2d1_104",
      "SequenceVariant": [
        "SK",
        "SS"
],
      "SeriesDescription": "func_task-gambling_run-1",
      "SeriesNumber": 17,
      "SeriesTime": "161411.971000",
      "SliceLocation": -36.322509340335,
      "SliceThickness": 2.0,
      "SmallestImagePixelValue": 0,
      "SoftwareVersions": "syngo MR E11",
      "SpacingBetweenSlices": 1.9999999757467,
      "SpecificCharacterSet": "ISO_IR 100",
      "StudyID": "1",
      "StudyTime": "153820.829000",
      "TransmitCoilName": "Body",
      "VariableFlipAngleFlag": "N",
      "WindowCenterWidthExplanation": "Algo1",
      "dBdt": 0.0},
    "slices": {}
  },
  "time": {
    "samples": {
      "AcquisitionNumber": [1, 2, 3, 4, 5, 6, 7, 8, 9, 10, 11, 12, 13, 14, 15, 16, 17, 18, 19, 20, 21, 22, 23, 24, 25, 26, 27, 28, 29, 30, 31, 32, 33, 34, 35, 36, 37, 38, 39, 40, 41, 42, 43, 44, 45, 46, 47, 48, 49, 50, 51, 52, 53, 54, 55, 56, 57, 58, 59, 60, 61, 62, 63, 64, 65, 66, 67, 68, 69, 70, 71, 72, 73, 74, 75, 76, 77, 78, 79, 80, 81, 82, 83, 84, 85, 86, 87, 88, 89, 90, 91, 92, 93, 94, 95, 96, 97, 98, 99, 100, 101, 102, 103, 104, 105, 106, 107, 108, 109, 110, 111, 112, 113, 114, 115, 116, 117, 118, 119, 120, 121, 122, 123, 124, 125, 126, 127, 128, 129],
      "AcquisitionTime": ["161249.277500", "161250.767500", "161252.257500", "161253.747500", "161255.237500", "161256.727500", "161258.217500", "161259.707500", "161301.197500", "161302.687500", "161304.177500", "161305.667500", "161307.157500", "161308.647500", "161310.137500", "161311.627500", "161313.117500", "161314.607500", "161316.097500", "161317.587500", "161319.077500", "161320.567500", "161322.057500", "161323.547500", "161325.037500", "161326.527500", "161328.017500", "161329.507500", "161330.997500", "161332.487500", "161333.977500", "161335.467500", "161336.957500", "161338.447500", "161339.937500", "161341.427500", "161342.917500", "161344.407500", "161345.897500", "161347.387500", "161348.877500", "161350.367500", "161351.857500", "161353.347500", "161354.837500", "161356.327500", "161357.817500", "161359.307500", "161400.797500", "161402.287500", "161403.777500", "161405.267500", "161406.757500", "161408.247500", "161409.737500", "161411.227500", "161412.717500", "161414.207500", "161415.697500", "161417.187500", "161418.677500", "161420.167500", "161421.657500", "161423.147500", "161424.637500", "161426.127500", "161427.617500", "161429.107500", "161430.597500", "161432.087500", "161433.577500", "161435.067500", "161436.557500", "161438.047500", "161439.537500", "161441.027500", "161442.517500", "161444.007500", "161445.497500", "161446.987500", "161448.477500", "161449.967500", "161451.457500", "161452.947500", "161454.437500", "161455.927500", "161457.417500", "161458.907500", "161500.397500", "161501.887500", "161503.377500", "161504.867500", "161506.357500", "161507.847500", "161509.337500", "161510.827500", "161512.317500", "161513.807500", "161515.297500", "161516.787500", "161518.277500", "161519.767500", "161521.257500", "161522.747500", "161524.237500", "161525.727500", "161527.217500", "161528.707500", "161530.197500", "161531.687500", "161533.177500", "161534.667500", "161536.157500", "161537.647500", "161539.137500", "161540.627500", "161542.117500", "161543.607500", "161545.097500", "161546.587500", "161548.077500", "161549.567500", "161551.057500", "161552.547500", "161554.037500", "161555.527500", "161557.017500", "161558.507500", "161559.997500"],
      "ContentTime": ["161411.974000", "161411.978000", "161411.981000", "161411.986000", "161411.989000", "161411.992000", "161411.995000", "161411.998000", "161412.002000", "161412.005000", "161412.008000", "161412.011000", "161412.014000", "161412.017000", "161412.020000", "161412.023000", "161412.025000", "161412.028000", "161412.031000", "161412.034000", "161412.037000", "161412.040000", "161412.043000", "161412.046000", "161412.049000", "161412.052000", "161412.055000", "161431.937000", "161431.940000", "161431.943000", "161431.946000", "161431.955000", "161431.958000", "161431.961000", "161431.964000", "161431.967000", "161431.970000", "161431.972000", "161431.975000", "161431.978000", "161431.981000", "161431.984000", "161431.987000", "161431.990000", "161431.993000", "161431.996000", "161432.000000", "161451.937000", "161451.940000", "161451.955000", "161451.958000", "161451.961000", "161451.964000", "161451.967000", "161451.969000", "161451.972000", "161451.975000", "161451.978000", "161451.981000", "161451.984000", "161451.987000", "161451.990000", "161451.993000", "161451.996000", "161451.998000", "161452.002000", "161452.005000", "161511.937000", "161511.940000", "161511.943000", "161511.946000", "161511.949000", "161511.952000", "161511.955000", "161511.958000", "161511.961000", "161511.964000", "161511.967000", "161511.970000", "161511.973000", "161511.976000", "161511.979000", "161511.982000", "161511.984000", "161511.987000", "161511.990000", "161511.993000", "161531.938000", "161531.941000", "161531.944000", "161531.947000", "161531.950000", "161531.953000", "161531.956000", "161531.959000", "161531.962000", "161531.965000", "161531.968000", "161531.971000", "161531.973000", "161531.976000", "161531.979000", "161531.982000", "161531.985000", "161531.988000", "161531.991000", "161531.994000", "161531.997000", "161602.584000", "161602.587000", "161602.591000", "161602.594000", "161602.596000", "161602.599000", "161602.602000", "161602.605000", "161602.609000", "161602.612000", "161602.615000", "161602.618000", "161602.621000", "161602.624000", "161602.628000", "161602.631000", "161602.634000", "161602.637000", "161602.640000", "161602.643000", "161602.649000"],
      "InstanceCreationTime": ["161411.974000", "161411.978000", "161411.981000", "161411.986000", "161411.989000", "161411.992000", "161411.995000", "161411.998000", "161412.002000", "161412.005000", "161412.008000", "161412.011000", "161412.014000", "161412.017000", "161412.020000", "161412.023000", "161412.025000", "161412.028000", "161412.031000", "161412.034000", "161412.037000", "161412.040000", "161412.043000", "161412.046000", "161412.049000", "161412.052000", "161412.055000", "161431.937000", "161431.940000", "161431.943000", "161431.946000", "161431.955000", "161431.958000", "161431.961000", "161431.964000", "161431.967000", "161431.970000", "161431.972000", "161431.975000", "161431.978000", "161431.981000", "161431.984000", "161431.987000", "161431.990000", "161431.993000", "161431.996000", "161432.000000", "161451.937000", "161451.940000", "161451.955000", "161451.958000", "161451.961000", "161451.964000", "161451.967000", "161451.969000", "161451.972000", "161451.975000", "161451.978000", "161451.981000", "161451.984000", "161451.987000", "161451.990000", "161451.993000", "161451.996000", "161451.998000", "161452.002000", "161452.005000", "161511.937000", "161511.940000", "161511.943000", "161511.946000", "161511.949000", "161511.952000", "161511.955000", "161511.958000", "161511.961000", "161511.964000", "161511.967000", "161511.970000", "161511.973000", "161511.976000", "161511.979000", "161511.982000", "161511.984000", "161511.987000", "161511.990000", "161511.993000", "161531.938000", "161531.941000", "161531.944000", "161531.947000", "161531.950000", "161531.953000", "161531.956000", "161531.959000", "161531.962000", "161531.965000", "161531.968000", "161531.971000", "161531.973000", "161531.976000", "161531.979000", "161531.982000", "161531.985000", "161531.988000", "161531.991000", "161531.994000", "161531.997000", "161602.584000", "161602.587000", "161602.591000", "161602.594000", "161602.596000", "161602.599000", "161602.602000", "161602.605000", "161602.609000", "161602.612000", "161602.615000", "161602.618000", "161602.621000", "161602.624000", "161602.628000", "161602.631000", "161602.634000", "161602.637000", "161602.640000", "161602.643000", "161602.649000"],
      "InstanceNumber": [1, 2, 3, 4, 5, 6, 7, 8, 9, 10, 11, 12, 13, 14, 15, 16, 17, 18, 19, 20, 21, 22, 23, 24, 25, 26, 27, 28, 29, 30, 31, 32, 33, 34, 35, 36, 37, 38, 39, 40, 41, 42, 43, 44, 45, 46, 47, 48, 49, 50, 51, 52, 53, 54, 55, 56, 57, 58, 59, 60, 61, 62, 63, 64, 65, 66, 67, 68, 69, 70, 71, 72, 73, 74, 75, 76, 77, 78, 79, 80, 81, 82, 83, 84, 85, 86, 87, 88, 89, 90, 91, 92, 93, 94, 95, 96, 97, 98, 99, 100, 101, 102, 103, 104, 105, 106, 107, 108, 109, 110, 111, 112, 113, 114, 115, 116, 117, 118, 119, 120, 121, 122, 123, 124, 125, 126, 127, 128, 129],
      "LargestImagePixelValue": [42895, 41980, 40975, 40470, 39983, 40030, 39781, 39834, 40125, 39937, 39622, 39670, 39769, 39900, 39432, 39723, 39765, 39468, 39918, 39651, 39825, 39591, 39696, 39621, 40202, 39767, 39512, 39668, 39412, 39598, 39602, 38905, 39256, 38682, 38714, 39296, 38348, 38533, 39024, 38723, 39573, 38972, 38877, 38538, 37974, 38461, 38646, 38877, 38505, 38938, 38831, 38730, 39331, 39181, 38834, 38892, 38986, 38773, 39262, 38983, 39089, 39266, 39301, 39545, 39676, 40279, 40208, 39745, 39824, 39315, 39665, 39397, 39482, 39290, 39565, 40057, 40066, 40349, 40571, 39970, 39953, 39018, 40060, 40432, 40341, 40924, 39827, 39974, 39808, 39692, 40614, 41189, 40630, 41016, 40524, 40867, 40639, 40958, 40862, 40845, 41152, 40590, 40871, 41343, 40652, 41037, 41298, 41666, 40990, 41856, 40523, 41427, 41583, 40868, 40912, 41511, 40265, 40682, 40242, 40488, 41204, 40420, 41109, 40823, 39047, 37999, 37810, 38081, 38896],
      "WindowCenter": [10187.0, 10143.0, 10102.0, 10113.0, 10097.0, 10104.0, 10110.0, 10116.0, 10125.0, 10133.0, 10146.0, 10147.0, 10133.0, 10141.0, 10135.0, 10127.0, 10122.0, 10106.0, 10112.0, 10100.0, 10098.0, 10110.0, 10097.0, 10108.0, 10114.0, 10088.0, 10089.0, 10095.0, 10099.0, 10112.0, 10111.0, 10101.0, 10099.0, 10095.0, 10105.0, 10102.0, 10099.0, 10097.0, 10102.0, 10106.0, 10119.0, 10113.0, 10115.0, 10101.0, 10095.0, 10095.0, 10104.0, 10122.0, 10137.0, 10145.0, 10126.0, 10113.0, 10113.0, 10089.0, 10089.0, 10086.0, 10095.0, 10089.0, 10103.0, 10099.0, 10086.0, 10092.0, 10100.0, 10114.0, 10125.0, 10132.0, 10131.0, 10128.0, 10127.0, 10120.0, 10116.0, 10108.0, 10109.0, 10100.0, 10107.0, 10104.0, 10130.0, 10178.0, 10178.0, 10145.0, 10119.0, 10094.0, 10100.0, 10104.0, 10112.0, 10120.0, 10098.0, 10097.0, 10082.0, 10076.0, 10100.0, 10119.0, 10129.0, 10137.0, 10120.0, 10116.0, 10118.0, 10135.0, 10133.0, 10132.0, 10139.0, 10138.0, 10158.0, 10163.0, 10141.0, 10130.0, 10137.0, 10132.0, 10135.0, 10166.0, 10160.0, 10163.0, 10151.0, 10137.0, 10155.0, 10159.0, 10149.0, 10142.0, 10123.0, 10120.0, 10118.0, 10107.0, 10117.0, 10126.0, 10096.0, 10114.0, 10121.0, 10093.0, 10082.0],
      "WindowWidth": [21592.0, 21481.0, 21359.0, 21408.0, 21350.0, 21364.0, 21378.0, 21385.0, 21404.0, 21423.0, 21457.0, 21456.0, 21425.0, 21446.0, 21444.0, 21414.0, 21407.0, 21367.0, 21383.0, 21350.0, 21344.0, 21377.0, 21337.0, 21364.0, 21377.0, 21317.0, 21324.0, 21336.0, 21348.0, 21373.0, 21366.0, 21354.0, 21349.0, 21341.0, 21368.0, 21355.0, 21358.0, 21349.0, 21359.0, 21372.0, 21399.0, 21385.0, 21394.0, 21364.0, 21358.0, 21344.0, 21366.0, 21404.0, 21442.0, 21460.0, 21415.0, 21390.0, 21383.0, 21330.0, 21332.0, 21322.0, 21347.0, 21331.0, 21364.0, 21358.0, 21322.0, 21335.0, 21353.0, 21379.0, 21406.0, 21421.0, 21417.0, 21416.0, 21414.0, 21395.0, 21385.0, 21367.0, 21371.0, 21354.0, 21364.0, 21356.0, 21416.0, 21528.0, 21524.0, 21448.0, 21390.0, 21338.0, 21349.0, 21357.0, 21378.0, 21392.0, 21345.0, 21343.0, 21314.0, 21292.0, 21348.0, 21379.0, 21413.0, 21429.0, 21390.0, 21377.0, 21382.0, 21425.0, 21419.0, 21416.0, 21431.0, 21434.0, 21485.0, 21490.0, 21440.0, 21414.0, 21433.0, 21421.0, 21429.0, 21494.0, 21492.0, 21494.0, 21456.0, 21427.0, 21472.0, 21475.0, 21458.0, 21443.0, 21398.0, 21393.0, 21388.0, 21373.0, 21384.0, 21414.0, 21359.0, 21403.0, 21416.0, 21352.0, 21318.0]
    },
    "slices": {}
  }
}